EXPLAIN
TAG	PWR800_CHARGE
TITLE	LABEL	PWR Charge	Test Identifier
DATE	LABEL	10/11/2022	Date
TIME	LABEL	8:49:29	Time
NOTES	NOTES	1	Notes...
	
PSTAT	PSTAT	REF3000-21114	Potentiostat
CAPACITY	QUANT	5.30000E-002	Capacity (A-hr)
CELLTYPE	SELECTOR	1	Cell Type
WORKINGCONNECTION	SELECTOR	0	Working Connection
MAXCHARGETIME	VARIABLEANDUNITS	7.20000E+003	s	2.00000E+000	hour(s)	Max Charge Time
CHARGEMODE	MULTIPARAM	0	1.00000E-001	Charge Mode	Constant Current	Amp(s)
CHARGECURRENT	QUANT	0.1	Charge Current (A)
VOLTAGEFINISH	TWOPARAM	T	2.50000E-002	7.20000E+003	Voltage Finish	I (A) <	Max Time(s)
SAMPLETIME	QUANT	1.00000E+000	Sample Period (s)
CHARGESTOPAT1	MULTIPARAM	2	1.10000E+000	Stop At 1	|Voltage| > Limit	V
CHARGESTOPAT2	MULTIPARAM	0	0.00000E+000	Stop At 2	None	N/A
AESELECTOR	AESELECTOR	0x1	T	Set Limits	AE Channels
AESBHCSELECTOR	TOGGLE	F	Save Both Half Cells
IRCOMP	TOGGLE	F	IR Measure
EOC	QUANT	0.3084712	Open Circuit (V)
SEQUENCER	TOGGLE	TRUE	Run as Sequence
PSTATMODEL	IQUANT	5	Pstat Model
PSTATSECTION	LABEL	REF3000-21114	Pstat Section
PSTATSERIALNO	LABEL	21114	Pstat Serial Number
CTRLMODE	IQUANT	0	Control Mode
ELECTROMETER	IQUANT	0	RE=0 or CS=1
IESTAB	IQUANT	0	I/E Stability
CASPEED	IQUANT	4	Control Amp Speed
CONVENTION	IQUANT	1	Current Convention
ICHRANGE	IQUANT	2	Ich Range
ICHRANGEMODE	TOGGLE	T	Ich Auto Range
ICHOFFSETENABLE	TOGGLE	F	Ich Offset Enable
ICHOFFSET	QUANT	0	Ich Offset (V)
ICHFILTER	IQUANT	1	Ich Filter
VCHRANGE	IQUANT	3	Vch Range
VCHRANGEMODE	TOGGLE	T	Vch Auto Range
VCHOFFSETENABLE	TOGGLE	F	Vch Offset Enable
VCHOFFSET	QUANT	0	Vch Offset (V)
VCHFILTER	IQUANT	1	Vch Filter
ACHRANGE	IQUANT	2	Ach Range
ACHOFFSETENABLE	TOGGLE	F	Ach Offset Enable
ACHOFFSET	QUANT	0	Ach Offset (V)
ACHFILTER	IQUANT	1	Ach Filter
IERANGELOWERLIMIT	IQUANT	9	I/E Range Lower Limit
IERANGEMODE	TOGGLE	F	I/E AutoRange
IERANGE	IQUANT	9	I/E Range
POSFEEDENABLE	TOGGLE	F	Positive Feedback IR Comp
POSFEEDRESISTANCE	QUANT	0	Positive Feedback Resistance (ohm)
ACHSELECT	IQUANT	1	Ach Select
SENSECABLEID	IQUANT	13	Sense Cable ID
PWRCABLEID	IQUANT	13	Power Cable ID
DCCALDATE	LABEL		DC Calibration Date
ACCALDATE	LABEL		AC Calibration Date
THERMOSELECT	IQUANT	1	Thermo Select
FRAMEWORKVERSION	LABEL	7.8.6	Framework Version
INSTRUMENTVERSION	LABEL	4.50	Instrument Version
COMPLIANCEVOLTAGE	IQUANT	0	Compliance Voltage
CURVE	TABLE	233
	Pt	T	Vf	Im	Vu	Pwr	Sig	Ach	Temp	IERange	Over	Vf1	Vf2	Vf3	Vf4	Vf5	Vf6	Vf7	Vf8	Pwr1	Pwr2	Pwr3	Pwr4	Pwr5	Pwr6	Pwr7	Pwr8
	#	s	V	A	V	W	V	V	deg C	#	bits	V	V	V	V	V	V	V	V	W	W	W	W	W	W	W	W
	0	1	5.45795E-001	9.98568E-002	0.00000E+000	5.45013E-002	9.94000E-001	3.74293E-002	3.29441E+001	11	...........	6.19847E-002	-3.70486E-003	5.57828E-001	6.86534E-001	-3.08600E-002	-3.93387E-002	6.45240E-001	-4.24919E-002	6.18959E-003	-3.69955E-004	5.57029E-002	6.85551E-002	-3.08158E-003	-3.92824E-003	6.44316E-002	-4.24311E-003
	1	2	6.77171E-001	9.98573E-002	0.00000E+000	6.76204E-002	9.94000E-001	3.73022E-002	3.31589E+001	11	...........	6.17224E-002	-3.72194E-003	5.57888E-001	6.86461E-001	-3.08585E-002	-3.93433E-002	6.45155E-001	-4.25915E-002	6.16343E-003	-3.71663E-004	5.57091E-002	6.85481E-002	-3.08144E-003	-3.92872E-003	6.44234E-002	-4.25307E-003
	2	3	8.48995E-001	9.98583E-002	0.00000E+000	8.47792E-002	9.94000E-001	3.77561E-002	3.59250E+001	11	...........	6.24562E-002	-3.73250E-003	5.58069E-001	6.86270E-001	-3.08422E-002	-3.93149E-002	6.45158E-001	-4.24775E-002	6.23677E-003	-3.72721E-004	5.57278E-002	6.85298E-002	-3.07985E-003	-3.92591E-003	6.44243E-002	-4.24173E-003
	3	3.34167	1.04052E+000	9.98587E-002	0.00000E+000	1.03905E-001	9.94000E-001	3.81922E-002	3.84670E+001	11	...........	6.31207E-002	-3.73780E-003	5.58200E-001	6.86187E-001	-3.07772E-002	-3.92992E-002	6.45256E-001	-4.25898E-002	6.30315E-003	-3.73252E-004	5.57411E-002	6.85217E-002	-3.07338E-003	-3.92437E-003	6.44344E-002	-4.25297E-003
	4	4	1.10133E+000	8.03455E-002	0.00000E+000	8.84871E-002	7.99956E-001	3.80634E-002	3.69134E+001	11	...........	6.29376E-002	-3.92194E-003	5.58174E-001	6.86208E-001	-3.08890E-002	-3.92627E-002	6.45170E-001	-4.25312E-002	5.05675E-003	-3.15110E-004	4.48468E-002	5.51337E-002	-2.48179E-003	-3.15458E-003	5.18365E-002	-3.41719E-003
	5	5	1.10100E+000	6.58307E-002	0.00000E+000	7.24795E-002	6.55631E-001	3.77130E-002	3.87175E+001	11	...........	6.23806E-002	-3.89444E-003	5.58075E-001	6.86139E-001	-3.08308E-002	-3.92812E-002	6.45223E-001	-4.24796E-002	4.10656E-003	-2.56374E-004	3.67385E-002	4.51690E-002	-2.02962E-003	-2.58591E-003	4.24755E-002	-2.79646E-003
	6	6	1.10095E+000	6.02608E-002	0.00000E+000	6.63440E-002	6.00235E-001	3.80275E-002	3.87074E+001	11	...........	6.28735E-002	-3.82208E-003	5.58050E-001	6.86130E-001	-3.08090E-002	-3.93003E-002	6.45194E-001	-4.25072E-002	3.78881E-003	-2.30322E-004	3.36286E-002	4.13468E-002	-1.85658E-003	-2.36827E-003	3.88800E-002	-2.56152E-003
	7	7	1.10079E+000	5.83153E-002	0.00000E+000	6.41928E-002	5.80887E-001	3.76761E-002	3.62740E+001	11	...........	6.23294E-002	-3.70208E-003	5.57969E-001	6.86276E-001	-3.08171E-002	-3.92699E-002	6.45195E-001	-4.24664E-002	3.63476E-003	-2.15888E-004	3.25381E-002	4.00204E-002	-1.79711E-003	-2.29003E-003	3.76247E-002	-2.47644E-003
	8	8	1.10090E+000	5.73173E-002	0.00000E+000	6.31005E-002	5.70966E-001	3.75951E-002	3.60241E+001	11	...........	6.21843E-002	-3.66556E-003	5.57807E-001	6.86330E-001	-3.08096E-002	-3.92529E-002	6.45110E-001	-4.25362E-002	3.56423E-003	-2.10100E-004	3.19719E-002	3.93386E-002	-1.76592E-003	-2.24987E-003	3.69759E-002	-2.43806E-003
	9	9	1.10092E+000	5.60338E-002	0.00000E+000	6.16888E-002	5.58204E-001	3.77567E-002	3.96047E+001	11	...........	6.24054E-002	-3.64708E-003	5.57693E-001	6.86236E-001	-3.07647E-002	-3.92599E-002	6.45083E-001	-4.26126E-002	3.49681E-003	-2.04360E-004	3.12496E-002	3.84524E-002	-1.72386E-003	-2.19988E-003	3.61464E-002	-2.38775E-003
	10	10	1.10077E+000	5.57206E-002	0.00000E+000	6.13358E-002	5.55087E-001	3.76189E-002	3.69952E+001	11	...........	6.22296E-002	-3.60333E-003	5.57563E-001	6.86208E-001	-3.07821E-002	-3.92697E-002	6.45091E-001	-4.26232E-002	3.46747E-003	-2.00780E-004	3.10678E-002	3.82359E-002	-1.71520E-003	-2.18813E-003	3.59448E-002	-2.37499E-003
	11	11	1.10088E+000	5.54453E-002	0.00000E+000	6.10388E-002	5.52352E-001	3.74857E-002	3.69656E+001	11	...........	6.20086E-002	-3.63625E-003	5.57645E-001	6.86344E-001	-3.08024E-002	-3.92406E-002	6.45011E-001	-4.25608E-002	3.43808E-003	-2.01613E-004	3.09188E-002	3.80545E-002	-1.70785E-003	-2.17570E-003	3.57628E-002	-2.35980E-003
	12	12	1.10093E+000	5.46640E-002	0.00000E+000	6.01811E-002	5.44583E-001	3.74235E-002	3.79043E+001	11	...........	6.18708E-002	-3.58361E-003	5.57760E-001	6.86472E-001	-3.08115E-002	-3.92529E-002	6.44943E-001	-4.25300E-002	3.38211E-003	-1.95895E-004	3.04894E-002	3.75253E-002	-1.68428E-003	-2.14572E-003	3.52552E-002	-2.32486E-003
	13	13	1.10077E+000	5.46346E-002	0.00000E+000	6.01402E-002	5.44291E-001	3.72730E-002	3.79882E+001	11	...........	6.16137E-002	-3.59125E-003	5.57828E-001	6.86522E-001	-3.08387E-002	-3.92694E-002	6.44995E-001	-4.25201E-002	3.36624E-003	-1.96207E-004	3.04767E-002	3.75079E-002	-1.68486E-003	-2.14547E-003	3.52390E-002	-2.32307E-003
	14	14	1.10088E+000	5.45544E-002	0.00000E+000	6.00578E-002	5.43496E-001	3.74022E-002	3.72844E+001	11	...........	6.18360E-002	-3.60736E-003	5.57746E-001	6.86566E-001	-3.08426E-002	-3.92664E-002	6.44864E-001	-4.24986E-002	3.37343E-003	-1.96797E-004	3.04275E-002	3.74552E-002	-1.68260E-003	-2.14215E-003	3.51802E-002	-2.31849E-003
	15	15	1.10093E+000	5.37563E-002	0.00000E+000	5.91820E-002	5.35557E-001	3.74737E-002	3.77123E+001	11	...........	6.19656E-002	-3.65097E-003	5.57739E-001	6.86667E-001	-3.08411E-002	-3.92621E-002	6.44900E-001	-4.25482E-002	3.33104E-003	-1.96263E-004	2.99820E-002	3.69127E-002	-1.65790E-003	-2.11059E-003	3.46674E-002	-2.28723E-003
	16	16	1.10077E+000	5.38089E-002	0.00000E+000	5.92312E-002	5.36080E-001	3.71482E-002	3.79304E+001	11	...........	6.14262E-002	-3.60417E-003	5.57726E-001	6.86938E-001	-3.08776E-002	-3.93044E-002	6.44925E-001	-4.23867E-002	3.30528E-003	-1.93936E-004	3.00106E-002	3.69634E-002	-1.66149E-003	-2.11493E-003	3.47027E-002	-2.28078E-003
	17	17	1.10087E+000	5.38973E-002	0.00000E+000	5.93338E-002	5.36956E-001	3.72980E-002	3.82114E+001	11	...........	6.16797E-002	-3.55597E-003	5.57640E-001	6.86906E-001	-3.08965E-002	-3.93200E-002	6.45037E-001	-4.22907E-002	3.32437E-003	-1.91657E-004	3.00553E-002	3.70224E-002	-1.66524E-003	-2.11924E-003	3.47657E-002	-2.27935E-003
	18	18	1.10094E+000	5.31275E-002	0.00000E+000	5.84903E-002	5.29302E-001	3.69947E-002	3.78234E+001	11	...........	6.11601E-002	-3.54319E-003	5.57723E-001	6.86935E-001	-3.08925E-002	-3.93312E-002	6.45107E-001	-4.23832E-002	3.24929E-003	-1.88241E-004	2.96305E-002	3.64952E-002	-1.64124E-003	-2.08957E-003	3.42730E-002	-2.25171E-003
	19	19	1.10076E+000	5.32106E-002	0.00000E+000	5.85723E-002	5.30127E-001	3.72797E-002	3.85069E+001	11	...........	6.16637E-002	-3.46361E-003	5.57498E-001	6.87027E-001	-3.08971E-002	-3.93314E-002	6.45090E-001	-4.23329E-002	3.28117E-003	-1.84301E-004	2.96648E-002	3.65571E-002	-1.64405E-003	-2.09285E-003	3.43256E-002	-2.25256E-003
	20	20	1.10087E+000	5.31379E-002	0.00000E+000	5.84979E-002	5.29408E-001	3.66505E-002	3.72149E+001	11	...........	6.08406E-002	-3.51236E-003	5.57480E-001	6.86877E-001	-3.09333E-002	-3.93097E-002	6.45271E-001	-4.24465E-002	3.23294E-003	-1.86640E-004	2.96233E-002	3.64992E-002	-1.64373E-003	-2.08884E-003	3.42884E-002	-2.25552E-003
	21	21	1.10094E+000	5.25116E-002	0.00000E+000	5.78122E-002	5.23185E-001	3.70702E-002	3.72349E+001	11	...........	6.16925E-002	-3.49042E-003	5.57471E-001	6.86827E-001	-3.09178E-002	-3.93243E-002	6.45251E-001	-4.24211E-002	3.23957E-003	-1.83287E-004	2.92737E-002	3.60664E-002	-1.62354E-003	-2.06498E-003	3.38832E-002	-2.22760E-003
	22	22	1.10077E+000	5.26190E-002	0.00000E+000	5.79212E-002	5.24246E-001	3.71019E-002	3.81008E+001	11	...........	6.17478E-002	-3.51208E-003	5.57447E-001	6.86888E-001	-3.09653E-002	-3.93510E-002	6.45247E-001	-4.25104E-002	3.24910E-003	-1.84802E-004	2.93323E-002	3.61434E-002	-1.62936E-003	-2.07061E-003	3.39522E-002	-2.23685E-003
	23	23	1.10086E+000	5.26556E-002	0.00000E+000	5.79667E-002	5.24616E-001	3.64373E-002	3.71509E+001	11	...........	6.06387E-002	-3.44528E-003	5.57516E-001	6.86916E-001	-3.09697E-002	-3.93551E-002	6.45149E-001	-4.24947E-002	3.19297E-003	-1.81413E-004	2.93564E-002	3.61700E-002	-1.63073E-003	-2.07227E-003	3.39707E-002	-2.23759E-003
	24	24	1.10095E+000	5.20666E-002	0.00000E+000	5.73226E-002	5.18754E-001	3.68742E-002	3.77118E+001	11	...........	6.13906E-002	-3.54819E-003	5.57590E-001	6.86895E-001	-3.09417E-002	-3.93890E-002	6.45127E-001	-4.25897E-002	3.19640E-003	-1.84742E-004	2.90318E-002	3.57643E-002	-1.61103E-003	-2.05085E-003	3.35896E-002	-2.21750E-003
	25	25	1.10077E+000	5.20194E-002	0.00000E+000	5.72612E-002	5.18292E-001	3.68304E-002	3.69339E+001	11	...........	6.13285E-002	-3.53917E-003	5.57598E-001	6.86809E-001	-3.09887E-002	-3.93817E-002	6.45179E-001	-4.25135E-002	3.19027E-003	-1.84105E-004	2.90059E-002	3.57274E-002	-1.61202E-003	-2.04861E-003	3.35618E-002	-2.21153E-003
	26	26	1.10086E+000	5.21022E-002	0.00000E+000	5.73572E-002	5.19115E-001	3.67072E-002	3.74419E+001	11	...........	6.11239E-002	-3.44028E-003	5.57497E-001	6.86731E-001	-3.09787E-002	-3.93708E-002	6.45099E-001	-4.24921E-002	3.18469E-003	-1.79246E-004	2.90468E-002	3.57802E-002	-1.61406E-003	-2.05131E-003	3.36111E-002	-2.21393E-003
	27	27	1.10095E+000	5.15574E-002	0.00000E+000	5.67622E-002	5.13699E-001	3.66393E-002	3.80861E+001	11	...........	6.10253E-002	-3.62347E-003	5.57573E-001	6.86622E-001	-3.09331E-002	-3.93694E-002	6.45118E-001	-4.23957E-002	3.14630E-003	-1.86817E-004	2.87470E-002	3.54005E-002	-1.59483E-003	-2.02979E-003	3.32606E-002	-2.18581E-003
	28	28	1.10076E+000	5.14081E-002	0.00000E+000	5.65881E-002	5.12213E-001	3.67833E-002	3.79652E+001	11	...........	6.12632E-002	-3.64264E-003	5.57661E-001	6.86611E-001	-3.09178E-002	-3.93862E-002	6.45145E-001	-4.26076E-002	3.14942E-003	-1.87261E-004	2.86683E-002	3.52974E-002	-1.58942E-003	-2.02477E-003	3.31657E-002	-2.19038E-003
	29	29	1.10086E+000	5.15050E-002	0.00000E+000	5.66997E-002	5.13176E-001	3.63827E-002	3.70303E+001	11	...........	6.05789E-002	-3.64222E-003	5.57592E-001	6.86688E-001	-3.09414E-002	-3.93644E-002	6.45169E-001	-4.26381E-002	3.12012E-003	-1.87593E-004	2.87188E-002	3.53679E-002	-1.59364E-003	-2.02747E-003	3.32295E-002	-2.19607E-003
	30	30	1.10096E+000	5.10692E-002	0.00000E+000	5.62250E-002	5.08841E-001	3.72418E-002	3.70834E+001	11	...........	6.20065E-002	-3.77153E-003	5.57537E-001	6.86745E-001	-3.09221E-002	-3.93700E-002	6.45213E-001	-4.27114E-002	3.16662E-003	-1.92609E-004	2.84729E-002	3.50715E-002	-1.57917E-003	-2.01059E-003	3.29505E-002	-2.18124E-003
	31	31	1.10076E+000	5.10582E-002	0.00000E+000	5.62028E-002	5.08730E-001	3.62957E-002	3.69257E+001	11	...........	6.04490E-002	-3.69292E-003	5.57531E-001	6.86742E-001	-3.09026E-002	-3.93897E-002	6.45188E-001	-4.27528E-002	3.08642E-003	-1.88554E-004	2.84666E-002	3.50639E-002	-1.57783E-003	-2.01117E-003	3.29422E-002	-2.18288E-003
	32	32	1.10086E+000	5.11404E-002	0.00000E+000	5.62983E-002	5.09545E-001	3.63956E-002	3.76635E+001	11	...........	6.05817E-002	-3.58264E-003	5.57493E-001	6.86816E-001	-3.09274E-002	-3.93929E-002	6.45230E-001	-4.26389E-002	3.09817E-003	-1.83218E-004	2.85104E-002	3.51240E-002	-1.58164E-003	-2.01457E-003	3.29973E-002	-2.18057E-003
	33	33	1.10096E+000	5.04969E-002	0.00000E+000	5.55949E-002	5.03148E-001	3.67913E-002	3.82141E+001	11	...........	6.12483E-002	-3.65347E-003	5.57389E-001	6.86842E-001	-3.09110E-002	-3.93961E-002	6.45305E-001	-4.25364E-002	3.09285E-003	-1.84489E-004	2.81464E-002	3.46834E-002	-1.56091E-003	-1.98938E-003	3.25859E-002	-2.14796E-003
	34	34	1.10077E+000	5.05353E-002	0.00000E+000	5.56276E-002	5.03530E-001	3.66307E-002	3.84620E+001	11	...........	6.09990E-002	-3.75958E-003	5.57411E-001	6.86889E-001	-3.08711E-002	-3.94054E-002	6.45169E-001	-4.26754E-002	3.08261E-003	-1.89992E-004	2.81690E-002	3.47122E-002	-1.56008E-003	-1.99137E-003	3.26038E-002	-2.15662E-003
	35	35	1.10085E+000	5.06717E-002	0.00000E+000	5.57817E-002	5.04884E-001	3.63972E-002	3.70374E+001	11	...........	6.06011E-002	-3.83806E-003	5.57420E-001	6.86904E-001	-3.08822E-002	-3.93899E-002	6.45191E-001	-4.25692E-002	3.07076E-003	-1.94481E-004	2.82454E-002	3.48066E-002	-1.56485E-003	-1.99595E-003	3.26929E-002	-2.15705E-003
	36	36	1.10096E+000	5.00720E-002	0.00000E+000	5.51275E-002	4.98927E-001	3.64759E-002	3.75443E+001	11	...........	6.07222E-002	-3.76097E-003	5.57368E-001	6.86957E-001	-3.08993E-002	-3.94000E-002	6.45121E-001	-4.25449E-002	3.04048E-003	-1.88319E-004	2.79085E-002	3.43973E-002	-1.54719E-003	-1.97284E-003	3.23025E-002	-2.13031E-003
	37	37	1.10077E+000	5.00286E-002	0.00000E+000	5.50698E-002	4.98485E-001	3.66418E-002	3.68114E+001	11	...........	6.10161E-002	-3.86028E-003	5.57333E-001	6.86856E-001	-3.08824E-002	-3.94199E-002	6.44977E-001	-4.26578E-002	3.05255E-003	-1.93124E-004	2.78826E-002	3.43624E-002	-1.54500E-003	-1.97212E-003	3.22673E-002	-2.13411E-003
	38	38	1.10084E+000	5.02346E-002	0.00000E+000	5.53003E-002	5.00531E-001	3.63088E-002	3.76935E+001	11	...........	6.04426E-002	-3.68792E-003	5.57395E-001	6.86986E-001	-3.08454E-002	-3.94336E-002	6.45056E-001	-4.26364E-002	3.03631E-003	-1.85261E-004	2.80005E-002	3.45105E-002	-1.54951E-003	-1.98093E-003	3.24041E-002	-2.14182E-003
	39	39	1.10097E+000	4.96514E-002	0.00000E+000	5.46647E-002	4.94741E-001	3.65569E-002	3.72249E+001	11	...........	6.08675E-002	-3.72153E-003	5.57316E-001	6.87231E-001	-3.08647E-002	-3.94401E-002	6.45143E-001	-4.27065E-002	3.02216E-003	-1.84779E-004	2.76716E-002	3.41220E-002	-1.53248E-003	-1.95826E-003	3.20323E-002	-2.12044E-003
	40	40	1.10076E+000	4.95631E-002	0.00000E+000	5.45571E-002	4.93859E-001	3.62240E-002	3.64907E+001	11	...........	6.03086E-002	-3.61431E-003	5.57308E-001	6.87266E-001	-3.08662E-002	-3.94162E-002	6.45090E-001	-4.26747E-002	2.98908E-003	-1.79136E-004	2.76219E-002	3.40630E-002	-1.52983E-003	-1.95359E-003	3.19726E-002	-2.11509E-003
	41	41	1.10085E+000	4.98946E-002	0.00000E+000	5.49262E-002	4.97156E-001	3.66082E-002	3.71386E+001	11	...........	6.09369E-002	-3.68000E-003	5.57351E-001	6.87327E-001	-3.08457E-002	-3.94274E-002	6.45187E-001	-4.26524E-002	3.04042E-003	-1.83612E-004	2.78088E-002	3.42939E-002	-1.53903E-003	-1.96721E-003	3.21914E-002	-2.12812E-003
	42	42	1.10097E+000	4.91573E-002	0.00000E+000	5.41206E-002	4.89831E-001	3.63203E-002	3.81542E+001	11	...........	6.04597E-002	-3.56819E-003	5.57309E-001	6.87364E-001	-3.08662E-002	-3.94290E-002	6.45233E-001	-4.24479E-002	2.97204E-003	-1.75403E-004	2.73958E-002	3.37890E-002	-1.51730E-003	-1.93823E-003	3.17179E-002	-2.08663E-003
	43	43	1.10076E+000	4.91378E-002	0.00000E+000	5.40891E-002	4.89632E-001	3.61654E-002	3.86227E+001	11	...........	6.02271E-002	-3.47847E-003	5.57204E-001	6.87282E-001	-3.08578E-002	-3.94096E-002	6.45236E-001	-4.24128E-002	2.95943E-003	-1.70924E-004	2.73798E-002	3.37715E-002	-1.51628E-003	-1.93650E-003	3.17055E-002	-2.08407E-003
	44	44	1.10084E+000	4.93186E-002	0.00000E+000	5.42919E-002	4.91428E-001	3.65457E-002	3.51889E+001	11	...........	6.08789E-002	-3.47625E-003	5.57344E-001	6.87177E-001	-3.08112E-002	-3.94101E-002	6.45267E-001	-4.25636E-002	3.00246E-003	-1.71444E-004	2.74874E-002	3.38906E-002	-1.51957E-003	-1.94365E-003	3.18236E-002	-2.09918E-003
	45	45	1.10097E+000	4.88738E-002	0.00000E+000	5.38085E-002	4.87010E-001	3.60651E-002	3.66352E+001	11	...........	6.00444E-002	-3.36500E-003	5.57294E-001	6.87226E-001	-3.08129E-002	-3.94260E-002	6.45207E-001	-4.24226E-002	2.93460E-003	-1.64460E-004	2.72371E-002	3.35874E-002	-1.50594E-003	-1.92690E-003	3.15337E-002	-2.07335E-003
	46	46	1.10077E+000	4.87159E-002	0.00000E+000	5.36249E-002	4.85437E-001	3.65798E-002	3.80776E+001	11	...........	6.09310E-002	-3.40556E-003	5.57347E-001	6.87316E-001	-3.08418E-002	-3.94342E-002	6.45214E-001	-4.25356E-002	2.96830E-003	-1.65905E-004	2.71517E-002	3.34832E-002	-1.50248E-003	-1.92107E-003	3.14322E-002	-2.07216E-003
	47	47	1.10084E+000	4.88814E-002	0.00000E+000	5.38104E-002	4.87081E-001	3.62258E-002	3.68893E+001	11	...........	6.02894E-002	-3.32194E-003	5.57319E-001	6.87549E-001	-3.08361E-002	-3.94399E-002	6.45063E-001	-4.26165E-002	2.94703E-003	-1.62381E-004	2.72425E-002	3.36083E-002	-1.50731E-003	-1.92788E-003	3.15316E-002	-2.08316E-003
	48	48	1.10097E+000	4.83409E-002	0.00000E+000	5.32220E-002	4.81703E-001	3.62552E-002	3.71418E+001	11	...........	6.03690E-002	-3.34792E-003	5.57214E-001	6.87719E-001	-3.08247E-002	-3.94567E-002	6.45062E-001	-4.27014E-002	2.91829E-003	-1.61841E-004	2.69363E-002	3.32449E-002	-1.49010E-003	-1.90737E-003	3.11829E-002	-2.06422E-003
	49	49	1.10076E+000	4.82450E-002	0.00000E+000	5.31063E-002	4.80754E-001	3.62621E-002	3.74595E+001	11	...........	6.03724E-002	-3.41750E-003	5.57397E-001	6.87658E-001	-3.08575E-002	-3.94075E-002	6.45000E-001	-4.26658E-002	2.91266E-003	-1.64877E-004	2.68916E-002	3.31760E-002	-1.48872E-003	-1.90121E-003	3.11180E-002	-2.05841E-003
	50	50	1.10084E+000	4.84292E-002	0.00000E+000	5.33127E-002	4.82586E-001	3.62022E-002	3.80963E+001	11	...........	6.02529E-002	-3.45319E-003	5.57535E-001	6.87580E-001	-3.08471E-002	-3.93971E-002	6.45111E-001	-4.26808E-002	2.91800E-003	-1.67236E-004	2.70010E-002	3.32990E-002	-1.49390E-003	-1.90797E-003	3.12422E-002	-2.06700E-003
	51	51	1.10097E+000	4.79305E-002	0.00000E+000	5.27701E-002	4.77624E-001	3.63681E-002	3.70932E+001	11	...........	6.05726E-002	-3.57167E-003	5.57468E-001	6.87512E-001	-3.07886E-002	-3.93894E-002	6.45056E-001	-4.26415E-002	2.90327E-003	-1.71192E-004	2.67197E-002	3.29528E-002	-1.47571E-003	-1.88795E-003	3.09178E-002	-2.04383E-003
	52	52	1.10077E+000	4.79019E-002	0.00000E+000	5.27288E-002	4.77346E-001	3.63787E-002	3.73539E+001	11	...........	6.05583E-002	-3.68042E-003	5.57321E-001	6.87637E-001	-3.08082E-002	-3.94019E-002	6.44927E-001	-4.24221E-002	2.90086E-003	-1.76299E-004	2.66967E-002	3.29391E-002	-1.47577E-003	-1.88743E-003	3.08932E-002	-2.03210E-003
	53	53	1.10083E+000	4.80835E-002	0.00000E+000	5.29319E-002	4.79148E-001	3.60726E-002	3.77824E+001	11	...........	6.00783E-002	-3.58111E-003	5.57194E-001	6.87743E-001	-3.08176E-002	-3.94168E-002	6.45023E-001	-4.25108E-002	2.88878E-003	-1.72192E-004	2.67918E-002	3.30691E-002	-1.48182E-003	-1.89530E-003	3.10150E-002	-2.04407E-003
	54	54	1.10097E+000	4.75256E-002	0.00000E+000	5.23244E-002	4.73604E-001	3.61433E-002	3.68499E+001	11	...........	6.01681E-002	-3.55194E-003	5.57228E-001	6.87552E-001	-3.07949E-002	-3.93925E-002	6.44966E-001	-4.25239E-002	2.85952E-003	-1.68808E-004	2.64826E-002	3.26763E-002	-1.46354E-003	-1.87215E-003	3.06524E-002	-2.02097E-003
	55	55	1.10076E+000	4.73788E-002	0.00000E+000	5.21529E-002	4.72145E-001	3.59259E-002	3.74663E+001	11	...........	5.98049E-002	-3.53639E-003	5.57042E-001	6.87489E-001	-3.07807E-002	-3.93987E-002	6.44970E-001	-4.23976E-002	2.83348E-003	-1.67550E-004	2.63920E-002	3.25724E-002	-1.45835E-003	-1.86666E-003	3.05579E-002	-2.00875E-003
	56	56	1.10084E+000	4.76536E-002	0.00000E+000	5.24589E-002	4.74878E-001	3.63733E-002	3.81089E+001	11	...........	6.05810E-002	-3.51653E-003	5.56948E-001	6.87559E-001	-3.08203E-002	-3.93907E-002	6.45000E-001	-4.23672E-002	2.88690E-003	-1.67575E-004	2.65406E-002	3.27646E-002	-1.46870E-003	-1.87711E-003	3.07366E-002	-2.01895E-003
	57	57	1.10097E+000	4.70649E-002	0.00000E+000	5.18172E-002	4.69025E-001	3.60597E-002	3.70241E+001	11	...........	6.00257E-002	-3.53889E-003	5.56963E-001	6.87573E-001	-3.07951E-002	-3.93860E-002	6.44914E-001	-4.23890E-002	2.82511E-003	-1.66558E-004	2.62134E-002	3.23606E-002	-1.44937E-003	-1.85370E-003	3.03528E-002	-1.99504E-003
	58	58	1.10077E+000	4.69162E-002	0.00000E+000	5.16441E-002	4.67548E-001	3.62277E-002	3.61394E+001	11	...........	6.03139E-002	-3.64083E-003	5.57003E-001	6.87667E-001	-3.07807E-002	-3.93925E-002	6.45013E-001	-4.25425E-002	2.82970E-003	-1.70814E-004	2.61325E-002	3.22627E-002	-1.44411E-003	-1.84815E-003	3.02616E-002	-1.99593E-003
	59	59	1.10083E+000	4.72909E-002	0.00000E+000	5.20592E-002	4.71277E-001	3.58729E-002	3.78114E+001	11	...........	5.97426E-002	-3.64889E-003	5.56781E-001	6.87453E-001	-3.07947E-002	-3.93956E-002	6.45062E-001	-4.23940E-002	2.82529E-003	-1.72559E-004	2.63307E-002	3.25103E-002	-1.45631E-003	-1.86305E-003	3.05056E-002	-2.00485E-003
	60	60	1.10097E+000	4.67068E-002	0.00000E+000	5.14229E-002	4.65465E-001	3.59542E-002	3.76992E+001	11	...........	6.03410E-002	-3.67708E-003	5.56943E-001	6.87292E-001	-3.07836E-002	-3.93693E-002	6.45086E-001	-4.23718E-002	2.81834E-003	-1.71745E-004	2.60130E-002	3.21012E-002	-1.43780E-003	-1.83882E-003	3.01299E-002	-1.97905E-003
	61	61	1.10077E+000	4.65340E-002	0.00000E+000	5.12234E-002	4.63749E-001	3.62102E-002	3.59270E+001	11	...........	6.03017E-002	-3.53069E-003	5.56671E-001	6.87364E-001	-3.07762E-002	-3.93433E-002	6.45058E-001	-4.23626E-002	2.80608E-003	-1.64297E-004	2.59041E-002	3.19858E-002	-1.43214E-003	-1.83080E-003	3.00172E-002	-1.97130E-003
	62	62	1.10083E+000	4.67760E-002	0.00000E+000	5.14923E-002	4.66152E-001	3.59706E-002	3.78916E+001	11	...........	5.98881E-002	-3.43625E-003	5.56515E-001	6.87192E-001	-3.07479E-002	-3.93492E-002	6.44970E-001	-4.25090E-002	2.80132E-003	-1.60734E-004	2.60315E-002	3.21441E-002	-1.43826E-003	-1.84060E-003	3.01691E-002	-1.98840E-003
	63	63	1.10097E+000	4.63318E-002	0.00000E+000	5.10099E-002	4.61735E-001	3.61024E-002	3.71481E+001	11	...........	6.01014E-002	-3.52681E-003	5.56582E-001	6.87193E-001	-3.07472E-002	-3.93872E-002	6.45010E-001	-4.26819E-002	2.78461E-003	-1.63403E-004	2.57875E-002	3.18389E-002	-1.42457E-003	-1.82488E-003	2.98845E-002	-1.97753E-003
	64	64	1.10078E+000	4.61041E-002	0.00000E+000	5.07504E-002	4.59473E-001	3.59370E-002	3.58885E+001	11	...........	5.98465E-002	-3.48222E-003	5.56548E-001	6.87285E-001	-3.08012E-002	-3.93803E-002	6.45093E-001	-4.27453E-002	2.75917E-003	-1.60545E-004	2.56592E-002	3.16867E-002	-1.42006E-003	-1.81559E-003	2.97414E-002	-1.97073E-003
	65	65	1.10083E+000	4.63066E-002	0.00000E+000	5.09756E-002	4.61483E-001	3.59292E-002	3.63027E+001	11	...........	5.98211E-002	-3.36069E-003	5.56645E-001	6.87285E-001	-3.08368E-002	-3.93679E-002	6.45095E-001	-4.27094E-002	2.77011E-003	-1.55622E-004	2.57763E-002	3.18258E-002	-1.42795E-003	-1.82300E-003	2.98722E-002	-1.97773E-003
	66	66	1.10097E+000	4.59735E-002	0.00000E+000	5.06152E-002	4.58170E-001	3.62616E-002	3.77793E+001	11	...........	6.03989E-002	-3.46056E-003	5.56758E-001	6.87161E-001	-3.08462E-002	-3.93593E-002	6.45025E-001	-4.28006E-002	2.77675E-003	-1.59094E-004	2.55961E-002	3.15912E-002	-1.41811E-003	-1.80948E-003	2.96540E-002	-1.96769E-003
	67	67	1.10078E+000	4.55975E-002	0.00000E+000	5.01929E-002	4.54435E-001	3.58254E-002	3.39597E+001	11	...........	5.96696E-002	-3.36639E-003	5.56860E-001	6.87072E-001	-3.08104E-002	-3.93731E-002	6.45218E-001	-4.28239E-002	2.72078E-003	-1.53499E-004	2.53914E-002	3.13287E-002	-1.40488E-003	-1.79531E-003	2.94203E-002	-1.95266E-003
	68	68	1.10083E+000	4.59788E-002	0.00000E+000	5.06147E-002	4.58228E-001	3.60470E-002	3.77663E+001	11	...........	5.99969E-002	-3.32597E-003	5.57018E-001	6.86962E-001	-3.08282E-002	-3.93728E-002	6.45148E-001	-4.26997E-002	2.75859E-003	-1.52924E-004	2.56110E-002	3.15857E-002	-1.41744E-003	-1.81031E-003	2.96631E-002	-1.96328E-003
	69	69	1.10096E+000	4.56008E-002	0.00000E+000	5.02049E-002	4.54467E-001	3.61920E-002	3.72213E+001	11	...........	6.02579E-002	-3.42319E-003	5.57132E-001	6.86894E-001	-3.08307E-002	-3.93515E-002	6.45211E-001	-4.26169E-002	2.74781E-003	-1.56100E-004	2.54057E-002	3.13229E-002	-1.40590E-003	-1.79446E-003	2.94221E-002	-1.94337E-003
	70	70	1.10079E+000	4.52747E-002	0.00000E+000	4.98379E-002	4.51223E-001	3.59256E-002	3.65136E+001	11	...........	5.98092E-002	-3.43944E-003	5.57006E-001	6.86944E-001	-3.08372E-002	-3.93193E-002	6.45131E-001	-4.26144E-002	2.70784E-003	-1.55720E-004	2.52183E-002	3.11012E-002	-1.39615E-003	-1.78017E-003	2.92081E-002	-1.92936E-003
	71	71	1.10082E+000	4.54778E-002	0.00000E+000	5.00630E-002	4.53244E-001	3.58422E-002	3.64295E+001	11	...........	5.96647E-002	-3.45194E-003	5.56870E-001	6.86854E-001	-3.08764E-002	-3.93194E-002	6.45271E-001	-4.25035E-002	2.71342E-003	-1.56987E-004	2.53252E-002	3.12366E-002	-1.40419E-003	-1.78816E-003	2.93455E-002	-1.93296E-003
	72	72	1.10096E+000	4.51995E-002	0.00000E+000	4.97627E-002	4.50474E-001	3.60681E-002	3.74317E+001	11	...........	6.00060E-002	-3.50806E-003	5.56915E-001	6.86948E-001	-3.08587E-002	-3.93128E-002	6.45294E-001	-4.24733E-002	2.71224E-003	-1.58562E-004	2.51722E-002	3.10497E-002	-1.39480E-003	-1.77692E-003	2.91669E-002	-1.91977E-003
	73	73	1.10079E+000	4.48947E-002	0.00000E+000	4.94197E-002	4.47443E-001	3.60021E-002	3.74589E+001	11	...........	5.99604E-002	-3.60014E-003	5.56838E-001	6.86869E-001	-3.08533E-002	-3.93362E-002	6.45231E-001	-4.26024E-002	2.69191E-003	-1.61627E-004	2.49991E-002	3.08368E-002	-1.38515E-003	-1.76599E-003	2.89675E-002	-1.91262E-003
	74	74	1.10082E+000	4.51126E-002	0.00000E+000	4.96609E-002	4.49612E-001	3.57583E-002	3.66068E+001	11	...........	5.95396E-002	-3.63264E-003	5.56802E-001	6.86898E-001	-3.08967E-002	-3.93389E-002	6.45177E-001	-4.26137E-002	2.68598E-003	-1.63878E-004	2.51188E-002	3.09877E-002	-1.39383E-003	-1.77468E-003	2.91056E-002	-1.92242E-003
	75	75	1.10096E+000	4.47877E-002	0.00000E+000	4.93095E-002	4.46382E-001	3.59512E-002	3.65099E+001	11	...........	5.98846E-002	-3.51181E-003	5.56765E-001	6.86881E-001	-3.09454E-002	-3.93210E-002	6.45114E-001	-4.26765E-002	2.68209E-003	-1.57286E-004	2.49362E-002	3.07638E-002	-1.38597E-003	-1.76109E-003	2.88931E-002	-1.91138E-003
	76	76	1.10079E+000	4.45573E-002	0.00000E+000	4.90482E-002	4.44092E-001	3.58281E-002	3.73899E+001	11	...........	5.96515E-002	-3.58542E-003	5.56669E-001	6.87098E-001	-3.09487E-002	-3.93307E-002	6.45274E-001	-4.26081E-002	2.65791E-003	-1.59756E-004	2.48036E-002	3.06152E-002	-1.37899E-003	-1.75247E-003	2.87516E-002	-1.89850E-003
	77	77	1.10082E+000	4.47536E-002	0.00000E+000	4.92658E-002	4.46045E-001	3.56922E-002	3.70265E+001	11	...........	5.94222E-002	-3.58764E-003	5.56422E-001	6.87098E-001	-3.09586E-002	-3.93149E-002	6.45281E-001	-4.23978E-002	2.65936E-003	-1.60560E-004	2.49019E-002	3.07501E-002	-1.38551E-003	-1.75948E-003	2.88787E-002	-1.89745E-003
	78	78	1.10096E+000	4.44042E-002	0.00000E+000	4.88871E-002	4.42569E-001	3.57882E-002	3.60372E+001	11	...........	5.95890E-002	-3.67278E-003	5.56266E-001	6.86909E-001	-3.09179E-002	-3.93026E-002	6.45305E-001	-4.23919E-002	2.64600E-003	-1.63087E-004	2.47006E-002	3.05017E-002	-1.37289E-003	-1.74520E-003	2.86542E-002	-1.88238E-003
	79	79	1.10080E+000	4.41301E-002	0.00000E+000	4.85783E-002	4.39845E-001	3.58055E-002	3.65202E+001	11	...........	5.96189E-002	-3.44139E-003	5.56233E-001	6.86828E-001	-3.08775E-002	-3.93262E-002	6.45243E-001	-4.24111E-002	2.63098E-003	-1.51869E-004	2.45466E-002	3.03097E-002	-1.36263E-003	-1.73547E-003	2.84746E-002	-1.87160E-003
	80	80	1.10082E+000	4.43441E-002	0.00000E+000	4.88149E-002	4.41974E-001	3.57242E-002	3.69340E+001	11	...........	5.95149E-002	-3.46514E-003	5.56255E-001	6.86937E-001	-3.08846E-002	-3.93317E-002	6.45185E-001	-4.24622E-002	2.63913E-003	-1.53659E-004	2.46666E-002	3.04616E-002	-1.36955E-003	-1.74413E-003	2.86101E-002	-1.88295E-003
	81	81	1.10095E+000	4.40389E-002	0.00000E+000	4.84848E-002	4.38939E-001	3.55817E-002	3.73798E+001	11	...........	5.92543E-002	-3.43403E-003	5.56154E-001	6.87146E-001	-3.08897E-002	-3.93279E-002	6.45309E-001	-4.25106E-002	2.60950E-003	-1.51231E-004	2.44924E-002	3.02612E-002	-1.36035E-003	-1.73196E-003	2.84187E-002	-1.87212E-003
	82	82	1.10080E+000	4.37532E-002	0.00000E+000	4.81634E-002	4.36094E-001	3.59727E-002	3.74040E+001	11	...........	5.98825E-002	-3.40736E-003	5.56252E-001	6.87112E-001	-3.08783E-002	-3.93131E-002	6.45494E-001	-4.25626E-002	2.62005E-003	-1.49083E-004	2.43378E-002	3.00633E-002	-1.35102E-003	-1.72007E-003	2.82424E-002	-1.86225E-003
	83	83	1.10082E+000	4.39310E-002	0.00000E+000	4.83600E-002	4.37858E-001	3.55921E-002	3.67421E+001	11	...........	5.92756E-002	-3.42958E-003	5.56361E-001	6.87144E-001	-3.08372E-002	-3.93264E-002	6.45407E-001	-4.24514E-002	2.60404E-003	-1.50665E-004	2.44415E-002	3.01869E-002	-1.35471E-003	-1.72765E-003	2.83534E-002	-1.86493E-003
	84	84	1.10095E+000	4.36639E-002	0.00000E+000	4.80719E-002	4.35201E-001	3.57063E-002	3.73382E+001	11	...........	5.94603E-002	-3.43444E-003	5.56398E-001	6.87027E-001	-3.08171E-002	-3.93442E-002	6.45344E-001	-4.25194E-002	2.59627E-003	-1.49961E-004	2.42945E-002	2.99983E-002	-1.34559E-003	-1.71792E-003	2.81782E-002	-1.85656E-003
	85	85	1.10081E+000	4.33943E-002	0.00000E+000	4.77687E-002	4.32523E-001	3.57956E-002	3.75785E+001	11	...........	5.95896E-002	-3.35014E-003	5.56383E-001	6.87332E-001	-3.08496E-002	-3.93517E-002	6.45154E-001	-4.27008E-002	2.58585E-003	-1.45377E-004	2.41439E-002	2.98263E-002	-1.33870E-003	-1.70764E-003	2.79960E-002	-1.85297E-003
	86	86	1.10082E+000	4.35533E-002	0.00000E+000	4.79443E-002	4.34104E-001	3.55558E-002	3.69849E+001	11	...........	5.91922E-002	-3.39958E-003	5.56545E-001	6.87435E-001	-3.08682E-002	-3.93342E-002	6.45183E-001	-4.26186E-002	2.57802E-003	-1.48063E-004	2.42394E-002	2.99401E-002	-1.34441E-003	-1.71313E-003	2.80999E-002	-1.85618E-003
	87	87	1.10095E+000	4.33247E-002	0.00000E+000	4.76981E-002	4.31829E-001	3.55930E-002	3.76422E+001	11	...........	5.92614E-002	-3.34569E-003	5.56628E-001	6.87531E-001	-3.08461E-002	-3.93353E-002	6.45096E-001	-4.26992E-002	2.56748E-003	-1.44951E-004	2.41158E-002	2.97871E-002	-1.33640E-003	-1.70419E-003	2.79486E-002	-1.84993E-003
	88	88	1.10081E+000	4.30142E-002	0.00000E+000	4.73505E-002	4.28744E-001	3.56805E-002	3.80944E+001	11	...........	5.94312E-002	-3.55778E-003	5.56723E-001	6.87579E-001	-3.08047E-002	-3.93225E-002	6.45057E-001	-4.27158E-002	2.55639E-003	-1.53035E-004	2.39470E-002	2.95756E-002	-1.32504E-003	-1.69143E-003	2.77466E-002	-1.83739E-003
	89	89	1.10082E+000	4.32023E-002	0.00000E+000	4.75578E-002	4.30616E-001	3.52791E-002	3.56992E+001	11	...........	5.87387E-002	-3.55389E-003	5.56744E-001	6.87663E-001	-3.07947E-002	-3.93007E-002	6.45045E-001	-4.27850E-002	2.53765E-003	-1.53536E-004	2.40527E-002	2.97087E-002	-1.33040E-003	-1.69788E-003	2.78675E-002	-1.84841E-003
	90	90	1.10095E+000	4.29094E-002	0.00000E+000	4.72410E-002	4.27701E-001	3.57425E-002	3.60136E+001	11	...........	5.95344E-002	-3.63625E-003	5.56712E-001	6.87612E-001	-3.08265E-002	-3.93029E-002	6.45112E-001	-4.27264E-002	2.55459E-003	-1.56029E-004	2.38882E-002	2.95050E-002	-1.32275E-003	-1.68646E-003	2.76814E-002	-1.83336E-003
	91	91	1.10081E+000	4.26177E-002	0.00000E+000	4.69141E-002	4.24801E-001	3.58283E-002	3.77330E+001	11	...........	5.96546E-002	-3.53681E-003	5.56652E-001	6.87502E-001	-3.08631E-002	-3.93071E-002	6.45060E-001	-4.26711E-002	2.54234E-003	-1.50731E-004	2.37233E-002	2.92998E-002	-1.31531E-003	-1.67518E-003	2.74910E-002	-1.81855E-003
	92	92	1.10082E+000	4.28105E-002	0.00000E+000	4.71266E-002	4.26720E-001	3.54344E-002	3.57565E+001	11	...........	5.90292E-002	-3.62889E-003	5.56694E-001	6.87496E-001	-3.08914E-002	-3.92574E-002	6.44971E-001	-4.27531E-002	2.52707E-003	-1.55355E-004	2.38324E-002	2.94321E-002	-1.32248E-003	-1.68063E-003	2.76116E-002	-1.83028E-003
	93	93	1.10094E+000	4.26253E-002	0.00000E+000	4.69279E-002	4.24876E-001	3.54590E-002	3.70338E+001	11	...........	5.90551E-002	-3.52319E-003	5.56539E-001	6.87542E-001	-3.09178E-002	-3.92540E-002	6.45036E-001	-4.26901E-002	2.51724E-003	-1.50177E-004	2.37226E-002	2.93067E-002	-1.31788E-003	-1.67321E-003	2.74949E-002	-1.81968E-003
	94	94	1.10082E+000	4.22258E-002	0.00000E+000	4.64829E-002	4.20903E-001	3.56251E-002	3.67041E+001	11	...........	5.93221E-002	-3.59931E-003	5.56544E-001	6.87660E-001	-3.09103E-002	-3.92685E-002	6.45179E-001	-4.27276E-002	2.50492E-003	-1.51984E-004	2.35005E-002	2.90370E-002	-1.30521E-003	-1.65814E-003	2.72432E-002	-1.80421E-003
	95	95	1.10082E+000	4.24476E-002	0.00000E+000	4.67270E-002	4.23108E-001	3.56111E-002	3.73754E+001	11	...........	5.93201E-002	-3.56583E-003	5.56474E-001	6.87660E-001	-3.09261E-002	-3.92671E-002	6.45284E-001	-4.27217E-002	2.51799E-003	-1.51361E-004	2.36209E-002	2.91895E-002	-1.31274E-003	-1.66679E-003	2.73907E-002	-1.81343E-003
	96	96	1.10094E+000	4.22438E-002	0.00000E+000	4.65078E-002	4.21082E-001	3.55385E-002	3.68462E+001	11	...........	5.91801E-002	-3.61069E-003	5.56439E-001	6.87525E-001	-3.09299E-002	-3.92676E-002	6.45311E-001	-4.27160E-002	2.50000E-003	-1.52530E-004	2.35061E-002	2.90437E-002	-1.30660E-003	-1.65882E-003	2.72604E-002	-1.80449E-003
	97	97	1.10082E+000	4.18252E-002	0.00000E+000	4.60422E-002	4.16918E-001	3.51552E-002	3.74809E+001	11	...........	5.85565E-002	-3.62514E-003	5.56325E-001	6.87655E-001	-3.09071E-002	-3.92803E-002	6.45281E-001	-4.27336E-002	2.44914E-003	-1.51622E-004	2.32684E-002	2.87613E-002	-1.29270E-003	-1.64291E-003	2.69891E-002	-1.78734E-003
	98	98	1.10081E+000	4.20924E-002	0.00000E+000	4.63358E-002	4.19577E-001	3.57782E-002	3.60468E+001	11	...........	5.95749E-002	-3.73361E-003	5.56347E-001	6.87693E-001	-3.09104E-002	-3.92881E-002	6.45293E-001	-4.26208E-002	2.50765E-003	-1.57157E-004	2.34180E-002	2.89466E-002	-1.30109E-003	-1.65373E-003	2.71619E-002	-1.79401E-003
	99	99	1.10094E+000	4.19261E-002	0.00000E+000	4.61579E-002	4.17922E-001	3.54925E-002	3.81965E+001	11	...........	5.90931E-002	-3.76639E-003	5.56276E-001	6.87789E-001	-3.09006E-002	-3.92939E-002	6.45207E-001	-4.27024E-002	2.47754E-003	-1.57910E-004	2.33225E-002	2.88363E-002	-1.29554E-003	-1.64744E-003	2.70510E-002	-1.79034E-003
	100	100	1.10083E+000	4.14823E-002	0.00000E+000	4.56647E-002	4.13509E-001	3.52974E-002	3.62852E+001	11	...........	5.87844E-002	-3.83542E-003	5.56329E-001	6.87795E-001	-3.09158E-002	-3.92796E-002	6.45123E-001	-4.28272E-002	2.43851E-003	-1.59102E-004	2.30778E-002	2.85313E-002	-1.28246E-003	-1.62941E-003	2.67612E-002	-1.77657E-003
	101	101	1.10081E+000	4.17478E-002	0.00000E+000	4.59564E-002	4.16149E-001	3.55115E-002	3.71963E+001	11	...........	5.91419E-002	-3.74958E-003	5.56152E-001	6.87918E-001	-3.08976E-002	-3.92894E-002	6.45114E-001	-4.28493E-002	2.46905E-003	-1.56537E-004	2.32181E-002	2.87191E-002	-1.28991E-003	-1.64025E-003	2.69321E-002	-1.78887E-003
	102	102	1.10094E+000	4.15648E-002	0.00000E+000	4.57604E-002	4.14330E-001	3.56351E-002	3.56562E+001	11	...........	5.93467E-002	-3.64847E-003	5.56084E-001	6.87846E-001	-3.08874E-002	-3.93056E-002	6.45109E-001	-4.27283E-002	2.46673E-003	-1.51648E-004	2.31135E-002	2.85902E-002	-1.28383E-003	-1.63373E-003	2.68138E-002	-1.77600E-003
	103	103	1.10082E+000	4.11004E-002	0.00000E+000	4.52443E-002	4.09714E-001	3.53424E-002	3.66572E+001	11	...........	5.88808E-002	-3.59514E-003	5.56038E-001	6.87791E-001	-3.08717E-002	-3.93149E-002	6.45220E-001	-4.27186E-002	2.42003E-003	-1.47762E-004	2.28534E-002	2.82685E-002	-1.26884E-003	-1.61586E-003	2.65188E-002	-1.75575E-003
	104	104	1.10081E+000	4.13929E-002	0.00000E+000	4.55656E-002	4.12618E-001	3.53936E-002	3.64228E+001	11	...........	5.89617E-002	-3.48903E-003	5.55988E-001	6.87734E-001	-3.08881E-002	-3.93140E-002	6.45164E-001	-4.26499E-002	2.44059E-003	-1.44421E-004	2.30139E-002	2.84673E-002	-1.27855E-003	-1.62732E-003	2.67052E-002	-1.76540E-003
	105	105	1.10093E+000	4.11741E-002	0.00000E+000	4.53299E-002	4.10443E-001	3.53253E-002	3.65781E+001	11	...........	5.88306E-002	-3.46472E-003	5.56272E-001	6.87650E-001	-3.09028E-002	-3.93017E-002	6.45192E-001	-4.25528E-002	2.42230E-003	-1.42657E-004	2.29040E-002	2.83134E-002	-1.27240E-003	-1.61821E-003	2.65652E-002	-1.75207E-003
	106	106	1.10083E+000	4.08080E-002	0.00000E+000	4.49229E-002	4.06804E-001	3.55297E-002	3.59447E+001	11	...........	5.91679E-002	-3.51528E-003	5.56353E-001	6.87648E-001	-3.08996E-002	-3.93081E-002	6.45235E-001	-4.27667E-002	2.41452E-003	-1.43451E-004	2.27037E-002	2.80616E-002	-1.26095E-003	-1.60408E-003	2.63308E-002	-1.74522E-003
	107	107	1.10081E+000	4.10030E-002	0.00000E+000	4.51365E-002	4.08742E-001	3.50253E-002	3.67503E+001	11	...........	5.83292E-002	-3.54208E-003	5.56305E-001	6.87525E-001	-3.09132E-002	-3.93036E-002	6.45244E-001	-4.27200E-002	2.39167E-003	-1.45236E-004	2.28102E-002	2.81906E-002	-1.26753E-003	-1.61156E-003	2.64569E-002	-1.75165E-003
	108	108	1.10093E+000	4.08010E-002	0.00000E+000	4.49191E-002	4.06735E-001	3.54162E-002	3.72538E+001	11	...........	5.89542E-002	-3.52806E-003	5.56213E-001	6.87460E-001	-3.09606E-002	-3.93025E-002	6.45232E-001	-4.27903E-002	2.40539E-003	-1.43948E-004	2.26941E-002	2.80491E-002	-1.26322E-003	-1.60358E-003	2.63261E-002	-1.74589E-003
	109	109	1.10084E+000	4.04001E-002	0.00000E+000	4.44740E-002	4.02753E-001	3.54930E-002	3.54536E+001	11	...........	5.90831E-002	-3.52708E-003	5.56107E-001	6.87567E-001	-3.09368E-002	-3.92801E-002	6.45226E-001	-4.27071E-002	2.38696E-003	-1.42495E-004	2.24668E-002	2.77778E-002	-1.24985E-003	-1.58692E-003	2.60672E-002	-1.72537E-003
	110	110	1.10081E+000	4.06587E-002	0.00000E+000	4.47573E-002	4.05320E-001	3.51074E-002	3.70045E+001	11	...........	5.84364E-002	-3.57986E-003	5.56315E-001	6.87475E-001	-3.09133E-002	-3.92678E-002	6.45224E-001	-4.28475E-002	2.37595E-003	-1.45552E-004	2.26190E-002	2.79518E-002	-1.25690E-003	-1.59658E-003	2.62340E-002	-1.74212E-003
	111	111	1.10092E+000	4.05520E-002	0.00000E+000	4.46447E-002	4.04255E-001	3.51734E-002	3.68957E+001	11	...........	5.85801E-002	-3.54667E-003	5.56413E-001	6.87652E-001	-3.09135E-002	-3.92764E-002	6.45271E-001	-4.27417E-002	2.37554E-003	-1.43824E-004	2.25637E-002	2.78857E-002	-1.25360E-003	-1.59274E-003	2.61670E-002	-1.73326E-003
	112	112	1.10085E+000	4.00723E-002	0.00000E+000	4.41134E-002	3.99487E-001	3.51392E-002	3.64405E+001	11	...........	5.85121E-002	-3.59458E-003	5.56477E-001	6.87828E-001	-3.09125E-002	-3.92965E-002	6.45418E-001	-4.27192E-002	2.34471E-003	-1.44043E-004	2.22993E-002	2.75628E-002	-1.23873E-003	-1.57470E-003	2.58634E-002	-1.71185E-003
	113	113	1.10081E+000	4.03719E-002	0.00000E+000	4.44416E-002	4.02466E-001	3.55520E-002	3.60561E+001	11	...........	5.91868E-002	-3.57708E-003	5.56463E-001	6.88002E-001	-3.09206E-002	-3.92996E-002	6.45342E-001	-4.27179E-002	2.38948E-003	-1.44413E-004	2.24654E-002	2.77759E-002	-1.24832E-003	-1.58660E-003	2.60537E-002	-1.72460E-003
	114	114	1.10092E+000	4.02760E-002	0.00000E+000	4.43408E-002	4.01517E-001	3.53052E-002	3.74523E+001	11	...........	5.87685E-002	-3.62903E-003	5.56394E-001	6.88046E-001	-3.09251E-002	-3.92978E-002	6.45382E-001	-4.27432E-002	2.36696E-003	-1.46163E-004	2.24094E-002	2.77118E-002	-1.24554E-003	-1.58276E-003	2.59934E-002	-1.72153E-003
	115	115	1.10084E+000	3.96956E-002	0.00000E+000	4.36986E-002	3.95747E-001	3.49135E-002	3.64928E+001	11	...........	5.81493E-002	-3.58639E-003	5.56388E-001	6.87949E-001	-3.09279E-002	-3.92893E-002	6.45391E-001	-4.27282E-002	2.30827E-003	-1.42364E-004	2.20862E-002	2.73086E-002	-1.22770E-003	-1.55961E-003	2.56192E-002	-1.69612E-003
	116	116	1.10080E+000	4.00680E-002	0.00000E+000	4.41070E-002	3.99444E-001	3.51238E-002	3.75853E+001	11	...........	5.84894E-002	-3.66222E-003	5.56525E-001	6.87878E-001	-3.09115E-002	-3.93232E-002	6.45384E-001	-4.26337E-002	2.34355E-003	-1.46738E-004	2.22988E-002	2.75619E-002	-1.23856E-003	-1.57560E-003	2.58592E-002	-1.70825E-003
	117	117	1.10092E+000	3.99664E-002	0.00000E+000	4.39999E-002	3.98436E-001	3.54289E-002	3.77240E+001	11	...........	5.89881E-002	-3.69347E-003	5.56585E-001	6.87892E-001	-3.09004E-002	-3.93185E-002	6.45502E-001	-4.26425E-002	2.35754E-003	-1.47615E-004	2.22447E-002	2.74926E-002	-1.23498E-003	-1.57142E-003	2.57984E-002	-1.70427E-003
	118	118	1.10085E+000	3.93840E-002	0.00000E+000	4.33559E-002	3.92645E-001	3.51298E-002	3.68433E+001	11	...........	5.84996E-002	-3.69181E-003	5.56570E-001	6.87713E-001	-3.09187E-002	-3.93143E-002	6.45387E-001	-4.26786E-002	2.30395E-003	-1.45398E-004	2.19200E-002	2.70849E-002	-1.21770E-003	-1.54835E-003	2.54179E-002	-1.68085E-003
	119	119	1.10081E+000	3.96931E-002	0.00000E+000	4.36944E-002	3.95718E-001	3.50742E-002	3.73379E+001	11	...........	5.83928E-002	-3.56681E-003	5.56443E-001	6.87778E-001	-3.09453E-002	-3.93317E-002	6.45327E-001	-4.26942E-002	2.31779E-003	-1.41578E-004	2.20870E-002	2.73000E-002	-1.22831E-003	-1.56120E-003	2.56150E-002	-1.69466E-003
	120	120	1.10091E+000	3.94721E-002	0.00000E+000	4.34554E-002	3.93523E-001	3.52720E-002	3.67150E+001	11	...........	5.87336E-002	-3.57736E-003	5.56551E-001	6.87876E-001	-3.09486E-002	-3.93158E-002	6.45245E-001	-4.25772E-002	2.31834E-003	-1.41206E-004	2.19683E-002	2.71519E-002	-1.22161E-003	-1.55188E-003	2.54692E-002	-1.68061E-003
	121	121	1.10086E+000	3.90439E-002	0.00000E+000	4.29818E-002	3.89265E-001	3.51119E-002	3.62586E+001	11	...........	5.84739E-002	-3.46083E-003	5.56573E-001	6.88009E-001	-3.09474E-002	-3.93417E-002	6.45278E-001	-4.26042E-002	2.28305E-003	-1.35124E-004	2.17308E-002	2.68625E-002	-1.20830E-003	-1.53605E-003	2.51941E-002	-1.66343E-003
	122	122	1.10080E+000	3.93200E-002	0.00000E+000	4.32834E-002	3.92008E-001	3.50218E-002	3.78569E+001	11	...........	5.82967E-002	-3.35639E-003	5.56552E-001	6.87942E-001	-3.09410E-002	-3.93232E-002	6.45257E-001	-4.25335E-002	2.29223E-003	-1.31973E-004	2.18836E-002	2.70499E-002	-1.21660E-003	-1.54619E-003	2.53715E-002	-1.67242E-003
	123	123	1.10092E+000	3.92121E-002	0.00000E+000	4.31692E-002	3.90938E-001	3.53972E-002	3.74787E+001	11	...........	5.89565E-002	-3.45139E-003	5.56589E-001	6.87792E-001	-3.09065E-002	-3.93293E-002	6.45239E-001	-4.24587E-002	2.31181E-003	-1.35336E-004	2.18250E-002	2.69698E-002	-1.21191E-003	-1.54219E-003	2.53012E-002	-1.66490E-003
	124	124	1.10086E+000	3.86935E-002	0.00000E+000	4.25961E-002	3.85779E-001	3.49131E-002	3.68374E+001	11	...........	5.81160E-002	-3.37208E-003	5.56500E-001	6.87726E-001	-3.08896E-002	-3.93272E-002	6.45160E-001	-4.24507E-002	2.24871E-003	-1.30478E-004	2.15329E-002	2.66105E-002	-1.19523E-003	-1.52171E-003	2.49635E-002	-1.64256E-003
	125	125	1.10080E+000	3.89906E-002	0.00000E+000	4.29209E-002	3.88734E-001	3.50007E-002	3.73602E+001	11	...........	5.82950E-002	-3.40681E-003	5.56549E-001	6.87626E-001	-3.09044E-002	-3.93340E-002	6.45129E-001	-4.24549E-002	2.27296E-003	-1.32833E-004	2.17002E-002	2.68110E-002	-1.20498E-003	-1.53366E-003	2.51540E-002	-1.65534E-003
	126	126	1.10091E+000	3.88932E-002	0.00000E+000	4.28178E-002	3.87763E-001	3.52245E-002	3.72324E+001	11	...........	5.86503E-002	-3.49722E-003	5.56568E-001	6.87632E-001	-3.09181E-002	-3.93306E-002	6.45200E-001	-4.24001E-002	2.28110E-003	-1.36018E-004	2.16467E-002	2.67442E-002	-1.20250E-003	-1.52969E-003	2.50939E-002	-1.64908E-003
	127	127	1.10087E+000	3.83713E-002	0.00000E+000	4.22417E-002	3.82578E-001	3.50240E-002	3.61883E+001	11	...........	5.83076E-002	-3.39472E-003	5.56507E-001	6.87638E-001	-3.08897E-002	-3.93107E-002	6.45232E-001	-4.24224E-002	2.23734E-003	-1.30260E-004	2.13539E-002	2.63855E-002	-1.18528E-003	-1.50840E-003	2.47584E-002	-1.62780E-003
	128	128	1.10080E+000	3.86614E-002	0.00000E+000	4.25585E-002	3.85462E-001	3.50708E-002	3.66277E+001	11	...........	5.83989E-002	-3.43375E-003	5.56510E-001	6.87519E-001	-3.08911E-002	-3.93324E-002	6.45217E-001	-4.24225E-002	2.25779E-003	-1.32754E-004	2.15155E-002	2.65805E-002	-1.19429E-003	-1.52065E-003	2.49450E-002	-1.64011E-003
	129	129	1.10090E+000	3.85619E-002	0.00000E+000	4.24529E-002	3.84473E-001	3.50353E-002	3.74347E+001	11	...........	5.83418E-002	-3.28931E-003	5.56449E-001	6.87403E-001	-3.08910E-002	-3.93261E-002	6.45081E-001	-4.22900E-002	2.24977E-003	-1.26842E-004	2.14577E-002	2.65075E-002	-1.19121E-003	-1.51649E-003	2.48755E-002	-1.63078E-003
	130	130	1.10087E+000	3.80845E-002	0.00000E+000	4.19261E-002	3.79727E-001	3.47912E-002	3.66519E+001	11	...........	5.79276E-002	-3.42847E-003	5.56480E-001	6.87346E-001	-3.09028E-002	-3.93357E-002	6.45151E-001	-4.24215E-002	2.20615E-003	-1.30572E-004	2.11933E-002	2.61772E-002	-1.17692E-003	-1.49808E-003	2.45703E-002	-1.61560E-003
	131	131	1.10080E+000	3.83465E-002	0.00000E+000	4.22119E-002	3.82332E-001	3.53249E-002	3.64541E+001	11	...........	5.88174E-002	-3.41889E-003	5.56453E-001	6.87325E-001	-3.08917E-002	-3.93668E-002	6.45150E-001	-4.23668E-002	2.25544E-003	-1.31103E-004	2.13381E-002	2.63565E-002	-1.18459E-003	-1.50958E-003	2.47393E-002	-1.62462E-003
	132	132	1.10090E+000	3.82539E-002	0.00000E+000	4.21137E-002	3.81410E-001	3.47501E-002	3.69313E+001	11	...........	5.78642E-002	-3.32875E-003	5.56510E-001	6.87380E-001	-3.08840E-002	-3.93578E-002	6.45076E-001	-4.25753E-002	2.21353E-003	-1.27338E-004	2.12887E-002	2.62950E-002	-1.18144E-003	-1.50559E-003	2.46767E-002	-1.62867E-003
	133	133	1.10088E+000	3.77123E-002	0.00000E+000	4.15165E-002	3.76030E-001	3.48851E-002	3.74688E+001	11	...........	5.80871E-002	-3.37875E-003	5.56398E-001	6.87443E-001	-3.08796E-002	-3.93037E-002	6.45109E-001	-4.26122E-002	2.19060E-003	-1.27420E-004	2.09830E-002	2.59251E-002	-1.16454E-003	-1.48223E-003	2.43285E-002	-1.60700E-003
	134	134	1.10080E+000	3.79710E-002	0.00000E+000	4.17984E-002	3.78600E-001	3.48200E-002	3.76648E+001	11	...........	5.79792E-002	-3.48111E-003	5.56403E-001	6.87463E-001	-3.08746E-002	-3.92962E-002	6.45160E-001	-4.24999E-002	2.20152E-003	-1.32181E-004	2.11272E-002	2.61036E-002	-1.17234E-003	-1.49212E-003	2.44974E-002	-1.61376E-003
	135	135	1.10089E+000	3.79309E-002	0.00000E+000	4.17579E-002	3.78201E-001	3.52569E-002	3.65680E+001	11	...........	5.86999E-002	-3.61306E-003	5.56572E-001	6.87606E-001	-3.08985E-002	-3.93115E-002	6.45218E-001	-4.25360E-002	2.22654E-003	-1.37047E-004	2.11113E-002	2.60815E-002	-1.17201E-003	-1.49112E-003	2.44737E-002	-1.61343E-003
	136	136	1.10088E+000	3.74450E-002	0.00000E+000	4.12225E-002	3.73369E-001	3.46854E-002	3.77118E+001	11	...........	5.77350E-002	-3.44986E-003	5.56556E-001	6.87558E-001	-3.09154E-002	-3.93054E-002	6.45192E-001	-4.25836E-002	2.16189E-003	-1.29180E-004	2.08402E-002	2.57456E-002	-1.15763E-003	-1.47179E-003	2.41592E-002	-1.59454E-003
	137	137	1.10079E+000	3.76742E-002	0.00000E+000	4.14715E-002	3.75655E-001	3.50376E-002	3.70220E+001	11	...........	5.83483E-002	-3.43292E-003	5.56298E-001	6.87573E-001	-3.09187E-002	-3.92960E-002	6.45121E-001	-4.28068E-002	2.19823E-003	-1.29332E-004	2.09581E-002	2.59038E-002	-1.16484E-003	-1.48044E-003	2.43044E-002	-1.61271E-003
	138	138	1.10089E+000	3.75678E-002	0.00000E+000	4.13582E-002	3.74595E-001	3.47051E-002	3.68642E+001	11	...........	5.78085E-002	-3.31736E-003	5.56177E-001	6.87701E-001	-3.09329E-002	-3.92912E-002	6.45180E-001	-4.26668E-002	2.17174E-003	-1.24626E-004	2.08943E-002	2.58354E-002	-1.16208E-003	-1.47609E-003	2.42380E-002	-1.60290E-003
	139	139	1.10089E+000	3.70620E-002	0.00000E+000	4.08010E-002	3.69564E-001	3.45947E-002	3.66797E+001	11	...........	5.76068E-002	-3.38750E-003	5.56297E-001	6.87751E-001	-3.09301E-002	-3.92822E-002	6.45371E-001	-4.27003E-002	2.13502E-003	-1.25547E-004	2.06175E-002	2.54894E-002	-1.14633E-003	-1.45588E-003	2.39187E-002	-1.58256E-003
	140	140	1.10079E+000	3.73870E-002	0.00000E+000	4.11554E-002	3.72796E-001	3.54088E-002	3.72783E+001	11	...........	5.89599E-002	-3.50222E-003	5.56302E-001	6.87717E-001	-3.09218E-002	-3.92751E-002	6.45448E-001	-4.26703E-002	2.20433E-003	-1.30938E-004	2.07985E-002	2.57117E-002	-1.15607E-003	-1.46838E-003	2.41314E-002	-1.59531E-003
	141	141	1.10089E+000	3.72748E-002	0.00000E+000	4.10354E-002	3.71686E-001	3.46127E-002	3.63642E+001	11	...........	5.76321E-002	-3.63236E-003	5.56153E-001	6.87721E-001	-3.09028E-002	-3.92424E-002	6.45403E-001	-4.26374E-002	2.14822E-003	-1.35396E-004	2.07305E-002	2.56347E-002	-1.15189E-003	-1.46275E-003	2.40573E-002	-1.58930E-003
	142	142	1.10089E+000	3.67608E-002	0.00000E+000	4.04698E-002	3.66569E-001	3.47717E-002	3.46727E+001	11	...........	5.79162E-002	-3.46514E-003	5.56190E-001	6.87692E-001	-3.09021E-002	-3.92000E-002	6.45417E-001	-4.26344E-002	2.12905E-003	-1.27381E-004	2.04460E-002	2.52802E-002	-1.13599E-003	-1.44102E-003	2.37261E-002	-1.56728E-003
	143	143	1.10079E+000	3.71183E-002	0.00000E+000	4.08594E-002	3.70126E-001	3.52515E-002	3.75319E+001	11	...........	5.86976E-002	-3.41458E-003	5.55902E-001	6.87641E-001	-3.08706E-002	-3.91708E-002	6.45511E-001	-4.26053E-002	2.17875E-003	-1.26743E-004	2.06341E-002	2.55240E-002	-1.14586E-003	-1.45395E-003	2.39602E-002	-1.58143E-003
	144	144	1.10088E+000	3.69593E-002	0.00000E+000	4.06879E-002	3.68545E-001	3.43747E-002	3.66904E+001	11	...........	5.72201E-002	-3.46875E-003	5.55784E-001	6.87678E-001	-3.08908E-002	-3.91928E-002	6.45368E-001	-4.26887E-002	2.11481E-003	-1.28202E-004	2.05414E-002	2.54161E-002	-1.14170E-003	-1.44854E-003	2.38524E-002	-1.57775E-003
	145	145	1.10090E+000	3.65180E-002	0.00000E+000	4.02027E-002	3.64153E-001	3.50769E-002	3.69205E+001	11	...........	5.84097E-002	-3.43833E-003	5.55767E-001	6.87694E-001	-3.08660E-002	-3.91757E-002	6.45336E-001	-4.26646E-002	2.13301E-003	-1.25561E-004	2.02955E-002	2.51132E-002	-1.12716E-003	-1.43062E-003	2.35664E-002	-1.55803E-003
	146	146	1.10079E+000	3.67131E-002	0.00000E+000	4.04134E-002	3.66089E-001	3.47438E-002	3.80153E+001	11	...........	5.78249E-002	-3.49014E-003	5.55989E-001	6.87797E-001	-3.08842E-002	-3.91776E-002	6.45178E-001	-4.27444E-002	2.12293E-003	-1.28134E-004	2.04121E-002	2.52512E-002	-1.13385E-003	-1.43833E-003	2.36865E-002	-1.56928E-003
	147	147	1.10088E+000	3.67346E-002	0.00000E+000	4.04404E-002	3.66305E-001	3.48075E-002	3.61408E+001	11	...........	5.79532E-002	-3.43972E-003	5.56005E-001	6.87720E-001	-3.09507E-002	-3.92037E-002	6.45140E-001	-4.27161E-002	2.12889E-003	-1.26357E-004	2.04246E-002	2.52631E-002	-1.13696E-003	-1.44013E-003	2.36990E-002	-1.56916E-003
	148	148	1.10090E+000	3.62110E-002	0.00000E+000	3.98648E-002	3.61099E-001	3.44645E-002	3.70579E+001	11	...........	5.73839E-002	-3.47764E-003	5.56089E-001	6.87671E-001	-3.09668E-002	-3.92089E-002	6.45142E-001	-4.27935E-002	2.07793E-003	-1.25929E-004	2.01365E-002	2.49013E-002	-1.12134E-003	-1.41979E-003	2.33612E-002	-1.54959E-003
	149	149	1.10079E+000	3.64461E-002	0.00000E+000	4.01195E-002	3.63440E-001	3.46613E-002	3.78992E+001	11	...........	5.77257E-002	-3.48944E-003	5.56165E-001	6.87592E-001	-3.09758E-002	-3.91957E-002	6.45202E-001	-4.27524E-002	2.10388E-003	-1.27177E-004	2.02701E-002	2.50601E-002	-1.12895E-003	-1.42853E-003	2.35151E-002	-1.55816E-003
	150	150	1.10088E+000	3.64186E-002	0.00000E+000	4.00924E-002	3.63167E-001	3.49238E-002	3.70861E+001	11	...........	5.81612E-002	-3.56361E-003	5.56112E-001	6.87645E-001	-3.09758E-002	-3.91910E-002	6.45231E-001	-4.27315E-002	2.11815E-003	-1.29782E-004	2.02529E-002	2.50431E-002	-1.12810E-003	-1.42728E-003	2.34984E-002	-1.55622E-003
	151	151	1.10091E+000	3.59137E-002	0.00000E+000	3.95378E-002	3.58144E-001	3.47506E-002	3.70238E+001	11	...........	5.78544E-002	-3.43653E-003	5.56239E-001	6.87787E-001	-3.09699E-002	-3.91828E-002	6.45109E-001	-4.26685E-002	2.07777E-003	-1.23418E-004	1.99766E-002	2.47010E-002	-1.11224E-003	-1.40720E-003	2.31683E-002	-1.53238E-003
	152	152	1.10079E+000	3.60836E-002	0.00000E+000	3.97204E-002	3.59840E-001	3.45332E-002	3.48674E+001	11	...........	5.75110E-002	-3.46764E-003	5.56389E-001	6.87741E-001	-3.09478E-002	-3.91644E-002	6.45195E-001	-4.26979E-002	2.07520E-003	-1.25125E-004	2.00765E-002	2.48162E-002	-1.11671E-003	-1.41319E-003	2.32809E-002	-1.54069E-003
	153	153	1.10087E+000	3.61418E-002	0.00000E+000	3.97874E-002	3.60415E-001	3.46542E-002	3.71801E+001	11	...........	5.77033E-002	-3.29986E-003	5.56408E-001	6.87572E-001	-3.09074E-002	-3.92243E-002	6.45076E-001	-4.27663E-002	2.08550E-003	-1.19263E-004	2.01096E-002	2.48501E-002	-1.11705E-003	-1.41764E-003	2.33142E-002	-1.54565E-003
	154	154	1.10091E+000	3.56672E-002	0.00000E+000	3.92665E-002	3.55695E-001	3.49250E-002	3.70203E+001	11	...........	5.81456E-002	-3.41500E-003	5.56460E-001	6.87326E-001	-3.08958E-002	-3.92385E-002	6.45088E-001	-4.26722E-002	2.07389E-003	-1.21803E-004	1.98474E-002	2.45150E-002	-1.10197E-003	-1.39953E-003	2.30085E-002	-1.52200E-003
	155	155	1.10079E+000	3.57428E-002	0.00000E+000	3.93453E-002	3.56444E-001	3.43338E-002	3.58808E+001	11	...........	5.71821E-002	-3.45625E-003	5.56452E-001	6.87189E-001	-3.09208E-002	-3.91987E-002	6.45019E-001	-4.27301E-002	2.04384E-003	-1.23536E-004	1.98891E-002	2.45620E-002	-1.10520E-003	-1.40107E-003	2.30548E-002	-1.52729E-003
	156	156	1.10086E+000	3.58109E-002	0.00000E+000	3.94230E-002	3.57121E-001	3.48273E-002	3.64507E+001	11	...........	5.79775E-002	-3.43000E-003	5.56523E-001	6.87006E-001	-3.09356E-002	-3.91717E-002	6.45003E-001	-4.28367E-002	2.07623E-003	-1.22831E-004	1.99296E-002	2.46023E-002	-1.10783E-003	-1.40277E-003	2.30981E-002	-1.53402E-003
	157	157	1.10092E+000	3.53460E-002	0.00000E+000	3.89131E-002	3.52498E-001	3.46670E-002	3.77710E+001	11	...........	5.77278E-002	-3.65556E-003	5.56506E-001	6.87056E-001	-3.09154E-002	-3.91565E-002	6.44985E-001	-4.28485E-002	2.04045E-003	-1.29209E-004	1.96703E-002	2.42847E-002	-1.09274E-003	-1.38403E-003	2.27977E-002	-1.51452E-003
	158	158	1.10079E+000	3.54399E-002	0.00000E+000	3.90119E-002	3.53432E-001	3.46443E-002	3.62315E+001	11	...........	5.76522E-002	-3.64931E-003	5.56356E-001	6.87128E-001	-3.09325E-002	-3.91779E-002	6.44941E-001	-4.28312E-002	2.04319E-003	-1.29331E-004	1.97172E-002	2.43518E-002	-1.09625E-003	-1.38846E-003	2.28566E-002	-1.51794E-003
	159	159	1.10086E+000	3.55317E-002	0.00000E+000	3.91156E-002	3.54349E-001	3.45691E-002	3.66185E+001	11	...........	5.75640E-002	-3.58083E-003	5.56539E-001	6.87139E-001	-3.09069E-002	-3.92075E-002	6.44887E-001	-4.27487E-002	2.04535E-003	-1.27233E-004	1.97748E-002	2.44152E-002	-1.09818E-003	-1.39311E-003	2.29139E-002	-1.51894E-003
	160	160	1.10092E+000	3.50128E-002	0.00000E+000	3.85463E-002	3.49183E-001	3.46546E-002	3.43961E+001	11	...........	5.77229E-002	-3.61194E-003	5.56548E-001	6.86999E-001	-3.09037E-002	-3.92308E-002	6.44919E-001	-4.28540E-002	2.02104E-003	-1.26464E-004	1.94863E-002	2.40537E-002	-1.08203E-003	-1.37358E-003	2.25804E-002	-1.50044E-003
	161	161	1.10078E+000	3.51510E-002	0.00000E+000	3.86937E-002	3.50566E-001	3.41397E-002	3.91473E+001	11	...........	5.68561E-002	-3.65944E-003	5.56659E-001	6.86820E-001	-3.09475E-002	-3.92168E-002	6.44910E-001	-4.28621E-002	1.99855E-003	-1.28633E-004	1.95671E-002	2.41424E-002	-1.08784E-003	-1.37851E-003	2.26692E-002	-1.50665E-003
	162	162	1.10087E+000	3.51946E-002	0.00000E+000	3.87445E-002	3.50996E-001	3.49642E-002	3.67503E+001	11	...........	5.82240E-002	-3.75194E-003	5.56756E-001	6.86842E-001	-3.09511E-002	-3.92099E-002	6.45091E-001	-4.27743E-002	2.04917E-003	-1.32048E-004	1.95948E-002	2.41731E-002	-1.08931E-003	-1.37998E-003	2.27037E-002	-1.50542E-003
	163	163	1.10092E+000	3.47074E-002	0.00000E+000	3.82101E-002	3.46153E-001	3.45416E-002	3.60749E+001	11	...........	5.75242E-002	-3.56014E-003	5.56525E-001	6.86785E-001	-3.09694E-002	-3.91889E-002	6.45043E-001	-4.25890E-002	1.99651E-003	-1.23563E-004	1.93155E-002	2.38365E-002	-1.07487E-003	-1.36014E-003	2.23878E-002	-1.47815E-003
	164	164	1.10079E+000	3.48674E-002	0.00000E+000	3.83817E-002	3.47739E-001	3.44338E-002	3.67417E+001	11	...........	5.73357E-002	-3.61431E-003	5.56506E-001	6.86782E-001	-3.09651E-002	-3.92146E-002	6.45003E-001	-4.24907E-002	1.99914E-003	-1.26021E-004	1.94039E-002	2.39463E-002	-1.07967E-003	-1.36731E-003	2.24895E-002	-1.48154E-003
	165	165	1.10086E+000	3.49524E-002	0.00000E+000	3.84776E-002	3.48588E-001	3.48957E-002	3.66182E+001	11	...........	5.81121E-002	-3.50028E-003	5.56452E-001	6.86793E-001	-3.09279E-002	-3.92372E-002	6.45145E-001	-4.26403E-002	2.03116E-003	-1.22343E-004	1.94493E-002	2.40051E-002	-1.08100E-003	-1.37143E-003	2.25494E-002	-1.49038E-003
	166	166	1.10092E+000	3.44866E-002	0.00000E+000	3.79671E-002	3.43955E-001	3.42963E-002	3.74485E+001	11	...........	5.70940E-002	-3.54403E-003	5.56265E-001	6.86674E-001	-3.09129E-002	-3.92387E-002	6.45114E-001	-4.25918E-002	1.96898E-003	-1.22221E-004	1.91837E-002	2.36811E-002	-1.06608E-003	-1.35321E-003	2.22478E-002	-1.46885E-003
	167	167	1.10079E+000	3.45261E-002	0.00000E+000	3.80060E-002	3.44349E-001	3.44263E-002	3.61339E+001	11	...........	5.73199E-002	-3.47319E-003	5.56126E-001	6.86644E-001	-3.09358E-002	-3.92681E-002	6.45098E-001	-4.26425E-002	1.97903E-003	-1.19916E-004	1.92008E-002	2.37071E-002	-1.06809E-003	-1.35577E-003	2.22727E-002	-1.47228E-003
	168	168	1.10085E+000	3.46275E-002	0.00000E+000	3.81198E-002	3.45361E-001	3.43199E-002	3.55028E+001	11	...........	5.71367E-002	-3.49319E-003	5.56095E-001	6.86625E-001	-3.09535E-002	-3.92881E-002	6.45003E-001	-4.27465E-002	1.97850E-003	-1.20961E-004	1.92562E-002	2.37761E-002	-1.07184E-003	-1.36045E-003	2.23348E-002	-1.48021E-003
	169	169	1.10093E+000	3.42765E-002	0.00000E+000	3.77360E-002	3.41867E-001	3.49116E-002	3.67392E+001	11	...........	5.81269E-002	-3.56597E-003	5.56257E-001	6.86761E-001	-3.09356E-002	-3.92871E-002	6.44940E-001	-4.27683E-002	1.99239E-003	-1.22229E-004	1.90665E-002	2.35398E-002	-1.06036E-003	-1.34662E-003	2.21062E-002	-1.46595E-003
	170	170	1.10079E+000	3.42519E-002	0.00000E+000	3.77039E-002	3.41619E-001	3.38187E-002	3.73369E+001	11	...........	5.63333E-002	-3.54944E-003	5.56310E-001	6.86791E-001	-3.09501E-002	-3.92562E-002	6.44847E-001	-4.28071E-002	1.92952E-003	-1.21575E-004	1.90546E-002	2.35239E-002	-1.06010E-003	-1.34460E-003	2.20872E-002	-1.46622E-003
	171	171	1.10086E+000	3.43359E-002	0.00000E+000	3.77989E-002	3.42454E-001	3.46197E-002	3.61298E+001	11	...........	5.76504E-002	-3.53764E-003	5.56447E-001	6.86761E-001	-3.09893E-002	-3.92812E-002	6.44812E-001	-4.27928E-002	1.97948E-003	-1.21468E-004	1.91061E-002	2.35806E-002	-1.06405E-003	-1.34876E-003	2.21402E-002	-1.46933E-003
	172	172	1.10093E+000	3.39403E-002	0.00000E+000	3.73659E-002	3.38519E-001	3.47778E-002	3.76858E+001	11	...........	5.79019E-002	-3.56111E-003	5.56327E-001	6.86680E-001	-3.09458E-002	-3.92774E-002	6.44840E-001	-4.25379E-002	1.96521E-003	-1.20865E-004	1.88819E-002	2.33061E-002	-1.05031E-003	-1.33308E-003	2.18860E-002	-1.44375E-003
	173	173	1.10079E+000	3.40291E-002	0.00000E+000	3.74588E-002	3.39411E-001	3.41954E-002	3.73097E+001	11	...........	5.69503E-002	-3.61319E-003	5.56216E-001	6.86703E-001	-3.09325E-002	-3.92858E-002	6.44886E-001	-4.26044E-002	1.93797E-003	-1.22954E-004	1.89275E-002	2.33679E-002	-1.05260E-003	-1.33686E-003	2.19449E-002	-1.44979E-003
	174	174	1.10085E+000	3.40586E-002	0.00000E+000	3.74935E-002	3.39704E-001	3.46966E-002	3.70498E+001	11	...........	5.77787E-002	-3.66014E-003	5.56247E-001	6.86841E-001	-3.09847E-002	-3.92554E-002	6.44814E-001	-4.25011E-002	1.96786E-003	-1.24659E-004	1.89450E-002	2.33929E-002	-1.05530E-003	-1.33699E-003	2.19615E-002	-1.44753E-003
	175	175	1.10093E+000	3.36701E-002	0.00000E+000	3.70685E-002	3.35837E-001	3.41945E-002	3.69079E+001	11	...........	5.69339E-002	-3.47014E-003	5.56149E-001	6.87040E-001	-3.10247E-002	-3.92774E-002	6.44761E-001	-4.25086E-002	1.91697E-003	-1.16840E-004	1.87256E-002	2.31327E-002	-1.04461E-003	-1.32247E-003	2.17092E-002	-1.43127E-003
	176	176	1.10079E+000	3.37020E-002	0.00000E+000	3.70988E-002	3.36153E-001	3.44093E-002	3.63210E+001	11	...........	5.72882E-002	-3.52069E-003	5.56308E-001	6.86920E-001	-3.10067E-002	-3.92951E-002	6.44837E-001	-4.24935E-002	1.93073E-003	-1.18655E-004	1.87487E-002	2.31506E-002	-1.04499E-003	-1.32433E-003	2.17323E-002	-1.43212E-003
	177	177	1.10085E+000	3.38024E-002	0.00000E+000	3.72113E-002	3.37154E-001	3.41076E-002	3.71583E+001	11	...........	5.67936E-002	-3.44583E-003	5.56472E-001	6.86913E-001	-3.09986E-002	-3.92693E-002	6.44991E-001	-4.25146E-002	1.91976E-003	-1.16477E-004	1.88101E-002	2.32193E-002	-1.04783E-003	-1.32740E-003	2.18022E-002	-1.43709E-003
	178	178	1.10094E+000	3.34037E-002	0.00000E+000	3.67753E-002	3.33191E-001	3.44521E-002	3.72163E+001	11	...........	5.73731E-002	-3.53556E-003	5.56535E-001	6.86990E-001	-3.09439E-002	-3.92953E-002	6.45103E-001	-4.26378E-002	1.91647E-003	-1.18101E-004	1.85903E-002	2.29480E-002	-1.03364E-003	-1.31261E-003	2.15488E-002	-1.42426E-003
	179	179	1.10079E+000	3.34067E-002	0.00000E+000	3.67737E-002	3.33224E-001	3.44108E-002	3.66940E+001	11	...........	5.72851E-002	-3.49917E-003	5.56272E-001	6.86919E-001	-3.09137E-002	-3.93049E-002	6.44942E-001	-4.27589E-002	1.91371E-003	-1.16896E-004	1.85832E-002	2.29477E-002	-1.03273E-003	-1.31305E-003	2.15454E-002	-1.42843E-003
	180	180	1.10085E+000	3.35762E-002	0.00000E+000	3.69624E-002	3.34907E-001	3.44234E-002	3.73074E+001	11	...........	5.73411E-002	-3.52292E-003	5.56191E-001	6.86976E-001	-3.09419E-002	-3.92956E-002	6.44819E-001	-4.26347E-002	1.92530E-003	-1.18286E-004	1.86748E-002	2.30661E-002	-1.03891E-003	-1.31940E-003	2.16506E-002	-1.43151E-003
	181	181	1.10094E+000	3.31272E-002	0.00000E+000	3.64709E-002	3.30445E-001	3.43111E-002	3.80193E+001	11	...........	5.71457E-002	-3.48250E-003	5.56194E-001	6.87046E-001	-3.09371E-002	-3.93125E-002	6.44847E-001	-4.26301E-002	1.89308E-003	-1.15365E-004	1.84252E-002	2.27599E-002	-1.02486E-003	-1.30231E-003	2.13620E-002	-1.41222E-003
	182	182	1.10079E+000	3.31485E-002	0.00000E+000	3.64895E-002	3.30652E-001	3.41982E-002	3.65148E+001	11	...........	5.69482E-002	-3.52139E-003	5.56308E-001	6.86911E-001	-3.09281E-002	-3.92894E-002	6.44908E-001	-4.28135E-002	1.88775E-003	-1.16729E-004	1.84408E-002	2.27701E-002	-1.02522E-003	-1.30239E-003	2.13777E-002	-1.41920E-003
	183	183	1.10085E+000	3.32523E-002	0.00000E+000	3.66057E-002	3.31688E-001	3.44107E-002	3.69272E+001	11	...........	5.73025E-002	-3.37736E-003	5.56306E-001	6.87008E-001	-3.09268E-002	-3.92956E-002	6.45001E-001	-4.28162E-002	1.90544E-003	-1.12305E-004	1.84985E-002	2.28446E-002	-1.02839E-003	-1.30667E-003	2.14478E-002	-1.42374E-003
	184	184	1.10094E+000	3.28821E-002	0.00000E+000	3.62011E-002	3.28006E-001	3.41742E-002	3.70495E+001	11	...........	5.68865E-002	-3.44125E-003	5.56171E-001	6.86935E-001	-3.08821E-002	-3.92886E-002	6.45025E-001	-4.28081E-002	1.87055E-003	-1.13155E-004	1.82880E-002	2.25878E-002	-1.01547E-003	-1.29189E-003	2.12097E-002	-1.40762E-003
	185	185	1.10079E+000	3.29496E-002	0.00000E+000	3.62706E-002	3.28676E-001	3.43714E-002	3.78902E+001	11	...........	5.72206E-002	-3.44361E-003	5.56272E-001	6.87045E-001	-3.08831E-002	-3.92793E-002	6.45077E-001	-4.28176E-002	1.88540E-003	-1.13466E-004	1.83290E-002	2.26379E-002	-1.01759E-003	-1.29424E-003	2.12551E-002	-1.41083E-003
	186	186	1.10085E+000	3.29403E-002	0.00000E+000	3.62621E-002	3.28583E-001	3.42056E-002	3.62106E+001	11	...........	5.69436E-002	-3.51667E-003	5.56387E-001	6.86950E-001	-3.09211E-002	-3.92828E-002	6.45030E-001	-4.26485E-002	1.87574E-003	-1.15840E-004	1.83275E-002	2.26283E-002	-1.01855E-003	-1.29399E-003	2.12474E-002	-1.40485E-003
	187	187	1.10094E+000	3.26102E-002	0.00000E+000	3.59018E-002	3.25300E-001	3.42414E-002	3.63218E+001	11	...........	5.69982E-002	-3.46958E-003	5.56471E-001	6.87029E-001	-3.09197E-002	-3.92868E-002	6.45122E-001	-4.25479E-002	1.85872E-003	-1.13144E-004	1.81466E-002	2.24041E-002	-1.00830E-003	-1.28115E-003	2.10375E-002	-1.38749E-003
	188	188	1.10079E+000	3.26339E-002	0.00000E+000	3.59230E-002	3.25538E-001	3.43248E-002	3.75551E+001	11	...........	5.71614E-002	-3.38611E-003	5.56552E-001	6.86970E-001	-3.09082E-002	-3.92574E-002	6.45122E-001	-4.25650E-002	1.86540E-003	-1.10502E-004	1.81624E-002	2.24185E-002	-1.00865E-003	-1.28112E-003	2.10528E-002	-1.38906E-003
	189	189	1.10084E+000	3.27061E-002	0.00000E+000	3.60043E-002	3.26253E-001	3.42568E-002	3.66731E+001	11	...........	5.70490E-002	-3.44722E-003	5.56532E-001	6.86851E-001	-3.08812E-002	-3.92599E-002	6.45131E-001	-4.25524E-002	1.86585E-003	-1.12745E-004	1.82020E-002	2.24642E-002	-1.01000E-003	-1.28404E-003	2.10997E-002	-1.39172E-003
	190	190	1.10094E+000	3.23560E-002	0.00000E+000	3.56219E-002	3.22772E-001	3.41455E-002	3.61810E+001	11	...........	5.68628E-002	-3.51694E-003	5.56523E-001	6.86806E-001	-3.08910E-002	-3.92460E-002	6.45152E-001	-4.26103E-002	1.83985E-003	-1.13794E-004	1.80068E-002	2.22223E-002	-9.99507E-004	-1.26984E-003	2.08745E-002	-1.37870E-003
	191	191	1.10079E+000	3.22999E-002	0.00000E+000	3.55555E-002	3.22212E-001	3.43186E-002	3.63510E+001	11	...........	5.71404E-002	-3.69681E-003	5.56609E-001	6.86810E-001	-3.09001E-002	-3.92718E-002	6.45231E-001	-4.26435E-002	1.84563E-003	-1.19407E-004	1.79784E-002	2.21839E-002	-9.98072E-004	-1.26848E-003	2.08409E-002	-1.37738E-003
	192	192	1.10084E+000	3.24299E-002	0.00000E+000	3.57002E-002	3.23511E-001	3.43230E-002	3.65986E+001	11	...........	5.71606E-002	-3.64653E-003	5.56531E-001	6.86850E-001	-3.08782E-002	-3.93237E-002	6.45155E-001	-4.25947E-002	1.85371E-003	-1.18257E-004	1.80483E-002	2.22745E-002	-1.00138E-003	-1.27527E-003	2.09223E-002	-1.38134E-003
	193	193	1.10094E+000	3.21310E-002	0.00000E+000	3.53742E-002	3.20537E-001	3.39955E-002	3.65452E+001	11	...........	5.65931E-002	-3.53528E-003	5.56542E-001	6.86750E-001	-3.08521E-002	-3.93412E-002	6.45102E-001	-4.26574E-002	1.81839E-003	-1.13592E-004	1.78823E-002	2.20660E-002	-9.91309E-004	-1.26408E-003	2.07278E-002	-1.37063E-003
	194	194	1.10080E+000	3.20417E-002	0.00000E+000	3.52714E-002	3.19649E-001	3.41329E-002	3.63670E+001	11	...........	5.68442E-002	-3.55806E-003	5.56521E-001	6.86676E-001	-3.08782E-002	-3.93542E-002	6.45138E-001	-4.24939E-002	1.82138E-003	-1.14006E-004	1.78319E-002	2.20023E-002	-9.89389E-004	-1.26097E-003	2.06713E-002	-1.36158E-003
	195	195	1.10084E+000	3.22053E-002	0.00000E+000	3.54528E-002	3.21276E-001	3.42294E-002	3.63751E+001	11	...........	5.69994E-002	-3.47431E-003	5.56565E-001	6.86559E-001	-3.08860E-002	-3.93397E-002	6.45258E-001	-4.24597E-002	1.83568E-003	-1.11891E-004	1.79243E-002	2.21108E-002	-9.94692E-004	-1.26695E-003	2.07807E-002	-1.36743E-003
	196	196	1.10094E+000	3.18826E-002	0.00000E+000	3.51008E-002	3.18072E-001	3.41192E-002	3.66078E+001	11	...........	5.68047E-002	-3.54417E-003	5.56517E-001	6.86496E-001	-3.08239E-002	-3.93393E-002	6.45301E-001	-4.24511E-002	1.81108E-003	-1.12997E-004	1.77432E-002	2.18872E-002	-9.82745E-004	-1.25424E-003	2.05738E-002	-1.35345E-003
	197	197	1.10079E+000	3.17875E-002	0.00000E+000	3.49914E-002	3.17123E-001	3.40668E-002	3.65477E+001	11	...........	5.67257E-002	-3.50875E-003	5.56450E-001	6.86582E-001	-3.08290E-002	-3.93351E-002	6.45461E-001	-4.24971E-002	1.80317E-003	-1.11534E-004	1.76881E-002	2.18247E-002	-9.79976E-004	-1.25036E-003	2.05176E-002	-1.35087E-003
	198	198	1.10084E+000	3.19681E-002	0.00000E+000	3.51917E-002	3.18917E-001	3.41183E-002	3.64689E+001	11	...........	5.68292E-002	-3.45875E-003	5.56435E-001	6.86676E-001	-3.08737E-002	-3.93306E-002	6.45427E-001	-4.25475E-002	1.81672E-003	-1.10570E-004	1.77882E-002	2.19517E-002	-9.86976E-004	-1.25732E-003	2.06331E-002	-1.36016E-003
	199	199	1.10094E+000	3.16147E-002	0.00000E+000	3.48058E-002	3.15408E-001	3.37668E-002	3.70648E+001	11	...........	5.62047E-002	-3.60194E-003	5.56398E-001	6.86606E-001	-3.08878E-002	-3.93172E-002	6.45322E-001	-4.25321E-002	1.77689E-003	-1.13874E-004	1.75904E-002	2.17068E-002	-9.76507E-004	-1.24300E-003	2.04017E-002	-1.34464E-003
	200	200	1.10080E+000	3.15368E-002	0.00000E+000	3.47156E-002	3.14632E-001	3.43554E-002	3.71434E+001	11	...........	5.72175E-002	-3.62375E-003	5.56434E-001	6.86606E-001	-3.08737E-002	-3.92971E-002	6.45352E-001	-4.25636E-002	1.80445E-003	-1.14281E-004	1.75481E-002	2.16533E-002	-9.73658E-004	-1.23930E-003	2.03523E-002	-1.34232E-003
	201	201	1.10084E+000	3.17173E-002	0.00000E+000	3.49156E-002	3.16429E-001	3.42221E-002	3.72304E+001	11	...........	5.69687E-002	-3.56125E-003	5.56396E-001	6.86667E-001	-3.08594E-002	-3.93044E-002	6.45327E-001	-4.25517E-002	1.80690E-003	-1.12953E-004	1.76474E-002	2.17792E-002	-9.78779E-004	-1.24663E-003	2.04681E-002	-1.34962E-003
	202	202	1.10093E+000	3.13718E-002	0.00000E+000	3.45383E-002	3.12989E-001	3.37602E-002	3.68023E+001	11	...........	5.62276E-002	-3.43389E-003	5.56279E-001	6.86652E-001	-3.08824E-002	-3.92885E-002	6.45266E-001	-4.25254E-002	1.76396E-003	-1.07727E-004	1.74515E-002	2.15415E-002	-9.68836E-004	-1.23255E-003	2.02432E-002	-1.33410E-003
	203	203	1.10080E+000	3.12610E-002	0.00000E+000	3.44122E-002	3.11886E-001	3.41248E-002	3.57798E+001	11	...........	5.68182E-002	-3.43903E-003	5.56246E-001	6.86692E-001	-3.08929E-002	-3.92686E-002	6.45237E-001	-4.25397E-002	1.77619E-003	-1.07507E-004	1.73888E-002	2.14666E-002	-9.65743E-004	-1.22757E-003	2.01707E-002	-1.32983E-003
	204	204	1.10083E+000	3.14196E-002	0.00000E+000	3.45878E-002	3.13466E-001	3.39288E-002	3.68737E+001	11	...........	5.64875E-002	-3.54750E-003	5.56188E-001	6.86779E-001	-3.08675E-002	-3.92722E-002	6.45324E-001	-4.25110E-002	1.77482E-003	-1.11461E-004	1.74752E-002	2.15784E-002	-9.69846E-004	-1.23392E-003	2.02758E-002	-1.33568E-003
	205	205	1.10093E+000	3.11206E-002	0.00000E+000	3.42617E-002	3.10496E-001	3.38103E-002	3.72739E+001	11	...........	5.65410E-002	-3.71264E-003	5.56070E-001	6.86817E-001	-3.08575E-002	-3.93172E-002	6.45365E-001	-4.23265E-002	1.75959E-003	-1.15539E-004	1.73052E-002	2.13741E-002	-9.60303E-004	-1.22357E-003	2.00841E-002	-1.31723E-003
	206	206	1.10080E+000	3.09835E-002	0.00000E+000	3.41067E-002	3.09126E-001	3.41310E-002	3.66539E+001	11	...........	5.68381E-002	-3.65833E-003	5.56122E-001	6.86801E-001	-3.08689E-002	-3.93482E-002	6.45497E-001	-4.23460E-002	1.76104E-003	-1.13348E-004	1.72306E-002	2.12795E-002	-9.56425E-004	-1.21914E-003	1.99997E-002	-1.31202E-003
	207	207	1.10083E+000	3.11531E-002	0.00000E+000	3.42944E-002	3.10816E-001	3.42204E-002	3.75009E+001	11	...........	5.69697E-002	-3.60056E-003	5.56177E-001	6.86840E-001	-3.08975E-002	-3.93650E-002	6.45485E-001	-4.23871E-002	1.77478E-003	-1.12169E-004	1.73267E-002	2.13972E-002	-9.62554E-004	-1.22634E-003	2.01089E-002	-1.32049E-003
	208	208	1.10094E+000	3.08743E-002	0.00000E+000	3.39906E-002	3.08041E-001	3.38781E-002	3.65648E+001	11	...........	5.64272E-002	-3.53931E-003	5.56137E-001	6.86769E-001	-3.08885E-002	-3.93672E-002	6.45337E-001	-4.24989E-002	1.74215E-003	-1.09273E-004	1.71703E-002	2.12035E-002	-9.53659E-004	-1.21543E-003	1.99243E-002	-1.31212E-003
	209	209	1.10080E+000	3.07293E-002	0.00000E+000	3.38269E-002	3.06592E-001	3.37657E-002	3.64828E+001	11	...........	5.62311E-002	-3.50556E-003	5.56239E-001	6.86688E-001	-3.08685E-002	-3.93787E-002	6.45330E-001	-4.25878E-002	1.72794E-003	-1.07723E-004	1.70928E-002	2.11014E-002	-9.48566E-004	-1.21008E-003	1.98305E-002	-1.30869E-003
	210	210	1.10084E+000	3.09218E-002	0.00000E+000	3.40398E-002	3.08512E-001	3.43512E-002	3.72741E+001	11	...........	5.71694E-002	-3.46069E-003	5.56421E-001	6.86576E-001	-3.08142E-002	-3.93940E-002	6.45399E-001	-4.26229E-002	1.76778E-003	-1.07011E-004	1.72055E-002	2.12302E-002	-9.52829E-004	-1.21813E-003	1.99569E-002	-1.31798E-003
	211	211	1.10093E+000	3.05989E-002	0.00000E+000	3.36872E-002	3.05307E-001	3.36044E-002	3.65666E+001	11	...........	5.59454E-002	-3.45236E-003	5.56469E-001	6.86667E-001	-3.08372E-002	-3.93907E-002	6.45322E-001	-4.24701E-002	1.71187E-003	-1.05638E-004	1.70273E-002	2.10112E-002	-9.43584E-004	-1.20531E-003	1.97461E-002	-1.29954E-003
	212	212	1.10081E+000	3.04631E-002	0.00000E+000	3.35341E-002	3.03954E-001	3.39546E-002	3.71926E+001	11	...........	5.65612E-002	-3.52542E-003	5.56431E-001	6.86865E-001	-3.08556E-002	-3.93800E-002	6.45199E-001	-4.25417E-002	1.72303E-003	-1.07395E-004	1.69507E-002	2.09241E-002	-9.39957E-004	-1.19964E-003	1.96548E-002	-1.29595E-003
	213	213	1.10083E+000	3.06747E-002	0.00000E+000	3.37678E-002	3.06053E-001	3.40421E-002	3.76490E+001	11	...........	5.67033E-002	-3.54944E-003	5.56398E-001	6.86790E-001	-3.08367E-002	-3.93486E-002	6.45221E-001	-4.26892E-002	1.73936E-003	-1.08878E-004	1.70674E-002	2.10671E-002	-9.45906E-004	-1.20701E-003	1.97920E-002	-1.30948E-003
	214	214	1.10093E+000	3.04091E-002	0.00000E+000	3.34783E-002	3.03417E-001	3.40728E-002	3.76699E+001	11	...........	5.67467E-002	-3.57347E-003	5.56412E-001	6.86854E-001	-3.07850E-002	-3.93656E-002	6.45225E-001	-4.27531E-002	1.72562E-003	-1.08666E-004	1.69200E-002	2.08866E-002	-9.36145E-004	-1.19707E-003	1.96207E-002	-1.30008E-003
	215	215	1.10081E+000	3.02544E-002	0.00000E+000	3.33043E-002	3.01876E-001	3.38353E-002	3.65070E+001	11	...........	5.63261E-002	-3.60514E-003	5.56423E-001	6.87103E-001	-3.08024E-002	-3.93854E-002	6.45257E-001	-4.27062E-002	1.70411E-003	-1.09071E-004	1.68342E-002	2.07879E-002	-9.31907E-004	-1.19158E-003	1.95219E-002	-1.29205E-003
	216	216	1.10083E+000	3.04474E-002	0.00000E+000	3.35174E-002	3.03796E-001	3.40060E-002	3.65011E+001	11	...........	5.66169E-002	-3.64222E-003	5.56308E-001	6.87137E-001	-3.08178E-002	-3.93711E-002	6.45189E-001	-4.25068E-002	1.72384E-003	-1.10896E-004	1.69381E-002	2.09216E-002	-9.38322E-004	-1.19875E-003	1.96443E-002	-1.29422E-003
	217	217	1.10093E+000	3.01197E-002	0.00000E+000	3.31597E-002	3.00537E-001	3.32059E-002	3.79499E+001	11	...........	5.53021E-002	-3.63181E-003	5.56124E-001	6.87177E-001	-3.07806E-002	-3.93703E-002	6.45081E-001	-4.23535E-002	1.66568E-003	-1.09389E-004	1.67503E-002	2.06976E-002	-9.27102E-004	-1.18582E-003	1.94297E-002	-1.27568E-003
	218	218	1.10082E+000	3.00460E-002	0.00000E+000	3.30751E-002	2.99809E-001	3.47997E-002	3.58243E+001	11	...........	5.79636E-002	-3.73347E-003	5.56177E-001	6.87124E-001	-3.07579E-002	-3.93735E-002	6.45025E-001	-4.23950E-002	1.74157E-003	-1.12176E-004	1.67109E-002	2.06453E-002	-9.24152E-004	-1.18302E-003	1.93804E-002	-1.27380E-003
	219	219	1.10083E+000	3.00921E-002	0.00000E+000	3.31264E-002	3.00266E-001	3.31082E-002	3.64628E+001	11	...........	5.51390E-002	-3.57972E-003	5.56080E-001	6.87160E-001	-3.08024E-002	-3.93386E-002	6.44806E-001	-4.24790E-002	1.65925E-003	-1.07721E-004	1.67336E-002	2.06781E-002	-9.26908E-004	-1.18378E-003	1.94036E-002	-1.27828E-003
	220	220	1.10092E+000	2.99233E-002	0.00000E+000	3.29433E-002	2.98587E-001	3.42585E-002	3.46986E+001	11	...........	5.70243E-002	-3.62931E-003	5.56194E-001	6.87250E-001	-3.08074E-002	-3.93414E-002	6.44798E-001	-4.24871E-002	1.70636E-003	-1.08601E-004	1.66432E-002	2.05648E-002	-9.21859E-004	-1.17723E-003	1.92945E-002	-1.27136E-003
	221	221	1.10082E+000	2.97531E-002	0.00000E+000	3.27526E-002	2.96892E-001	3.38303E-002	3.73948E+001	11	...........	5.63272E-002	-3.79236E-003	5.56048E-001	6.87262E-001	-3.07810E-002	-3.93369E-002	6.44843E-001	-4.27068E-002	1.67591E-003	-1.12834E-004	1.65441E-002	2.04481E-002	-9.15828E-004	-1.17039E-003	1.91860E-002	-1.27066E-003
	222	222	1.10083E+000	2.99185E-002	0.00000E+000	3.29352E-002	2.98533E-001	3.39108E-002	3.72740E+001	11	...........	5.64906E-002	-3.87111E-003	5.56067E-001	6.87177E-001	-3.07850E-002	-3.93557E-002	6.44983E-001	-4.27740E-002	1.69011E-003	-1.15818E-004	1.66367E-002	2.05593E-002	-9.21041E-004	-1.17746E-003	1.92969E-002	-1.27974E-003
	223	223	1.10093E+000	2.97034E-002	0.00000E+000	3.27012E-002	2.96394E-001	3.37680E-002	3.56115E+001	11	...........	5.62217E-002	-3.76236E-003	5.56173E-001	6.87063E-001	-3.08164E-002	-3.93175E-002	6.44979E-001	-4.26064E-002	1.66997E-003	-1.11755E-004	1.65202E-002	2.04081E-002	-9.15350E-004	-1.16786E-003	1.91580E-002	-1.26555E-003
	224	224	1.10082E+000	2.94940E-002	0.00000E+000	3.24676E-002	2.94314E-001	3.37973E-002	3.71886E+001	11	...........	5.62903E-002	-3.56389E-003	5.56245E-001	6.87075E-001	-3.08125E-002	-3.93031E-002	6.45022E-001	-4.25126E-002	1.66023E-003	-1.05113E-004	1.64059E-002	2.02646E-002	-9.08785E-004	-1.15921E-003	1.90243E-002	-1.25387E-003
	225	225	1.10083E+000	2.96288E-002	0.00000E+000	3.26162E-002	2.95651E-001	3.37759E-002	3.62787E+001	11	...........	5.62306E-002	-3.57125E-003	5.56246E-001	6.87132E-001	-3.07953E-002	-3.93269E-002	6.45067E-001	-4.24731E-002	1.66604E-003	-1.05812E-004	1.64809E-002	2.03589E-002	-9.12426E-004	-1.16521E-003	1.91126E-002	-1.25842E-003
	226	226	1.10092E+000	2.94783E-002	0.00000E+000	3.24533E-002	2.94160E-001	3.37221E-002	3.70755E+001	11	...........	5.61633E-002	-3.54250E-003	5.56174E-001	6.87066E-001	-3.08306E-002	-3.93158E-002	6.45060E-001	-4.25282E-002	1.65560E-003	-1.04427E-004	1.63951E-002	2.02535E-002	-9.08832E-004	-1.15896E-003	1.90153E-002	-1.25366E-003
	227	227	1.10082E+000	2.92304E-002	0.00000E+000	3.21775E-002	2.91691E-001	3.40578E-002	3.68171E+001	11	...........	5.67239E-002	-3.59000E-003	5.56117E-001	6.87019E-001	-3.08346E-002	-3.93197E-002	6.45004E-001	-4.25011E-002	1.65806E-003	-1.04937E-004	1.62555E-002	2.00818E-002	-9.01306E-004	-1.14933E-003	1.88537E-002	-1.24232E-003
	228	228	1.10083E+000	2.94010E-002	0.00000E+000	3.23655E-002	2.93392E-001	3.37566E-002	3.57900E+001	11	...........	5.62194E-002	-3.53292E-003	5.55990E-001	6.86949E-001	-3.08457E-002	-3.93332E-002	6.44999E-001	-4.24279E-002	1.65291E-003	-1.03871E-004	1.63467E-002	2.01970E-002	-9.06895E-004	-1.15644E-003	1.89636E-002	-1.24742E-003
	229	229	1.10092E+000	2.92372E-002	0.00000E+000	3.21877E-002	2.91768E-001	3.36171E-002	3.65751E+001	11	...........	5.59796E-002	-3.47014E-003	5.55959E-001	6.87044E-001	-3.08996E-002	-3.93346E-002	6.45127E-001	-4.24906E-002	1.63669E-003	-1.01457E-004	1.62547E-002	2.00872E-002	-9.03417E-004	-1.15003E-003	1.88617E-002	-1.24230E-003
	230	230	1.10083E+000	2.89814E-002	0.00000E+000	3.19034E-002	2.89224E-001	3.37670E-002	3.73895E+001	11	...........	5.62104E-002	-3.64319E-003	5.56151E-001	6.87048E-001	-3.08868E-002	-3.93468E-002	6.45139E-001	-4.25222E-002	1.62906E-003	-1.05585E-004	1.61180E-002	1.99116E-002	-8.95142E-004	-1.14032E-003	1.86970E-002	-1.23235E-003
	231	231	1.10083E+000	2.91950E-002	0.00000E+000	3.21387E-002	2.91349E-001	3.42121E-002	3.61615E+001	11	...........	5.69399E-002	-3.57861E-003	5.56361E-001	6.86924E-001	-3.08600E-002	-3.93864E-002	6.44992E-001	-4.26542E-002	1.66236E-003	-1.04478E-004	1.62430E-002	2.00547E-002	-9.00957E-004	-1.14989E-003	1.88305E-002	-1.24529E-003
	232	231.267	1.10113E+000	2.87523E-002	0.00000E+000	3.16600E-002	2.86946E-001	3.32044E-002	3.86327E+001	11	...........	5.52536E-002	-3.62083E-003	5.56372E-001	6.86818E-001	-3.08792E-002	-3.93880E-002	6.44973E-001	-4.26328E-002	1.58867E-003	-1.04107E-004	1.59970E-002	1.97476E-002	-8.87847E-004	-1.13250E-003	1.85445E-002	-1.22579E-003
STARTTIMEOFFSET	QUANT	391215.4	Start Time Offset (s)
