EXPLAIN
TAG	PWR800_CHARGE
TITLE	LABEL	PWR Charge	Test Identifier
DATE	LABEL	10/14/2022	Date
TIME	LABEL	4:26:46	Time
NOTES	NOTES	1	Notes...
	
PSTAT	PSTAT	REF3000-21114	Potentiostat
CAPACITY	QUANT	5.30000E-002	Capacity (A-hr)
CELLTYPE	SELECTOR	1	Cell Type
WORKINGCONNECTION	SELECTOR	0	Working Connection
MAXCHARGETIME	VARIABLEANDUNITS	7.20000E+003	s	2.00000E+000	hour(s)	Max Charge Time
CHARGEMODE	MULTIPARAM	0	1.00000E-001	Charge Mode	Constant Current	Amp(s)
CHARGECURRENT	QUANT	0.1	Charge Current (A)
VOLTAGEFINISH	TWOPARAM	T	2.50000E-002	7.20000E+003	Voltage Finish	I (A) <	Max Time(s)
SAMPLETIME	QUANT	1.00000E+000	Sample Period (s)
CHARGESTOPAT1	MULTIPARAM	2	1.10000E+000	Stop At 1	|Voltage| > Limit	V
CHARGESTOPAT2	MULTIPARAM	0	0.00000E+000	Stop At 2	None	N/A
AESELECTOR	AESELECTOR	0x1	T	Set Limits	AE Channels
AESBHCSELECTOR	TOGGLE	F	Save Both Half Cells
IRCOMP	TOGGLE	F	IR Measure
EOC	QUANT	0.2233588	Open Circuit (V)
SEQUENCER	TOGGLE	TRUE	Run as Sequence
PSTATMODEL	IQUANT	5	Pstat Model
PSTATSECTION	LABEL	REF3000-21114	Pstat Section
PSTATSERIALNO	LABEL	21114	Pstat Serial Number
CTRLMODE	IQUANT	0	Control Mode
ELECTROMETER	IQUANT	0	RE=0 or CS=1
IESTAB	IQUANT	0	I/E Stability
CASPEED	IQUANT	4	Control Amp Speed
CONVENTION	IQUANT	1	Current Convention
ICHRANGE	IQUANT	2	Ich Range
ICHRANGEMODE	TOGGLE	T	Ich Auto Range
ICHOFFSETENABLE	TOGGLE	F	Ich Offset Enable
ICHOFFSET	QUANT	0	Ich Offset (V)
ICHFILTER	IQUANT	1	Ich Filter
VCHRANGE	IQUANT	3	Vch Range
VCHRANGEMODE	TOGGLE	T	Vch Auto Range
VCHOFFSETENABLE	TOGGLE	F	Vch Offset Enable
VCHOFFSET	QUANT	0	Vch Offset (V)
VCHFILTER	IQUANT	1	Vch Filter
ACHRANGE	IQUANT	2	Ach Range
ACHOFFSETENABLE	TOGGLE	F	Ach Offset Enable
ACHOFFSET	QUANT	0	Ach Offset (V)
ACHFILTER	IQUANT	1	Ach Filter
IERANGELOWERLIMIT	IQUANT	9	I/E Range Lower Limit
IERANGEMODE	TOGGLE	F	I/E AutoRange
IERANGE	IQUANT	9	I/E Range
POSFEEDENABLE	TOGGLE	F	Positive Feedback IR Comp
POSFEEDRESISTANCE	QUANT	0	Positive Feedback Resistance (ohm)
ACHSELECT	IQUANT	1	Ach Select
SENSECABLEID	IQUANT	13	Sense Cable ID
PWRCABLEID	IQUANT	13	Power Cable ID
DCCALDATE	LABEL		DC Calibration Date
ACCALDATE	LABEL		AC Calibration Date
THERMOSELECT	IQUANT	1	Thermo Select
FRAMEWORKVERSION	LABEL	7.8.6	Framework Version
INSTRUMENTVERSION	LABEL	4.50	Instrument Version
COMPLIANCEVOLTAGE	IQUANT	0	Compliance Voltage
CURVE	TABLE	227
	Pt	T	Vf	Im	Vu	Pwr	Sig	Ach	Temp	IERange	Over	Vf1	Vf2	Vf3	Vf4	Vf5	Vf6	Vf7	Vf8	Pwr1	Pwr2	Pwr3	Pwr4	Pwr5	Pwr6	Pwr7	Pwr8
	#	s	V	A	V	W	V	V	deg C	#	bits	V	V	V	V	V	V	V	V	W	W	W	W	W	W	W	W
	0	1	4.95129E-001	9.98565E-002	0.00000E+000	4.94418E-002	9.94000E-001	4.33580E-002	4.23601E+001	11	...........	7.20639E-002	-5.22681E-003	6.07198E-001	5.39703E-001	-2.66962E-002	-3.79135E-002	7.06481E-001	-4.38522E-002	7.19605E-003	-5.21931E-004	6.06326E-002	5.38928E-002	-2.66579E-003	-3.78591E-003	7.05467E-002	-4.37893E-003
	1	2	6.34736E-001	9.98571E-002	0.00000E+000	6.33829E-002	9.94000E-001	4.34092E-002	4.30425E+001	11	...........	7.21160E-002	-5.28194E-003	6.07174E-001	5.39803E-001	-2.66908E-002	-3.78728E-002	7.06479E-001	-4.38138E-002	7.20129E-003	-5.27439E-004	6.06306E-002	5.39032E-002	-2.66527E-003	-3.78186E-003	7.05469E-002	-4.37511E-003
	2	3	8.40578E-001	9.98575E-002	0.00000E+000	8.39381E-002	9.94000E-001	4.40452E-002	4.72156E+001	11	...........	7.31608E-002	-5.31111E-003	6.07550E-001	5.39728E-001	-2.67849E-002	-3.78818E-002	7.06471E-001	-4.38665E-002	7.30566E-003	-5.30354E-004	6.06684E-002	5.38959E-002	-2.67467E-003	-3.78278E-003	7.05464E-002	-4.38040E-003
	3	3.235	1.05934E+000	9.98582E-002	0.00000E+000	1.05784E-001	9.94000E-001	4.45610E-002	5.22314E+001	11	...........	7.39533E-002	-5.34397E-003	6.07782E-001	5.39751E-001	-2.67530E-002	-3.79249E-002	7.06462E-001	-4.37524E-002	7.38485E-003	-5.33639E-004	6.06921E-002	5.38985E-002	-2.67150E-003	-3.78712E-003	7.05460E-002	-4.36903E-003
	4	4	1.10046E+000	7.45230E-002	0.00000E+000	8.20099E-002	7.42075E-001	4.41902E-002	5.23638E+001	11	...........	7.33662E-002	-5.31972E-003	6.07935E-001	5.39741E-001	-2.66805E-002	-3.78883E-002	7.06528E-001	-4.37800E-002	5.46747E-003	-3.96441E-004	4.53052E-002	4.02231E-002	-1.98831E-003	-2.82355E-003	5.26526E-002	-3.26261E-003
	5	5	1.10017E+000	6.04869E-002	0.00000E+000	6.65460E-002	6.02488E-001	4.39668E-002	4.82944E+001	11	...........	7.30296E-002	-5.28431E-003	6.07826E-001	5.39812E-001	-2.67010E-002	-3.79165E-002	7.06474E-001	-4.37268E-002	4.41733E-003	-3.19631E-004	3.67655E-002	3.26515E-002	-1.61506E-003	-2.29345E-003	4.27324E-002	-2.64490E-003
	6	6	1.10001E+000	5.51211E-002	0.00000E+000	6.06337E-002	5.49133E-001	4.37297E-002	4.95420E+001	11	...........	7.26518E-002	-5.24736E-003	6.07932E-001	5.39869E-001	-2.67051E-002	-3.79193E-002	7.06498E-001	-4.36304E-002	4.00465E-003	-2.89240E-004	3.35099E-002	2.97582E-002	-1.47202E-003	-2.09015E-003	3.89429E-002	-2.40496E-003
	7	7	1.09998E+000	5.30992E-002	0.00000E+000	5.84082E-002	5.29029E-001	4.41645E-002	5.09374E+001	11	...........	7.33436E-002	-5.26597E-003	6.08209E-001	5.39848E-001	-2.66546E-002	-3.78750E-002	7.06487E-001	-4.37308E-002	3.89448E-003	-2.79619E-004	3.22954E-002	2.86655E-002	-1.41534E-003	-2.01113E-003	3.75139E-002	-2.32207E-003
	8	8	1.10009E+000	5.14979E-002	0.00000E+000	5.66526E-002	5.13103E-001	4.39488E-002	5.06625E+001	11	...........	7.30028E-002	-5.26125E-003	6.08290E-001	5.40047E-001	-2.66646E-002	-3.78307E-002	7.06491E-001	-4.37626E-002	3.75949E-003	-2.70944E-004	3.13257E-002	2.78113E-002	-1.37317E-003	-1.94820E-003	3.63828E-002	-2.25369E-003
	9	9	1.09999E+000	5.01577E-002	0.00000E+000	5.51729E-002	4.99777E-001	4.38832E-002	5.05254E+001	11	...........	7.28960E-002	-5.27528E-003	6.08355E-001	5.40050E-001	-2.66689E-002	-3.78604E-002	7.06543E-001	-4.37701E-002	3.65629E-003	-2.64596E-004	3.05137E-002	2.70876E-002	-1.33765E-003	-1.89899E-003	3.54385E-002	-2.19541E-003
	10	10	1.09997E+000	4.98819E-002	0.00000E+000	5.48686E-002	4.97036E-001	4.39636E-002	4.96013E+001	11	...........	7.29892E-002	-5.25972E-003	6.08372E-001	5.40094E-001	-2.66365E-002	-3.78767E-002	7.06514E-001	-4.37912E-002	3.64084E-003	-2.62365E-004	3.03468E-002	2.69409E-002	-1.32868E-003	-1.88936E-003	3.52423E-002	-2.18439E-003
	11	11	1.10008E+000	4.93267E-002	0.00000E+000	5.42631E-002	4.91516E-001	4.39322E-002	4.79280E+001	11	...........	7.29665E-002	-5.26542E-003	6.08376E-001	5.40169E-001	-2.66797E-002	-3.78999E-002	7.06512E-001	-4.37672E-002	3.59920E-003	-2.59726E-004	3.00092E-002	2.66448E-002	-1.31602E-003	-1.86947E-003	3.48499E-002	-2.15889E-003
	12	12	1.09999E+000	4.86144E-002	0.00000E+000	5.34753E-002	4.84439E-001	4.37406E-002	4.91460E+001	11	...........	7.26640E-002	-5.28347E-003	6.08354E-001	5.40217E-001	-2.66899E-002	-3.78800E-002	7.06480E-001	-4.37474E-002	3.53251E-003	-2.56853E-004	2.95748E-002	2.62623E-002	-1.29751E-003	-1.84151E-003	3.43450E-002	-2.12675E-003
	13	13	1.09997E+000	4.87168E-002	0.00000E+000	5.35868E-002	4.85454E-001	4.39296E-002	4.97911E+001	11	...........	7.29814E-002	-5.32764E-003	6.08369E-001	5.40189E-001	-2.66146E-002	-3.78583E-002	7.06600E-001	-4.37396E-002	3.55542E-003	-2.59546E-004	2.96378E-002	2.63163E-002	-1.29658E-003	-1.84434E-003	3.44233E-002	-2.13085E-003
	14	14	1.10007E+000	4.83561E-002	0.00000E+000	5.31953E-002	4.81873E-001	4.38317E-002	4.64872E+001	11	...........	7.28203E-002	-5.33347E-003	6.08256E-001	5.40187E-001	-2.65943E-002	-3.78392E-002	7.06383E-001	-4.38342E-002	3.52131E-003	-2.57906E-004	2.94129E-002	2.61214E-002	-1.28600E-003	-1.82976E-003	3.41580E-002	-2.11965E-003
	15	15	1.09999E+000	4.77925E-002	0.00000E+000	5.25713E-002	4.76265E-001	4.36816E-002	4.91773E+001	11	...........	7.25531E-002	-5.29403E-003	6.08189E-001	5.40281E-001	-2.66301E-002	-3.78529E-002	7.06306E-001	-4.37743E-002	3.46749E-003	-2.53015E-004	2.90669E-002	2.58214E-002	-1.27272E-003	-1.80909E-003	3.37561E-002	-2.09208E-003
	16	16	1.09996E+000	4.79518E-002	0.00000E+000	5.27452E-002	4.77852E-001	4.38379E-002	4.99653E+001	11	...........	7.28179E-002	-5.25917E-003	6.08175E-001	5.40443E-001	-2.66086E-002	-3.78758E-002	7.06402E-001	-4.37683E-002	3.49175E-003	-2.52187E-004	2.91631E-002	2.59152E-002	-1.27593E-003	-1.81621E-003	3.38733E-002	-2.09877E-003
	17	17	1.10007E+000	4.77434E-002	0.00000E+000	5.25210E-002	4.75782E-001	4.37809E-002	4.95886E+001	11	...........	7.27332E-002	-5.21111E-003	6.07986E-001	5.40456E-001	-2.66201E-002	-3.78776E-002	7.06430E-001	-4.38307E-002	3.47253E-003	-2.48796E-004	2.90273E-002	2.58032E-002	-1.27094E-003	-1.80841E-003	3.37274E-002	-2.09263E-003
	18	18	1.10000E+000	4.72260E-002	0.00000E+000	5.19484E-002	4.70637E-001	4.36634E-002	4.86696E+001	11	...........	7.25350E-002	-5.22361E-003	6.08028E-001	5.40402E-001	-2.66933E-002	-3.78981E-002	7.06468E-001	-4.39181E-002	3.42554E-003	-2.46690E-004	2.87147E-002	2.55210E-002	-1.26062E-003	-1.78977E-003	3.33637E-002	-2.07407E-003
	19	19	1.09997E+000	4.73774E-002	0.00000E+000	5.21135E-002	4.72146E-001	4.35992E-002	4.75455E+001	11	...........	7.24211E-002	-5.25292E-003	6.07998E-001	5.40308E-001	-2.67040E-002	-3.78607E-002	7.06440E-001	-4.39546E-002	3.43113E-003	-2.48870E-004	2.88054E-002	2.55984E-002	-1.26517E-003	-1.79374E-003	3.34693E-002	-2.08245E-003
	20	20	1.10006E+000	4.72507E-002	0.00000E+000	5.19787E-002	4.70886E-001	4.35238E-002	4.92822E+001	11	...........	7.24989E-002	-5.22486E-003	6.07951E-001	5.40515E-001	-2.66649E-002	-3.78137E-002	7.06545E-001	-4.38279E-002	3.42563E-003	-2.46879E-004	2.87261E-002	2.55397E-002	-1.25993E-003	-1.78673E-003	3.33848E-002	-2.07090E-003
	21	21	1.10000E+000	4.67603E-002	0.00000E+000	5.14364E-002	4.66007E-001	4.33631E-002	4.97978E+001	11	...........	7.23675E-002	-5.21514E-003	6.07849E-001	5.40583E-001	-2.66939E-002	-3.77842E-002	7.06645E-001	-4.36831E-002	3.38393E-003	-2.43861E-004	2.84232E-002	2.52778E-002	-1.24821E-003	-1.76680E-003	3.30429E-002	-2.04263E-003
	22	22	1.09996E+000	4.69624E-002	0.00000E+000	5.16566E-002	4.68019E-001	4.34103E-002	4.97141E+001	11	...........	7.24579E-002	-5.28986E-003	6.07672E-001	5.40510E-001	-2.67636E-002	-3.77803E-002	7.06629E-001	-4.37031E-002	3.40280E-003	-2.48424E-004	2.85377E-002	2.53836E-002	-1.25688E-003	-1.77425E-003	3.31850E-002	-2.05240E-003
	23	23	1.10006E+000	4.67936E-002	0.00000E+000	5.14759E-002	4.66345E-001	4.34465E-002	4.73772E+001	11	...........	7.24979E-002	-5.31444E-003	6.07818E-001	5.40518E-001	-2.67587E-002	-3.78101E-002	7.06598E-001	-4.38107E-002	3.39244E-003	-2.48682E-004	2.84420E-002	2.52928E-002	-1.25214E-003	-1.76927E-003	3.30643E-002	-2.05006E-003
	24	24	1.10001E+000	4.62587E-002	0.00000E+000	5.08848E-002	4.61027E-001	4.30554E-002	4.84687E+001	11	...........	7.18754E-002	-5.25500E-003	6.07806E-001	5.40464E-001	-2.66517E-002	-3.78607E-002	7.06606E-001	-4.38949E-002	3.32486E-003	-2.43089E-004	2.81163E-002	2.50012E-002	-1.23287E-003	-1.75139E-003	3.26867E-002	-2.03052E-003
	25	25	1.09996E+000	4.64997E-002	0.00000E+000	5.11478E-002	4.63413E-001	4.34236E-002	4.88685E+001	11	...........	7.24692E-002	-5.30667E-003	6.07972E-001	5.40448E-001	-2.67050E-002	-3.78497E-002	7.06571E-001	-4.38815E-002	3.36979E-003	-2.46758E-004	2.82705E-002	2.51307E-002	-1.24177E-003	-1.76000E-003	3.28554E-002	-2.04048E-003
	26	26	1.10006E+000	4.63815E-002	0.00000E+000	5.10223E-002	4.62242E-001	4.33299E-002	4.94348E+001	11	...........	7.23054E-002	-5.28528E-003	6.07959E-001	5.40441E-001	-2.67401E-002	-3.78333E-002	7.06581E-001	-4.38325E-002	3.35363E-003	-2.45139E-004	2.81981E-002	2.50665E-002	-1.24025E-003	-1.75477E-003	3.27723E-002	-2.03302E-003
	27	27	1.10001E+000	4.58161E-002	0.00000E+000	5.03982E-002	4.56620E-001	4.30852E-002	4.78768E+001	11	...........	7.19043E-002	-5.29792E-003	6.07829E-001	5.40413E-001	-2.66901E-002	-3.77985E-002	7.06717E-001	-4.38264E-002	3.29438E-003	-2.42730E-004	2.78484E-002	2.47596E-002	-1.22284E-003	-1.73178E-003	3.23791E-002	-2.00796E-003
	28	28	1.09996E+000	4.61477E-002	0.00000E+000	5.07605E-002	4.59920E-001	4.33467E-002	4.94021E+001	11	...........	7.23544E-002	-5.29125E-003	6.07654E-001	5.40479E-001	-2.67339E-002	-3.77894E-002	7.06739E-001	-4.37879E-002	3.33899E-003	-2.44179E-004	2.80418E-002	2.49418E-002	-1.23371E-003	-1.74390E-003	3.26144E-002	-2.02071E-003
	29	29	1.10005E+000	4.60109E-002	0.00000E+000	5.06144E-002	4.58557E-001	4.32040E-002	4.96488E+001	11	...........	7.21003E-002	-5.28403E-003	6.07545E-001	5.40703E-001	-2.67768E-002	-3.78139E-002	7.06677E-001	-4.37290E-002	3.31740E-003	-2.43123E-004	2.79537E-002	2.48783E-002	-1.23203E-003	-1.73985E-003	3.25149E-002	-2.01201E-003
	30	30	1.10002E+000	4.55066E-002	0.00000E+000	5.00580E-002	4.53541E-001	4.31799E-002	4.83021E+001	11	...........	7.20581E-002	-5.25056E-003	6.07439E-001	5.40815E-001	-2.67224E-002	-3.78417E-002	7.06505E-001	-4.37786E-002	3.27912E-003	-2.38935E-004	2.76425E-002	2.46107E-002	-1.21604E-003	-1.72205E-003	3.21507E-002	-1.99222E-003
	31	31	1.09995E+000	4.57298E-002	0.00000E+000	5.03007E-002	4.55762E-001	4.30544E-002	4.92727E+001	11	...........	7.18839E-002	-5.19417E-003	6.07359E-001	5.40777E-001	-2.67572E-002	-3.78346E-002	7.06486E-001	-4.37953E-002	3.28724E-003	-2.37528E-004	2.77744E-002	2.47296E-002	-1.22360E-003	-1.73017E-003	3.23074E-002	-2.00275E-003
	32	32	1.10005E+000	4.56213E-002	0.00000E+000	5.01857E-002	4.54683E-001	4.32197E-002	4.93688E+001	11	...........	7.21397E-002	-5.13125E-003	6.07291E-001	5.40833E-001	-2.67356E-002	-3.77989E-002	7.06505E-001	-4.37740E-002	3.29111E-003	-2.34094E-004	2.77054E-002	2.46735E-002	-1.21971E-003	-1.72443E-003	3.22317E-002	-1.99703E-003
	33	33	1.10002E+000	4.50615E-002	0.00000E+000	4.95687E-002	4.49118E-001	4.29692E-002	4.71641E+001	11	...........	7.17343E-002	-5.17861E-003	6.07141E-001	5.40730E-001	-2.67268E-002	-3.77875E-002	7.06539E-001	-4.37699E-002	3.23245E-003	-2.33356E-004	2.73587E-002	2.43661E-002	-1.20435E-003	-1.70276E-003	3.18377E-002	-1.97233E-003
	34	34	1.09995E+000	4.53847E-002	0.00000E+000	4.99210E-002	4.52332E-001	4.30626E-002	4.81905E+001	11	...........	7.18801E-002	-5.21944E-003	6.07115E-001	5.40726E-001	-2.67487E-002	-3.77885E-002	7.06452E-001	-4.37726E-002	3.26226E-003	-2.36883E-004	2.75538E-002	2.45407E-002	-1.21399E-003	-1.71502E-003	3.20622E-002	-1.98661E-003
	35	35	1.10005E+000	4.52265E-002	0.00000E+000	4.97512E-002	4.50763E-001	4.29047E-002	4.85580E+001	11	...........	7.16328E-002	-5.20403E-003	6.07070E-001	5.40802E-001	-2.67274E-002	-3.78187E-002	7.06477E-001	-4.37235E-002	3.23970E-003	-2.35360E-004	2.74557E-002	2.44586E-002	-1.20878E-003	-1.71041E-003	3.19515E-002	-1.97746E-003
	36	36	1.10003E+000	4.48109E-002	0.00000E+000	4.92932E-002	4.46633E-001	4.30673E-002	4.95371E+001	11	...........	7.19140E-002	-5.23736E-003	6.06885E-001	5.40812E-001	-2.67443E-002	-3.77890E-002	7.06552E-001	-4.35318E-002	3.22253E-003	-2.34691E-004	2.71951E-002	2.42343E-002	-1.19844E-003	-1.69336E-003	3.16613E-002	-1.95070E-003
	37	37	1.09995E+000	4.49805E-002	0.00000E+000	4.94764E-002	4.48313E-001	4.29396E-002	4.96438E+001	11	...........	7.17093E-002	-5.25375E-003	6.07006E-001	5.40760E-001	-2.67075E-002	-3.77553E-002	7.06672E-001	-4.36378E-002	3.22552E-003	-2.36316E-004	2.73034E-002	2.43237E-002	-1.20132E-003	-1.69825E-003	3.17865E-002	-1.96285E-003
	38	38	1.10005E+000	4.48895E-002	0.00000E+000	4.93805E-002	4.47410E-001	4.29782E-002	4.64953E+001	11	...........	7.17450E-002	-5.23250E-003	6.07286E-001	5.40681E-001	-2.67689E-002	-3.77876E-002	7.06601E-001	-4.39032E-002	3.22059E-003	-2.34884E-004	2.72607E-002	2.42709E-002	-1.20164E-003	-1.69627E-003	3.17189E-002	-1.97079E-003
	39	39	1.10003E+000	4.43656E-002	0.00000E+000	4.88035E-002	4.42199E-001	4.26908E-002	4.85936E+001	11	...........	7.12555E-002	-5.20556E-003	6.07320E-001	5.40624E-001	-2.67257E-002	-3.78346E-002	7.06434E-001	-4.38858E-002	3.16130E-003	-2.30948E-004	2.69441E-002	2.39851E-002	-1.18570E-003	-1.67855E-003	3.13414E-002	-1.94702E-003
	40	40	1.09995E+000	4.46290E-002	0.00000E+000	4.90897E-002	4.44818E-001	4.28641E-002	4.94051E+001	11	...........	7.15797E-002	-5.26778E-003	6.07417E-001	5.40541E-001	-2.67165E-002	-3.78697E-002	7.06453E-001	-4.38946E-002	3.19453E-003	-2.35096E-004	2.71084E-002	2.41238E-002	-1.19233E-003	-1.69009E-003	3.15283E-002	-1.95897E-003
	41	41	1.10004E+000	4.45755E-002	0.00000E+000	4.90347E-002	4.44288E-001	4.28539E-002	4.78815E+001	11	...........	7.15558E-002	-5.26514E-003	6.07471E-001	5.40681E-001	-2.67171E-002	-3.78440E-002	7.06684E-001	-4.38943E-002	3.18964E-003	-2.34696E-004	2.70783E-002	2.41011E-002	-1.19093E-003	-1.68692E-003	3.15008E-002	-1.95661E-003
	42	42	1.10004E+000	4.40286E-002	0.00000E+000	4.84331E-002	4.38847E-001	4.25565E-002	4.84251E+001	11	...........	7.10514E-002	-5.23722E-003	6.07357E-001	5.40723E-001	-2.66824E-002	-3.78090E-002	7.06585E-001	-4.37746E-002	3.12830E-003	-2.30588E-004	2.67411E-002	2.38073E-002	-1.17479E-003	-1.66468E-003	3.11100E-002	-1.92734E-003
	43	43	1.09995E+000	4.42680E-002	0.00000E+000	4.86925E-002	4.41226E-001	4.30728E-002	4.93548E+001	11	...........	7.19008E-002	-5.21222E-003	6.07329E-001	5.40596E-001	-2.67714E-002	-3.78086E-002	7.06572E-001	-4.37644E-002	3.18291E-003	-2.30735E-004	2.68853E-002	2.39311E-002	-1.18512E-003	-1.67371E-003	3.12785E-002	-1.93737E-003
	44	44	1.10003E+000	4.41758E-002	0.00000E+000	4.85949E-002	4.40310E-001	4.26331E-002	4.79149E+001	11	...........	7.11790E-002	-5.19292E-003	6.07181E-001	5.40673E-001	-2.67400E-002	-3.78287E-002	7.06693E-001	-4.37756E-002	3.14439E-003	-2.29401E-004	2.68227E-002	2.38847E-002	-1.18126E-003	-1.67112E-003	3.12188E-002	-1.93382E-003
	45	45	1.10004E+000	4.37442E-002	0.00000E+000	4.81205E-002	4.36014E-001	4.27114E-002	4.81692E+001	11	...........	7.13231E-002	-5.21972E-003	6.06838E-001	5.40789E-001	-2.67253E-002	-3.78418E-002	7.06564E-001	-4.38192E-002	3.11997E-003	-2.28332E-004	2.65456E-002	2.36564E-002	-1.16908E-003	-1.65536E-003	3.09081E-002	-1.91683E-003
	46	46	1.09995E+000	4.38964E-002	0.00000E+000	4.82836E-002	4.37528E-001	4.27085E-002	4.89180E+001	11	...........	7.13128E-002	-5.24833E-003	6.06809E-001	5.40745E-001	-2.67561E-002	-3.78187E-002	7.06441E-001	-4.38069E-002	3.13037E-003	-2.30383E-004	2.66367E-002	2.37367E-002	-1.17450E-003	-1.66011E-003	3.10102E-002	-1.92297E-003
	47	47	1.10003E+000	4.38622E-002	0.00000E+000	4.82497E-002	4.37193E-001	4.26234E-002	4.81460E+001	11	...........	7.11646E-002	-5.25389E-003	6.06768E-001	5.40544E-001	-2.67200E-002	-3.77768E-002	7.06446E-001	-4.38758E-002	3.12143E-003	-2.30447E-004	2.66142E-002	2.37094E-002	-1.17200E-003	-1.65697E-003	3.09863E-002	-1.92449E-003
	48	48	1.10005E+000	4.34105E-002	0.00000E+000	4.77537E-002	4.32695E-001	4.27086E-002	4.90547E+001	11	...........	7.13061E-002	-5.26111E-003	6.06792E-001	5.40626E-001	-2.67596E-002	-3.77817E-002	7.06419E-001	-4.38207E-002	3.09544E-003	-2.28388E-004	2.63412E-002	2.34689E-002	-1.16165E-003	-1.64012E-003	3.06660E-002	-1.90228E-003
	49	49	1.09995E+000	4.35681E-002	0.00000E+000	4.79226E-002	4.34264E-001	4.26648E-002	4.93349E+001	11	...........	7.12233E-002	-5.24639E-003	6.06962E-001	5.40547E-001	-2.67515E-002	-3.77982E-002	7.06440E-001	-4.37865E-002	3.10307E-003	-2.28575E-004	2.64442E-002	2.35506E-002	-1.16551E-003	-1.64680E-003	3.07783E-002	-1.90770E-003
	50	50	1.10003E+000	4.35540E-002	0.00000E+000	4.79105E-002	4.34118E-001	4.26671E-002	4.93627E+001	11	...........	7.12293E-002	-5.25306E-003	6.06884E-001	5.40483E-001	-2.67225E-002	-3.78250E-002	7.06414E-001	-4.37592E-002	3.10232E-003	-2.28792E-004	2.64322E-002	2.35402E-002	-1.16387E-003	-1.64743E-003	3.07672E-002	-1.90589E-003
	51	51	1.10005E+000	4.30601E-002	0.00000E+000	4.73684E-002	4.29212E-001	4.25933E-002	4.79939E+001	11	...........	7.11143E-002	-5.25097E-003	6.06871E-001	5.40390E-001	-2.67503E-002	-3.77976E-002	7.06329E-001	-4.39060E-002	3.06219E-003	-2.26107E-004	2.61319E-002	2.32692E-002	-1.15187E-003	-1.62757E-003	3.04146E-002	-1.89059E-003
	52	52	1.09994E+000	4.32385E-002	0.00000E+000	4.75599E-002	4.30986E-001	4.25041E-002	4.90928E+001	11	...........	7.09743E-002	-5.24750E-003	6.06850E-001	5.40370E-001	-2.67314E-002	-3.77631E-002	7.06249E-001	-4.39750E-002	3.06882E-003	-2.26894E-004	2.62393E-002	2.33648E-002	-1.15583E-003	-1.63282E-003	3.05372E-002	-1.90141E-003
	53	53	1.10003E+000	4.31860E-002	0.00000E+000	4.75057E-002	4.30462E-001	4.25445E-002	4.69141E+001	11	...........	7.10206E-002	-5.21681E-003	6.07070E-001	5.40251E-001	-2.68024E-002	-3.77522E-002	7.06263E-001	-4.38774E-002	3.06710E-003	-2.25293E-004	2.62169E-002	2.33313E-002	-1.15749E-003	-1.63037E-003	3.05007E-002	-1.89489E-003
	54	54	1.10005E+000	4.27348E-002	0.00000E+000	4.70106E-002	4.25978E-001	4.23050E-002	4.74136E+001	11	...........	7.06258E-002	-5.20069E-003	6.07242E-001	5.40351E-001	-2.68033E-002	-3.77715E-002	7.06325E-001	-4.37347E-002	3.01818E-003	-2.22251E-004	2.59504E-002	2.30918E-002	-1.14544E-003	-1.61416E-003	3.01847E-002	-1.86899E-003
	55	55	1.09994E+000	4.29367E-002	0.00000E+000	4.72279E-002	4.27982E-001	4.24875E-002	4.91539E+001	11	...........	7.09460E-002	-5.14542E-003	6.07379E-001	5.40451E-001	-2.67229E-002	-3.78022E-002	7.06298E-001	-4.38076E-002	3.04619E-003	-2.20927E-004	2.60789E-002	2.32052E-002	-1.14739E-003	-1.62310E-003	3.03261E-002	-1.88096E-003
	56	56	1.10002E+000	4.29522E-002	0.00000E+000	4.72483E-002	4.28139E-001	4.24656E-002	4.92991E+001	11	...........	7.08957E-002	-5.19292E-003	6.07376E-001	5.40571E-001	-2.67410E-002	-3.78050E-002	7.06212E-001	-4.38332E-002	3.04513E-003	-2.23047E-004	2.60882E-002	2.32187E-002	-1.14858E-003	-1.62381E-003	3.03334E-002	-1.88273E-003
	57	57	1.10006E+000	4.24202E-002	0.00000E+000	4.66650E-002	4.22850E-001	4.24064E-002	4.93520E+001	11	...........	7.07986E-002	-5.22597E-003	6.07255E-001	5.40635E-001	-2.67579E-002	-3.78036E-002	7.06343E-001	-4.38133E-002	3.00329E-003	-2.21687E-004	2.57599E-002	2.29339E-002	-1.13508E-003	-1.60364E-003	2.99632E-002	-1.85857E-003
	58	58	1.09994E+000	4.25890E-002	0.00000E+000	4.68454E-002	4.24528E-001	4.23503E-002	4.88677E+001	11	...........	7.07190E-002	-5.29139E-003	6.07251E-001	5.40759E-001	-2.67381E-002	-3.77724E-002	7.06390E-001	-4.38267E-002	3.01185E-003	-2.25355E-004	2.58622E-002	2.30304E-002	-1.13875E-003	-1.60869E-003	3.00845E-002	-1.86653E-003
	59	59	1.10001E+000	4.24999E-002	0.00000E+000	4.67505E-002	4.23644E-001	4.21451E-002	4.59955E+001	11	...........	7.03379E-002	-5.22958E-003	6.07019E-001	5.40619E-001	-2.68097E-002	-3.77729E-002	7.06399E-001	-4.37761E-002	2.98936E-003	-2.22257E-004	2.57983E-002	2.29763E-002	-1.13941E-003	-1.60535E-003	3.00219E-002	-1.86048E-003
	60	60	1.10007E+000	4.21331E-002	0.00000E+000	4.63493E-002	4.19991E-001	4.24176E-002	4.82253E+001	11	...........	7.08081E-002	-5.16556E-003	6.06987E-001	5.40651E-001	-2.67868E-002	-3.78025E-002	7.06478E-001	-4.38550E-002	2.98336E-003	-2.17641E-004	2.55743E-002	2.27793E-002	-1.12861E-003	-1.59274E-003	2.97661E-002	-1.84775E-003
	61	61	1.09994E+000	4.22368E-002	0.00000E+000	4.64580E-002	4.21025E-001	4.23176E-002	4.91287E+001	11	...........	7.06554E-002	-5.17111E-003	6.07024E-001	5.40664E-001	-2.67110E-002	-3.78483E-002	7.06491E-001	-4.37646E-002	2.98426E-003	-2.18411E-004	2.56387E-002	2.28359E-002	-1.12819E-003	-1.59859E-003	2.98399E-002	-1.84848E-003
	62	62	1.10001E+000	4.22777E-002	0.00000E+000	4.65060E-002	4.21430E-001	4.21023E-002	4.81113E+001	11	...........	7.05394E-002	-5.18056E-003	6.07113E-001	5.40485E-001	-2.67410E-002	-3.78272E-002	7.06555E-001	-4.37768E-002	2.98224E-003	-2.19022E-004	2.56673E-002	2.28505E-002	-1.13055E-003	-1.59925E-003	2.98715E-002	-1.85078E-003
	63	63	1.10007E+000	4.18404E-002	0.00000E+000	4.60274E-002	4.17086E-001	4.22517E-002	4.86791E+001	11	...........	7.05278E-002	-5.19056E-003	6.06992E-001	5.40566E-001	-2.66933E-002	-3.78008E-002	7.06496E-001	-4.39890E-002	2.95091E-003	-2.17175E-004	2.53968E-002	2.26175E-002	-1.11686E-003	-1.58160E-003	2.95601E-002	-1.84052E-003
	64	64	1.09994E+000	4.19355E-002	0.00000E+000	4.61265E-002	4.18028E-001	4.22123E-002	4.89988E+001	11	...........	7.04639E-002	-5.19597E-003	6.06792E-001	5.40563E-001	-2.67297E-002	-3.78029E-002	7.06419E-001	-4.38507E-002	2.95494E-003	-2.17896E-004	2.54461E-002	2.26688E-002	-1.12092E-003	-1.58528E-003	2.96240E-002	-1.83890E-003
	65	65	1.10001E+000	4.19900E-002	0.00000E+000	4.61893E-002	4.18569E-001	4.22367E-002	4.91062E+001	11	...........	7.05260E-002	-5.22806E-003	6.06843E-001	5.40465E-001	-2.67306E-002	-3.78399E-002	7.06473E-001	-4.39061E-002	2.96138E-003	-2.19526E-004	2.54813E-002	2.26941E-002	-1.12242E-003	-1.58889E-003	2.96648E-002	-1.84362E-003
	66	66	1.10007E+000	4.15070E-002	0.00000E+000	4.56608E-002	4.13768E-001	4.22233E-002	4.91629E+001	11	...........	7.05033E-002	-5.24667E-003	6.06886E-001	5.40389E-001	-2.66668E-002	-3.78633E-002	7.06448E-001	-4.39404E-002	2.92638E-003	-2.17773E-004	2.51900E-002	2.24299E-002	-1.10686E-003	-1.57159E-003	2.93225E-002	-1.82383E-003
	67	67	1.09994E+000	4.15127E-002	0.00000E+000	4.56615E-002	4.13821E-001	4.19669E-002	4.54160E+001	11	...........	7.01265E-002	-5.26486E-003	6.06784E-001	5.40431E-001	-2.67137E-002	-3.78690E-002	7.06409E-001	-4.39922E-002	2.91114E-003	-2.18559E-004	2.51892E-002	2.24348E-002	-1.10896E-003	-1.57205E-003	2.93249E-002	-1.82624E-003
	68	68	1.10000E+000	4.17479E-002	0.00000E+000	4.59229E-002	4.16162E-001	4.22265E-002	4.85266E+001	11	...........	7.04958E-002	-5.24694E-003	6.06842E-001	5.40709E-001	-2.67244E-002	-3.78511E-002	7.06593E-001	-4.39579E-002	2.94305E-003	-2.19049E-004	2.53344E-002	2.25735E-002	-1.11569E-003	-1.58020E-003	2.94988E-002	-1.83515E-003
	69	69	1.10008E+000	4.12183E-002	0.00000E+000	4.53435E-002	4.10898E-001	4.20843E-002	4.94940E+001	11	...........	7.02512E-002	-5.31833E-003	6.06822E-001	5.40662E-001	-2.66967E-002	-3.78456E-002	7.06594E-001	-4.38160E-002	2.89564E-003	-2.19213E-004	2.50122E-002	2.22852E-002	-1.10039E-003	-1.55993E-003	2.91246E-002	-1.80602E-003
	70	70	1.09994E+000	4.12872E-002	0.00000E+000	4.54134E-002	4.11582E-001	4.20647E-002	4.82937E+001	11	...........	7.02290E-002	-5.31389E-003	6.06818E-001	5.40602E-001	-2.66808E-002	-3.77853E-002	7.06484E-001	-4.38332E-002	2.89956E-003	-2.19396E-004	2.50539E-002	2.23200E-002	-1.10158E-003	-1.56005E-003	2.91688E-002	-1.80975E-003
	71	71	1.10001E+000	4.13910E-002	0.00000E+000	4.55304E-002	4.12612E-001	4.20741E-002	4.83000E+001	11	...........	7.02451E-002	-5.27681E-003	6.06780E-001	5.40580E-001	-2.67212E-002	-3.77790E-002	7.06401E-001	-4.38619E-002	2.90752E-003	-2.18412E-004	2.51152E-002	2.23752E-002	-1.10602E-003	-1.56371E-003	2.92387E-002	-1.81549E-003
	72	72	1.10008E+000	4.09107E-002	0.00000E+000	4.50051E-002	4.07840E-001	4.18204E-002	4.85333E+001	11	...........	6.98571E-002	-5.25500E-003	6.06675E-001	5.40632E-001	-2.67528E-002	-3.77822E-002	7.06342E-001	-4.38865E-002	2.85790E-003	-2.14986E-004	2.48195E-002	2.21176E-002	-1.09448E-003	-1.54570E-003	2.88969E-002	-1.79543E-003
	73	73	1.09994E+000	4.10420E-002	0.00000E+000	4.51437E-002	4.09142E-001	4.21620E-002	4.93614E+001	11	...........	7.03944E-002	-5.28986E-003	6.06849E-001	5.40585E-001	-2.67362E-002	-3.78053E-002	7.06428E-001	-4.38578E-002	2.88913E-003	-2.17107E-004	2.49063E-002	2.21867E-002	-1.09731E-003	-1.55161E-003	2.89933E-002	-1.80001E-003
	74	74	1.10000E+000	4.10928E-002	0.00000E+000	4.52021E-002	4.09650E-001	4.19671E-002	4.94966E+001	11	...........	7.00624E-002	-5.26500E-003	6.06990E-001	5.40635E-001	-2.66637E-002	-3.78344E-002	7.06454E-001	-4.38635E-002	2.87906E-003	-2.16354E-004	2.49429E-002	2.22162E-002	-1.09569E-003	-1.55472E-003	2.90302E-002	-1.80247E-003
	75	75	1.10008E+000	4.06521E-002	0.00000E+000	4.47206E-002	4.05269E-001	4.19562E-002	4.78550E+001	11	...........	7.00604E-002	-5.16611E-003	6.07205E-001	5.40846E-001	-2.66794E-002	-3.78321E-002	7.06484E-001	-4.38532E-002	2.84810E-003	-2.10013E-004	2.46842E-002	2.19865E-002	-1.08457E-003	-1.53795E-003	2.87200E-002	-1.78272E-003
	76	76	1.09994E+000	4.07039E-002	0.00000E+000	4.47718E-002	4.05783E-001	4.17147E-002	4.85072E+001	11	...........	6.96301E-002	-5.18903E-003	6.07264E-001	5.40709E-001	-2.67186E-002	-3.78182E-002	7.06390E-001	-4.38239E-002	2.83422E-003	-2.11214E-004	2.47180E-002	2.20090E-002	-1.08755E-003	-1.53935E-003	2.87529E-002	-1.78381E-003
	77	77	1.10000E+000	4.07882E-002	0.00000E+000	4.48671E-002	4.06619E-001	4.21510E-002	4.90566E+001	11	...........	7.03546E-002	-5.19111E-003	6.07213E-001	5.40636E-001	-2.67271E-002	-3.78072E-002	7.06484E-001	-4.38346E-002	2.86964E-003	-2.11736E-004	2.47671E-002	2.20516E-002	-1.09015E-003	-1.54209E-003	2.88162E-002	-1.78793E-003
	78	78	1.10008E+000	4.02751E-002	0.00000E+000	4.43060E-002	4.01523E-001	4.17269E-002	4.65799E+001	11	...........	6.96493E-002	-5.26889E-003	6.07263E-001	5.40877E-001	-2.67006E-002	-3.77539E-002	7.06462E-001	-4.38736E-002	2.80513E-003	-2.12205E-004	2.44576E-002	2.17839E-002	-1.07537E-003	-1.52054E-003	2.84528E-002	-1.76701E-003
	79	79	1.09994E+000	4.03577E-002	0.00000E+000	4.43910E-002	4.02337E-001	4.18096E-002	4.73336E+001	11	...........	6.97929E-002	-5.25986E-003	6.07379E-001	5.40928E-001	-2.66819E-002	-3.77636E-002	7.06438E-001	-4.37835E-002	2.81668E-003	-2.12276E-004	2.45124E-002	2.18306E-002	-1.07682E-003	-1.52405E-003	2.85102E-002	-1.76700E-003
	80	80	1.10000E+000	4.05545E-002	0.00000E+000	4.46098E-002	4.04299E-001	4.19967E-002	4.90092E+001	11	...........	7.01022E-002	-5.15389E-003	6.07533E-001	5.40952E-001	-2.66565E-002	-3.77479E-002	7.06513E-001	-4.37869E-002	2.84296E-003	-2.09013E-004	2.46382E-002	2.19380E-002	-1.08104E-003	-1.53085E-003	2.86522E-002	-1.77576E-003
	81	81	1.10009E+000	4.00676E-002	0.00000E+000	4.40778E-002	3.99457E-001	4.18605E-002	4.93001E+001	11	...........	6.98842E-002	-5.16611E-003	6.07454E-001	5.40906E-001	-2.66676E-002	-3.77392E-002	7.06599E-001	-4.37714E-002	2.80009E-003	-2.06994E-004	2.43392E-002	2.16728E-002	-1.06851E-003	-1.51212E-003	2.83117E-002	-1.75381E-003
	82	82	1.09994E+000	4.00776E-002	0.00000E+000	4.40829E-002	3.99559E-001	4.18681E-002	4.91118E+001	11	...........	6.98892E-002	-5.18681E-003	6.07622E-001	5.40920E-001	-2.67003E-002	-3.77419E-002	7.06630E-001	-4.37379E-002	2.80099E-003	-2.07875E-004	2.43521E-002	2.16788E-002	-1.07008E-003	-1.51261E-003	2.83201E-002	-1.75291E-003
	83	83	1.10000E+000	4.01793E-002	0.00000E+000	4.41972E-002	4.00569E-001	4.17132E-002	4.67298E+001	11	...........	6.96205E-002	-5.17778E-003	6.07529E-001	5.40925E-001	-2.67368E-002	-3.77225E-002	7.06610E-001	-4.38139E-002	2.79731E-003	-2.08040E-004	2.44101E-002	2.17340E-002	-1.07427E-003	-1.51567E-003	2.83911E-002	-1.76041E-003
	84	84	1.10009E+000	3.97979E-002	0.00000E+000	4.37810E-002	3.96777E-001	4.15250E-002	4.77660E+001	11	...........	6.93274E-002	-5.11319E-003	6.07490E-001	5.40838E-001	-2.67799E-002	-3.77053E-002	7.06631E-001	-4.38676E-002	2.75908E-003	-2.03494E-004	2.41768E-002	2.15242E-002	-1.06578E-003	-1.50059E-003	2.81224E-002	-1.74584E-003
	85	85	1.09994E+000	3.97999E-002	0.00000E+000	4.37774E-002	3.96797E-001	4.19913E-002	4.90500E+001	11	...........	7.00951E-002	-5.13611E-003	6.07575E-001	5.40781E-001	-2.68144E-002	-3.77110E-002	7.06642E-001	-4.38749E-002	2.78978E-003	-2.04416E-004	2.41814E-002	2.15230E-002	-1.06721E-003	-1.50089E-003	2.81243E-002	-1.74621E-003
	86	86	1.09999E+000	3.99149E-002	0.00000E+000	4.39062E-002	3.97942E-001	4.17506E-002	4.91125E+001	11	...........	6.96651E-002	-5.00944E-003	6.07687E-001	5.40989E-001	-2.67985E-002	-3.77250E-002	7.06703E-001	-4.37571E-002	2.78068E-003	-1.99952E-004	2.42558E-002	2.15935E-002	-1.06966E-003	-1.50579E-003	2.82080E-002	-1.74656E-003
	87	87	1.10009E+000	3.94870E-002	0.00000E+000	4.34393E-002	3.93690E-001	4.17571E-002	4.91105E+001	11	...........	6.96967E-002	-5.06111E-003	6.08070E-001	5.40994E-001	-2.68542E-002	-3.77017E-002	7.06570E-001	-4.37717E-002	2.75211E-003	-1.99848E-004	2.40109E-002	2.13622E-002	-1.06039E-003	-1.48873E-003	2.79004E-002	-1.72841E-003
	88	88	1.09994E+000	3.94443E-002	0.00000E+000	4.33865E-002	3.93264E-001	4.17071E-002	4.59652E+001	11	...........	6.96261E-002	-5.12264E-003	6.07923E-001	5.40976E-001	-2.68336E-002	-3.76906E-002	7.06521E-001	-4.37178E-002	2.74636E-003	-2.02059E-004	2.39791E-002	2.13384E-002	-1.05843E-003	-1.48668E-003	2.78682E-002	-1.72442E-003
	89	89	1.09999E+000	3.96147E-002	0.00000E+000	4.35757E-002	3.94958E-001	4.15154E-002	4.81302E+001	11	...........	6.93103E-002	-5.18056E-003	6.07789E-001	5.40844E-001	-2.68303E-002	-3.77000E-002	7.06523E-001	-4.36774E-002	2.74571E-003	-2.05226E-004	2.40774E-002	2.14254E-002	-1.06287E-003	-1.49347E-003	2.79887E-002	-1.73027E-003
	90	90	1.10009E+000	3.92410E-002	0.00000E+000	4.31685E-002	3.91245E-001	4.16703E-002	4.91856E+001	11	...........	6.95693E-002	-5.20111E-003	6.07655E-001	5.40870E-001	-2.67629E-002	-3.77096E-002	7.06500E-001	-4.36749E-002	2.72997E-003	-2.04097E-004	2.38449E-002	2.12242E-002	-1.05020E-003	-1.47976E-003	2.77237E-002	-1.71384E-003
	91	91	1.09994E+000	3.92111E-002	0.00000E+000	4.31299E-002	3.90947E-001	4.16806E-002	4.86954E+001	11	...........	6.95660E-002	-5.12347E-003	6.07391E-001	5.40934E-001	-2.67354E-002	-3.77285E-002	7.06434E-001	-4.36028E-002	2.72776E-003	-2.00897E-004	2.38165E-002	2.12106E-002	-1.04833E-003	-1.47938E-003	2.77001E-002	-1.70971E-003
	92	92	1.09999E+000	3.93532E-002	0.00000E+000	4.32882E-002	3.92360E-001	4.15799E-002	4.89834E+001	11	...........	6.93921E-002	-5.20486E-003	6.07287E-001	5.40980E-001	-2.67315E-002	-3.77500E-002	7.06419E-001	-4.36749E-002	2.73080E-003	-2.04828E-004	2.38987E-002	2.12893E-002	-1.05197E-003	-1.48558E-003	2.77999E-002	-1.71875E-003
	93	93	1.10009E+000	3.89589E-002	0.00000E+000	4.28583E-002	3.88442E-001	4.17259E-002	4.66889E+001	11	...........	6.96355E-002	-5.20736E-003	6.07567E-001	5.40753E-001	-2.67082E-002	-3.77442E-002	7.06378E-001	-4.38242E-002	2.71292E-003	-2.02873E-004	2.36701E-002	2.10671E-002	-1.04052E-003	-1.47047E-003	2.75197E-002	-1.70734E-003
	94	94	1.09994E+000	3.88549E-002	0.00000E+000	4.27382E-002	3.87410E-001	4.12952E-002	4.65016E+001	11	...........	6.89399E-002	-5.17375E-003	6.07416E-001	5.40817E-001	-2.67142E-002	-3.77468E-002	7.06403E-001	-4.37622E-002	2.67865E-003	-2.01026E-004	2.36011E-002	2.10134E-002	-1.03798E-003	-1.46665E-003	2.74472E-002	-1.70038E-003
	95	95	1.09999E+000	3.90432E-002	0.00000E+000	4.29470E-002	3.89279E-001	4.15748E-002	4.87155E+001	11	...........	6.94075E-002	-5.21722E-003	6.07478E-001	5.40865E-001	-2.67335E-002	-3.77507E-002	7.06426E-001	-4.37901E-002	2.70989E-003	-2.03697E-004	2.37179E-002	2.11171E-002	-1.04376E-003	-1.47391E-003	2.75811E-002	-1.70971E-003
	96	96	1.10009E+000	3.87071E-002	0.00000E+000	4.25813E-002	3.85940E-001	4.16608E-002	4.92305E+001	11	...........	6.95529E-002	-5.23667E-003	6.07525E-001	5.40807E-001	-2.67406E-002	-3.77610E-002	7.06307E-001	-4.38665E-002	2.69219E-003	-2.02696E-004	2.35155E-002	2.09331E-002	-1.03505E-003	-1.46162E-003	2.73391E-002	-1.69795E-003
	97	97	1.09994E+000	3.86156E-002	0.00000E+000	4.24750E-002	3.85029E-001	4.15221E-002	4.91265E+001	11	...........	6.93100E-002	-5.23542E-003	6.07272E-001	5.40963E-001	-2.67558E-002	-3.78000E-002	7.06397E-001	-4.38182E-002	2.67645E-003	-2.02169E-004	2.34502E-002	2.08896E-002	-1.03319E-003	-1.45967E-003	2.72780E-002	-1.69207E-003
	98	98	1.09999E+000	3.87618E-002	0.00000E+000	4.26375E-002	3.86484E-001	4.14652E-002	4.86511E+001	11	...........	6.92367E-002	-5.23681E-003	6.07264E-001	5.41067E-001	-2.67464E-002	-3.78235E-002	7.06308E-001	-4.37290E-002	2.68374E-003	-2.02988E-004	2.35386E-002	2.09727E-002	-1.03674E-003	-1.46611E-003	2.73777E-002	-1.69502E-003
	99	99	1.10009E+000	3.83853E-002	0.00000E+000	4.22273E-002	3.82736E-001	4.16164E-002	4.73036E+001	11	...........	6.94579E-002	-5.16347E-003	6.07362E-001	5.40818E-001	-2.67167E-002	-3.78262E-002	7.06361E-001	-4.36357E-002	2.66617E-003	-1.98202E-004	2.33138E-002	2.07595E-002	-1.02553E-003	-1.45197E-003	2.71139E-002	-1.67497E-003
	100	100	1.09994E+000	3.82474E-002	0.00000E+000	4.20700E-002	3.81368E-001	4.09553E-002	4.61608E+001	11	...........	6.83649E-002	-5.06944E-003	6.07307E-001	5.40793E-001	-2.67218E-002	-3.78254E-002	7.06220E-001	-4.37472E-002	2.61478E-003	-1.93893E-004	2.32279E-002	2.06839E-002	-1.02204E-003	-1.44672E-003	2.70111E-002	-1.67322E-003
	101	101	1.09999E+000	3.85380E-002	0.00000E+000	4.23913E-002	3.84258E-001	4.17601E-002	4.87493E+001	11	...........	6.97101E-002	-5.16014E-003	6.07414E-001	5.40743E-001	-2.67404E-002	-3.78254E-002	7.06276E-001	-4.37678E-002	2.68649E-003	-1.98861E-004	2.34085E-002	2.08392E-002	-1.03052E-003	-1.45772E-003	2.72184E-002	-1.68672E-003
	102	102	1.10009E+000	3.81637E-002	0.00000E+000	4.19834E-002	3.80538E-001	4.14073E-002	4.91796E+001	11	...........	6.91358E-002	-5.20181E-003	6.07422E-001	5.40768E-001	-2.68010E-002	-3.77936E-002	7.06410E-001	-4.35712E-002	2.63848E-003	-1.98520E-004	2.31815E-002	2.06377E-002	-1.02282E-003	-1.44234E-003	2.69592E-002	-1.66284E-003
	103	103	1.09995E+000	3.80733E-002	0.00000E+000	4.18786E-002	3.79637E-001	4.13579E-002	4.90326E+001	11	...........	6.90619E-002	-5.23333E-003	6.07294E-001	5.40896E-001	-2.68279E-002	-3.78085E-002	7.06330E-001	-4.36826E-002	2.62942E-003	-1.99250E-004	2.31217E-002	2.05937E-002	-1.02143E-003	-1.43949E-003	2.68923E-002	-1.66314E-003
	104	104	1.09999E+000	3.82155E-002	0.00000E+000	4.20365E-002	3.81050E-001	4.13693E-002	4.92771E+001	11	...........	6.90890E-002	-5.30778E-003	6.07278E-001	5.40839E-001	-2.67819E-002	-3.77944E-002	7.06318E-001	-4.37271E-002	2.64027E-003	-2.02839E-004	2.32074E-002	2.06684E-002	-1.02348E-003	-1.44433E-003	2.69923E-002	-1.67105E-003
	105	105	1.10009E+000	3.78942E-002	0.00000E+000	4.16870E-002	3.77857E-001	4.13302E-002	4.69891E+001	11	...........	6.90208E-002	-5.30444E-003	6.07402E-001	5.40776E-001	-2.66994E-002	-3.77826E-002	7.06200E-001	-4.38122E-002	2.61549E-003	-2.01008E-004	2.30170E-002	2.04923E-002	-1.01175E-003	-1.43174E-003	2.67609E-002	-1.66023E-003
	106	106	1.09995E+000	3.77500E-002	0.00000E+000	4.15230E-002	3.76427E-001	4.12396E-002	4.89177E+001	11	...........	6.88304E-002	-5.31486E-003	6.07276E-001	5.40690E-001	-2.66326E-002	-3.77742E-002	7.06116E-001	-4.37681E-002	2.59835E-003	-2.00636E-004	2.29247E-002	2.04110E-002	-1.00538E-003	-1.42597E-003	2.66559E-002	-1.65224E-003
	107	107	1.09999E+000	3.79057E-002	0.00000E+000	4.16957E-002	3.77971E-001	4.12705E-002	4.77942E+001	11	...........	6.88946E-002	-5.28556E-003	6.07308E-001	5.40675E-001	-2.66435E-002	-3.77896E-002	7.06164E-001	-4.38542E-002	2.61149E-003	-2.00352E-004	2.30204E-002	2.04946E-002	-1.00994E-003	-1.43244E-003	2.67676E-002	-1.66232E-003
	108	108	1.10009E+000	3.76510E-002	0.00000E+000	4.14193E-002	3.75436E-001	4.12221E-002	4.87991E+001	11	...........	6.88369E-002	-5.23000E-003	6.07296E-001	5.40498E-001	-2.67008E-002	-3.77958E-002	7.06355E-001	-4.37335E-002	2.59178E-003	-1.96914E-004	2.28653E-002	2.03503E-002	-1.00531E-003	-1.42305E-003	2.65949E-002	-1.64661E-003
	109	109	1.09995E+000	3.75050E-002	0.00000E+000	4.12538E-002	3.73989E-001	4.12945E-002	4.66951E+001	11	...........	6.89617E-002	-5.22639E-003	6.07459E-001	5.40528E-001	-2.67037E-002	-3.78247E-002	7.06191E-001	-4.37854E-002	2.58641E-003	-1.96016E-004	2.27827E-002	2.02725E-002	-1.00152E-003	-1.41862E-003	2.64857E-002	-1.64217E-003
	110	110	1.09998E+000	3.76345E-002	0.00000E+000	4.13973E-002	3.75276E-001	4.11114E-002	4.86756E+001	11	...........	6.86360E-002	-5.22778E-003	6.07427E-001	5.40592E-001	-2.67000E-002	-3.78124E-002	7.06213E-001	-4.37814E-002	2.58308E-003	-1.96745E-004	2.28602E-002	2.03449E-002	-1.00484E-003	-1.42305E-003	2.65779E-002	-1.64769E-003
	111	111	1.10008E+000	3.73946E-002	0.00000E+000	4.11372E-002	3.72890E-001	4.12304E-002	4.90529E+001	11	...........	6.88554E-002	-5.27917E-003	6.07339E-001	5.40529E-001	-2.66719E-002	-3.77996E-002	7.06255E-001	-4.37536E-002	2.57482E-003	-1.97412E-004	2.27112E-002	2.02129E-002	-9.97387E-004	-1.41350E-003	2.64101E-002	-1.63615E-003
	112	112	1.09996E+000	3.72498E-002	0.00000E+000	4.09732E-002	3.71451E-001	4.12015E-002	4.91561E+001	11	...........	6.88069E-002	-5.22319E-003	6.07359E-001	5.40403E-001	-2.66132E-002	-3.77769E-002	7.06359E-001	-4.38524E-002	2.56305E-003	-1.94563E-004	2.26240E-002	2.01299E-002	-9.91337E-004	-1.40718E-003	2.63118E-002	-1.63349E-003
	113	113	1.09998E+000	3.73779E-002	0.00000E+000	4.11150E-002	3.72724E-001	4.11401E-002	4.91075E+001	11	...........	6.86711E-002	-5.24931E-003	6.07265E-001	5.40449E-001	-2.65986E-002	-3.77644E-002	7.06302E-001	-4.38212E-002	2.56678E-003	-1.96208E-004	2.26983E-002	2.02008E-002	-9.94200E-004	-1.41155E-003	2.64001E-002	-1.63795E-003
	114	114	1.10008E+000	3.71556E-002	0.00000E+000	4.08743E-002	3.70518E-001	4.11774E-002	4.69616E+001	11	...........	6.87624E-002	-5.29597E-003	6.07238E-001	5.40317E-001	-2.66337E-002	-3.77708E-002	7.06252E-001	-4.36486E-002	2.55491E-003	-1.96775E-004	2.25623E-002	2.00758E-002	-9.89593E-004	-1.40340E-003	2.62412E-002	-1.62179E-003
	115	115	1.09996E+000	3.69065E-002	0.00000E+000	4.05955E-002	3.68039E-001	4.09300E-002	4.86648E+001	11	...........	6.83439E-002	-5.22444E-003	6.07024E-001	5.40396E-001	-2.66540E-002	-3.77732E-002	7.06415E-001	-4.37849E-002	2.52233E-003	-1.92816E-004	2.24031E-002	1.99441E-002	-9.83706E-004	-1.39407E-003	2.60713E-002	-1.61594E-003
	116	116	1.09999E+000	3.71323E-002	0.00000E+000	4.08450E-002	3.70281E-001	4.12540E-002	4.86124E+001	11	...........	6.88871E-002	-5.28417E-003	6.07032E-001	5.40404E-001	-2.66026E-002	-3.77542E-002	7.06504E-001	-4.37285E-002	2.55794E-003	-1.96213E-004	2.25405E-002	2.00664E-002	-9.87818E-004	-1.40190E-003	2.62341E-002	-1.62374E-003
	117	117	1.10008E+000	3.68377E-002	0.00000E+000	4.05243E-002	3.67350E-001	4.08863E-002	4.85710E+001	11	...........	6.82663E-002	-5.25917E-003	6.07023E-001	5.40451E-001	-2.65957E-002	-3.77546E-002	7.06446E-001	-4.37360E-002	2.51477E-003	-1.93736E-004	2.23613E-002	1.99090E-002	-9.79724E-004	-1.39079E-003	2.60238E-002	-1.61113E-003
	118	118	1.09996E+000	3.67018E-002	0.00000E+000	4.03706E-002	3.66003E-001	4.10917E-002	4.92622E+001	11	...........	6.86146E-002	-5.21306E-003	6.07018E-001	5.40441E-001	-2.66150E-002	-3.77689E-002	7.06417E-001	-4.37183E-002	2.51828E-003	-1.91329E-004	2.22786E-002	1.98352E-002	-9.76818E-004	-1.38619E-003	2.59268E-002	-1.60454E-003
	119	119	1.09998E+000	3.68360E-002	0.00000E+000	4.05190E-002	3.67338E-001	4.10037E-002	4.70454E+001	11	...........	6.84560E-002	-5.23931E-003	6.06919E-001	5.40407E-001	-2.65896E-002	-3.77629E-002	7.06428E-001	-4.37410E-002	2.52164E-003	-1.92995E-004	2.23565E-002	1.99064E-002	-9.79454E-004	-1.39103E-003	2.60220E-002	-1.61124E-003
	120	120	1.10008E+000	3.66473E-002	0.00000E+000	4.03148E-002	3.65462E-001	4.10673E-002	4.89454E+001	11	...........	6.85732E-002	-5.20528E-003	6.06886E-001	5.40662E-001	-2.66064E-002	-3.77521E-002	7.06580E-001	-4.37014E-002	2.51302E-003	-1.90759E-004	2.22407E-002	1.98138E-002	-9.75053E-004	-1.38351E-003	2.58943E-002	-1.60154E-003
	121	121	1.09996E+000	3.64309E-002	0.00000E+000	4.00726E-002	3.63307E-001	4.09846E-002	4.91258E+001	11	...........	6.84187E-002	-5.23153E-003	6.06661E-001	5.40745E-001	-2.66161E-002	-3.77814E-002	7.06594E-001	-4.37293E-002	2.49256E-003	-1.90589E-004	2.21012E-002	1.96998E-002	-9.69650E-004	-1.37641E-003	2.57419E-002	-1.59310E-003
	122	122	1.09998E+000	3.65921E-002	0.00000E+000	4.02506E-002	3.64908E-001	4.09693E-002	4.85023E+001	11	...........	6.84233E-002	-5.28389E-003	6.06880E-001	5.40678E-001	-2.66686E-002	-3.77675E-002	7.06419E-001	-4.36567E-002	2.50375E-003	-1.93349E-004	2.22070E-002	1.97846E-002	-9.75860E-004	-1.38199E-003	2.58493E-002	-1.59749E-003
	123	123	1.10007E+000	3.63454E-002	0.00000E+000	3.99826E-002	3.62457E-001	4.07455E-002	4.64628E+001	11	...........	6.80161E-002	-5.28500E-003	6.06861E-001	5.40679E-001	-2.67089E-002	-3.77856E-002	7.06463E-001	-4.36231E-002	2.47207E-003	-1.92085E-004	2.20566E-002	1.96512E-002	-9.70744E-004	-1.37333E-003	2.56767E-002	-1.58550E-003
	124	124	1.09997E+000	3.61753E-002	0.00000E+000	3.97917E-002	3.60765E-001	4.10657E-002	4.87531E+001	11	...........	6.85692E-002	-5.28833E-003	6.06932E-001	5.40797E-001	-2.67082E-002	-3.78012E-002	7.06513E-001	-4.36442E-002	2.48051E-003	-1.91307E-004	2.19559E-002	1.95635E-002	-9.66177E-004	-1.36747E-003	2.55583E-002	-1.57884E-003
	125	125	1.09998E+000	3.63144E-002	0.00000E+000	3.99452E-002	3.62152E-001	4.09365E-002	4.67632E+001	11	...........	6.83428E-002	-5.26917E-003	6.07082E-001	5.40847E-001	-2.67079E-002	-3.78085E-002	7.06461E-001	-4.35219E-002	2.48183E-003	-1.91347E-004	2.20458E-002	1.96405E-002	-9.69883E-004	-1.37299E-003	2.56547E-002	-1.58047E-003
	126	126	1.10007E+000	3.61199E-002	0.00000E+000	3.97345E-002	3.60213E-001	4.08444E-002	4.85476E+001	11	...........	6.82007E-002	-5.22500E-003	6.06987E-001	5.40905E-001	-2.67157E-002	-3.78132E-002	7.06363E-001	-4.37044E-002	2.46341E-003	-1.88727E-004	2.19243E-002	1.95374E-002	-9.64969E-004	-1.36581E-003	2.55138E-002	-1.57860E-003
	127	127	1.09997E+000	3.58897E-002	0.00000E+000	3.94776E-002	3.57926E-001	4.09523E-002	4.89871E+001	11	...........	6.83639E-002	-5.24986E-003	6.07147E-001	5.41114E-001	-2.66843E-002	-3.78131E-002	7.06385E-001	-4.38175E-002	2.45356E-003	-1.88416E-004	2.17903E-002	1.94204E-002	-9.57691E-004	-1.35710E-003	2.53520E-002	-1.57260E-003
	128	128	1.09998E+000	3.61053E-002	0.00000E+000	3.97150E-002	3.60066E-001	4.08507E-002	4.90770E+001	11	...........	6.82144E-002	-5.22764E-003	6.07186E-001	5.41185E-001	-2.66943E-002	-3.78181E-002	7.06407E-001	-4.38653E-002	2.46290E-003	-1.88745E-004	2.19226E-002	1.95396E-002	-9.63805E-004	-1.36543E-003	2.55050E-002	-1.58377E-003
	129	129	1.10007E+000	3.58926E-002	0.00000E+000	3.94844E-002	3.57954E-001	4.08463E-002	4.92169E+001	11	...........	6.81979E-002	-5.24681E-003	6.07002E-001	5.41325E-001	-2.66904E-002	-3.78057E-002	7.06429E-001	-4.38197E-002	2.44780E-003	-1.88321E-004	2.17869E-002	1.94295E-002	-9.57988E-004	-1.35694E-003	2.53556E-002	-1.57280E-003
	130	130	1.09997E+000	3.56495E-002	0.00000E+000	3.92134E-002	3.55537E-001	4.09378E-002	4.80824E+001	11	...........	6.83453E-002	-5.27417E-003	6.07051E-001	5.41319E-001	-2.66831E-002	-3.77794E-002	7.06425E-001	-4.36989E-002	2.43647E-003	-1.88021E-004	2.16410E-002	1.92977E-002	-9.51236E-004	-1.34682E-003	2.51837E-002	-1.55784E-003
	131	131	1.09998E+000	3.57895E-002	0.00000E+000	3.93677E-002	3.56926E-001	4.05076E-002	4.63506E+001	11	...........	6.76368E-002	-5.28958E-003	6.07085E-001	5.41355E-001	-2.67072E-002	-3.77692E-002	7.06392E-001	-4.37217E-002	2.42068E-003	-1.89311E-004	2.17272E-002	1.93748E-002	-9.55837E-004	-1.35174E-003	2.52814E-002	-1.56477E-003
	132	132	1.10007E+000	3.56674E-002	0.00000E+000	3.92366E-002	3.55714E-001	4.09222E-002	4.83666E+001	11	...........	6.83229E-002	-5.26653E-003	6.07064E-001	5.41312E-001	-2.67506E-002	-3.77433E-002	7.06374E-001	-4.36881E-002	2.43690E-003	-1.87843E-004	2.16524E-002	1.93072E-002	-9.54122E-004	-1.34621E-003	2.51945E-002	-1.55824E-003
	133	133	1.09997E+000	3.53868E-002	0.00000E+000	3.89245E-002	3.52925E-001	4.07900E-002	4.89372E+001	11	...........	6.80776E-002	-5.25167E-003	6.07124E-001	5.41383E-001	-2.67501E-002	-3.77583E-002	7.06411E-001	-4.37069E-002	2.40905E-003	-1.85840E-004	2.14842E-002	1.91578E-002	-9.46601E-004	-1.33615E-003	2.49976E-002	-1.54665E-003
	134	134	1.09998E+000	3.55792E-002	0.00000E+000	3.91364E-002	3.54837E-001	4.07488E-002	4.89488E+001	11	...........	6.80433E-002	-5.17250E-003	6.07126E-001	5.41433E-001	-2.67006E-002	-3.77731E-002	7.06427E-001	-4.37682E-002	2.42093E-003	-1.84034E-004	2.16011E-002	1.92638E-002	-9.49985E-004	-1.34394E-003	2.51341E-002	-1.55724E-003
	135	135	1.10007E+000	3.54127E-002	0.00000E+000	3.89563E-002	3.53181E-001	4.08063E-002	4.89263E+001	11	...........	6.81267E-002	-5.20486E-003	6.07149E-001	5.41445E-001	-2.66743E-002	-3.77924E-002	7.06327E-001	-4.37471E-002	2.41255E-003	-1.84318E-004	2.15008E-002	1.91740E-002	-9.44609E-004	-1.33833E-003	2.50129E-002	-1.54920E-003
	136	136	1.09998E+000	3.51498E-002	0.00000E+000	3.86640E-002	3.50569E-001	4.06960E-002	4.90817E+001	11	...........	6.79450E-002	-5.22111E-003	6.07075E-001	5.41401E-001	-2.66649E-002	-3.78408E-002	7.06446E-001	-4.37196E-002	2.38825E-003	-1.83521E-004	2.13386E-002	1.90301E-002	-9.37265E-004	-1.33010E-003	2.48314E-002	-1.53674E-003
	137	137	1.09998E+000	3.53071E-002	0.00000E+000	3.88371E-002	3.52132E-001	4.07506E-002	4.69546E+001	11	...........	6.80289E-002	-5.21306E-003	6.06921E-001	5.41428E-001	-2.66975E-002	-3.78846E-002	7.06421E-001	-4.37790E-002	2.40190E-003	-1.84058E-004	2.14286E-002	1.91162E-002	-9.42610E-004	-1.33759E-003	2.49416E-002	-1.54571E-003
	138	138	1.10006E+000	3.51447E-002	0.00000E+000	3.86614E-002	3.50521E-001	4.06944E-002	4.83016E+001	11	...........	6.79393E-002	-5.22944E-003	6.07022E-001	5.41382E-001	-2.67396E-002	-3.79353E-002	7.06302E-001	-4.37333E-002	2.38771E-003	-1.83787E-004	2.13336E-002	1.90267E-002	-9.39756E-004	-1.33323E-003	2.48228E-002	-1.53700E-003
	139	139	1.09998E+000	3.48656E-002	0.00000E+000	3.83516E-002	3.47742E-001	4.05307E-002	4.77202E+001	11	...........	6.76594E-002	-5.25125E-003	6.07016E-001	5.41350E-001	-2.67304E-002	-3.79340E-002	7.06271E-001	-4.37964E-002	2.35899E-003	-1.83088E-004	2.11640E-002	1.88745E-002	-9.31972E-004	-1.32259E-003	2.46246E-002	-1.52699E-003
	140	140	1.09998E+000	3.50864E-002	0.00000E+000	3.85942E-002	3.49934E-001	4.06977E-002	4.87029E+001	11	...........	6.79356E-002	-5.26000E-003	6.07098E-001	5.41351E-001	-2.66912E-002	-3.79314E-002	7.06252E-001	-4.36606E-002	2.38361E-003	-1.84554E-004	2.13009E-002	1.89941E-002	-9.36500E-004	-1.33088E-003	2.47799E-002	-1.53189E-003
	141	141	1.10006E+000	3.49281E-002	0.00000E+000	3.84230E-002	3.48358E-001	4.06494E-002	4.76674E+001	11	...........	6.78721E-002	-5.14278E-003	6.07155E-001	5.41338E-001	-2.66532E-002	-3.79285E-002	7.06320E-001	-4.35775E-002	2.37064E-003	-1.79628E-004	2.12068E-002	1.89079E-002	-9.30946E-004	-1.32477E-003	2.46704E-002	-1.52208E-003
	142	142	1.09998E+000	3.46127E-002	0.00000E+000	3.80734E-002	3.45224E-001	4.02960E-002	4.76500E+001	11	...........	6.72764E-002	-5.18264E-003	6.07000E-001	5.41360E-001	-2.66474E-002	-3.78817E-002	7.06184E-001	-4.37486E-002	2.32862E-003	-1.79385E-004	2.10099E-002	1.87379E-002	-9.22336E-004	-1.31119E-003	2.44429E-002	-1.51426E-003
	143	143	1.09998E+000	3.48347E-002	0.00000E+000	3.83173E-002	3.47434E-001	4.08536E-002	4.92457E+001	11	...........	6.82326E-002	-5.15333E-003	6.06998E-001	5.41215E-001	-2.66524E-002	-3.78696E-002	7.06415E-001	-4.37450E-002	2.37686E-003	-1.79515E-004	2.11446E-002	1.88531E-002	-9.28427E-004	-1.31918E-003	2.46078E-002	-1.52384E-003
	144	144	1.10006E+000	3.46675E-002	0.00000E+000	3.81363E-002	3.45775E-001	4.05762E-002	4.87015E+001	11	...........	6.77557E-002	-5.14806E-003	6.06913E-001	5.41078E-001	-2.66858E-002	-3.78679E-002	7.06401E-001	-4.37357E-002	2.34892E-003	-1.78470E-004	2.10402E-002	1.87578E-002	-9.25131E-004	-1.31279E-003	2.44892E-002	-1.51621E-003
	145	145	1.09999E+000	3.43461E-002	0.00000E+000	3.77803E-002	3.42580E-001	4.02428E-002	4.67626E+001	11	...........	6.71854E-002	-5.10528E-003	6.07032E-001	5.41020E-001	-2.67258E-002	-3.78486E-002	7.06265E-001	-4.37900E-002	2.30756E-003	-1.75347E-004	2.08492E-002	1.85819E-002	-9.17929E-004	-1.29995E-003	2.42575E-002	-1.50402E-003
	146	146	1.09998E+000	3.45889E-002	0.00000E+000	3.80469E-002	3.44994E-001	4.06788E-002	4.86952E+001	11	...........	6.79160E-002	-5.15556E-003	6.06936E-001	5.41154E-001	-2.66953E-002	-3.78310E-002	7.06433E-001	-4.35856E-002	2.34914E-003	-1.78325E-004	2.09932E-002	1.87179E-002	-9.23359E-004	-1.30853E-003	2.44347E-002	-1.50757E-003
	147	147	1.10006E+000	3.44385E-002	0.00000E+000	3.78843E-002	3.43503E-001	4.04637E-002	4.92338E+001	11	...........	6.75762E-002	-5.26653E-003	6.06960E-001	5.41241E-001	-2.66483E-002	-3.78096E-002	7.06433E-001	-4.37622E-002	2.32722E-003	-1.81371E-004	2.09028E-002	1.86395E-002	-9.17728E-004	-1.30210E-003	2.43285E-002	-1.50710E-003
	148	148	1.09999E+000	3.40883E-002	0.00000E+000	3.74969E-002	3.40016E-001	4.03992E-002	4.69461E+001	11	...........	6.74421E-002	-5.24958E-003	6.07079E-001	5.41317E-001	-2.66451E-002	-3.77715E-002	7.06396E-001	-4.37861E-002	2.29899E-003	-1.78949E-004	2.06943E-002	1.84526E-002	-9.08288E-004	-1.28757E-003	2.40798E-002	-1.49259E-003
	149	149	1.09997E+000	3.43195E-002	0.00000E+000	3.77504E-002	3.42312E-001	4.05024E-002	4.88650E+001	11	...........	6.76206E-002	-5.18778E-003	6.07060E-001	5.41487E-001	-2.66496E-002	-3.77717E-002	7.06313E-001	-4.37390E-002	2.32070E-003	-1.78042E-004	2.08340E-002	1.85835E-002	-9.14600E-004	-1.29630E-003	2.42403E-002	-1.50110E-003
	150	150	1.10006E+000	3.42115E-002	0.00000E+000	3.76346E-002	3.41240E-001	4.04805E-002	4.93141E+001	11	...........	6.75839E-002	-5.20750E-003	6.07140E-001	5.41598E-001	-2.66879E-002	-3.77726E-002	7.06410E-001	-4.37465E-002	2.31215E-003	-1.78157E-004	2.07712E-002	1.85289E-002	-9.13034E-004	-1.29226E-003	2.41674E-002	-1.49664E-003
	151	151	1.09999E+000	3.38761E-002	0.00000E+000	3.72636E-002	3.37905E-001	4.04417E-002	4.90490E+001	11	...........	6.74986E-002	-5.28375E-003	6.07208E-001	5.41622E-001	-2.67181E-002	-3.77676E-002	7.06443E-001	-4.36782E-002	2.28659E-003	-1.78993E-004	2.05699E-002	1.83480E-002	-9.05104E-004	-1.27942E-003	2.39316E-002	-1.47965E-003
	152	152	1.09997E+000	3.40790E-002	0.00000E+000	3.74860E-002	3.39920E-001	4.04087E-002	4.89699E+001	11	...........	6.74521E-002	-5.25583E-003	6.07120E-001	5.41472E-001	-2.67374E-002	-3.78061E-002	7.06456E-001	-4.35940E-002	2.29870E-003	-1.79114E-004	2.06900E-002	1.84528E-002	-9.11183E-004	-1.28840E-003	2.40753E-002	-1.48564E-003
	153	153	1.10005E+000	3.39459E-002	0.00000E+000	3.73423E-002	3.38596E-001	4.03677E-002	4.70561E+001	11	...........	6.73958E-002	-5.19792E-003	6.07074E-001	5.41500E-001	-2.67101E-002	-3.78294E-002	7.06495E-001	-4.37411E-002	2.28781E-003	-1.76448E-004	2.06077E-002	1.83817E-002	-9.06699E-004	-1.28415E-003	2.39826E-002	-1.48483E-003
	154	154	1.10000E+000	3.36825E-002	0.00000E+000	3.70506E-002	3.35982E-001	4.03156E-002	4.81086E+001	11	...........	6.73204E-002	-5.21042E-003	6.06983E-001	5.41488E-001	-2.66839E-002	-3.78486E-002	7.06456E-001	-4.38411E-002	2.26752E-003	-1.75500E-004	2.04447E-002	1.82387E-002	-8.98780E-004	-1.27484E-003	2.37952E-002	-1.47668E-003
	155	155	1.09997E+000	3.38529E-002	0.00000E+000	3.72371E-002	3.37673E-001	4.03734E-002	4.87281E+001	11	...........	6.74156E-002	-5.24556E-003	6.07043E-001	5.41490E-001	-2.66292E-002	-3.78546E-002	7.06467E-001	-4.38393E-002	2.28221E-003	-1.77577E-004	2.05501E-002	1.83310E-002	-9.01473E-004	-1.28149E-003	2.39159E-002	-1.48409E-003
	156	156	1.10005E+000	3.37415E-002	0.00000E+000	3.71173E-002	3.36571E-001	4.03316E-002	4.84133E+001	11	...........	6.73449E-002	-5.22708E-003	6.07086E-001	5.41531E-001	-2.66915E-002	-3.78289E-002	7.06534E-001	-4.37981E-002	2.27231E-003	-1.76370E-004	2.04840E-002	1.82720E-002	-9.00611E-004	-1.27640E-003	2.38395E-002	-1.47781E-003
	157	157	1.10000E+000	3.34289E-002	0.00000E+000	3.67719E-002	3.33461E-001	4.03873E-002	4.90513E+001	11	...........	6.74201E-002	-5.15250E-003	6.06896E-001	5.41427E-001	-2.67360E-002	-3.78389E-002	7.06394E-001	-4.37121E-002	2.25378E-003	-1.72243E-004	2.02879E-002	1.80993E-002	-8.93755E-004	-1.26491E-003	2.36140E-002	-1.46125E-003
	158	158	1.09997E+000	3.36099E-002	0.00000E+000	3.69699E-002	3.35261E-001	4.03745E-002	4.90958E+001	11	...........	6.74061E-002	-5.14000E-003	6.06737E-001	5.41504E-001	-2.67240E-002	-3.78390E-002	7.06400E-001	-4.37439E-002	2.26551E-003	-1.72755E-004	2.03924E-002	1.81999E-002	-8.98191E-004	-1.27177E-003	2.37420E-002	-1.47023E-003
	159	159	1.10005E+000	3.35261E-002	0.00000E+000	3.68803E-002	3.34423E-001	4.02835E-002	4.91655E+001	11	...........	6.72575E-002	-5.19542E-003	6.06749E-001	5.41547E-001	-2.66607E-002	-3.78186E-002	7.06437E-001	-4.37789E-002	2.25488E-003	-1.74182E-004	2.03419E-002	1.81559E-002	-8.93829E-004	-1.26791E-003	2.36841E-002	-1.46773E-003
	160	160	1.10001E+000	3.32066E-002	0.00000E+000	3.65274E-002	3.31245E-001	4.03636E-002	4.75159E+001	11	...........	6.73878E-002	-5.21861E-003	6.06854E-001	5.41450E-001	-2.66342E-002	-3.78279E-002	7.06495E-001	-4.37493E-002	2.23772E-003	-1.73292E-004	2.01515E-002	1.79797E-002	-8.84429E-004	-1.25613E-003	2.34603E-002	-1.45276E-003
	161	161	1.09997E+000	3.33027E-002	0.00000E+000	3.66320E-002	3.32204E-001	4.00749E-002	4.69130E+001	11	...........	6.68922E-002	-5.19403E-003	6.07043E-001	5.41587E-001	-2.66758E-002	-3.78414E-002	7.06361E-001	-4.37387E-002	2.22769E-003	-1.72975E-004	2.02162E-002	1.80363E-002	-8.88378E-004	-1.26022E-003	2.35238E-002	-1.45662E-003
	162	162	1.10004E+000	3.33049E-002	0.00000E+000	3.66368E-002	3.32227E-001	4.02992E-002	4.71100E+001	11	...........	6.72683E-002	-5.18208E-003	6.07185E-001	5.41653E-001	-2.66954E-002	-3.78672E-002	7.06320E-001	-4.37161E-002	2.24036E-003	-1.72589E-004	2.02222E-002	1.80397E-002	-8.89087E-004	-1.26116E-003	2.35239E-002	-1.45596E-003
	163	163	1.10001E+000	3.29745E-002	0.00000E+000	3.62722E-002	3.28945E-001	4.02822E-002	4.85497E+001	11	...........	6.72481E-002	-5.21931E-003	6.07249E-001	5.41737E-001	-2.66926E-002	-3.78689E-002	7.06390E-001	-4.37299E-002	2.21747E-003	-1.72104E-004	2.00237E-002	1.78635E-002	-8.80176E-004	-1.24871E-003	2.32929E-002	-1.44197E-003
	164	164	1.09997E+000	3.31259E-002	0.00000E+000	3.64375E-002	3.30449E-001	4.02120E-002	4.88725E+001	11	...........	6.71208E-002	-5.23708E-003	6.07354E-001	5.41585E-001	-2.66504E-002	-3.78603E-002	7.06512E-001	-4.37614E-002	2.22344E-003	-1.73483E-004	2.01192E-002	1.79405E-002	-8.82820E-004	-1.25416E-003	2.34039E-002	-1.44964E-003
	165	165	1.10004E+000	3.30611E-002	0.00000E+000	3.63686E-002	3.29802E-001	4.02499E-002	4.88677E+001	11	...........	6.72104E-002	-5.25903E-003	6.07390E-001	5.41705E-001	-2.65883E-002	-3.78467E-002	7.06441E-001	-4.35646E-002	2.22205E-003	-1.73869E-004	2.00810E-002	1.79094E-002	-8.79041E-004	-1.25125E-003	2.33558E-002	-1.44029E-003
	166	166	1.10001E+000	3.27313E-002	0.00000E+000	3.60048E-002	3.26525E-001	4.02277E-002	4.88907E+001	11	...........	6.71679E-002	-5.26444E-003	6.07275E-001	5.41605E-001	-2.66349E-002	-3.78158E-002	7.06663E-001	-4.36887E-002	2.19849E-003	-1.72312E-004	1.98769E-002	1.77275E-002	-8.71794E-004	-1.23776E-003	2.31300E-002	-1.42999E-003
	167	167	1.09997E+000	3.28704E-002	0.00000E+000	3.61564E-002	3.27909E-001	4.00530E-002	4.64157E+001	11	...........	6.68646E-002	-5.26569E-003	6.07396E-001	5.41558E-001	-2.66735E-002	-3.77862E-002	7.06624E-001	-4.36440E-002	2.19787E-003	-1.73086E-004	1.99654E-002	1.78012E-002	-8.76768E-004	-1.24205E-003	2.32270E-002	-1.43460E-003
	168	168	1.10004E+000	3.28579E-002	0.00000E+000	3.61449E-002	3.27783E-001	4.01950E-002	4.83144E+001	11	...........	6.70919E-002	-5.23125E-003	6.07415E-001	5.41614E-001	-2.66236E-002	-3.77662E-002	7.06523E-001	-4.37101E-002	2.20450E-003	-1.71888E-004	1.99584E-002	1.77963E-002	-8.74795E-004	-1.24092E-003	2.32148E-002	-1.43622E-003
	169	169	1.10002E+000	3.25154E-002	0.00000E+000	3.57674E-002	3.24379E-001	4.01440E-002	4.88722E+001	11	...........	6.70085E-002	-5.26861E-003	6.07742E-001	5.41701E-001	-2.65901E-002	-3.77781E-002	7.06524E-001	-4.38256E-002	2.17881E-003	-1.71311E-004	1.97610E-002	1.76136E-002	-8.64588E-004	-1.22837E-003	2.29729E-002	-1.42500E-003
	170	170	1.09997E+000	3.26963E-002	0.00000E+000	3.59648E-002	3.26181E-001	4.01418E-002	4.89634E+001	11	...........	6.69990E-002	-5.27347E-003	6.07768E-001	5.41867E-001	-2.66624E-002	-3.78310E-002	7.06589E-001	-4.38379E-002	2.19062E-003	-1.72423E-004	1.98718E-002	1.77171E-002	-8.71761E-004	-1.23693E-003	2.31028E-002	-1.43334E-003
	171	171	1.10004E+000	3.26207E-002	0.00000E+000	3.58840E-002	3.25425E-001	4.01490E-002	4.90452E+001	11	...........	6.70044E-002	-5.28792E-003	6.07681E-001	5.42032E-001	-2.67065E-002	-3.78700E-002	7.06591E-001	-4.37737E-002	2.18573E-003	-1.72496E-004	1.98230E-002	1.76815E-002	-8.71186E-004	-1.23535E-003	2.30495E-002	-1.42793E-003
	172	172	1.10002E+000	3.22488E-002	0.00000E+000	3.54744E-002	3.21729E-001	4.01174E-002	4.71596E+001	11	...........	6.69478E-002	-5.30458E-003	6.07589E-001	5.42047E-001	-2.66657E-002	-3.78796E-002	7.06567E-001	-4.36946E-002	2.15898E-003	-1.71066E-004	1.95940E-002	1.74803E-002	-8.59936E-004	-1.22157E-003	2.27859E-002	-1.40910E-003
	173	173	1.09996E+000	3.24368E-002	0.00000E+000	3.56793E-002	3.23598E-001	3.99820E-002	4.78157E+001	11	...........	6.67625E-002	-5.26097E-003	6.07604E-001	5.41927E-001	-2.66035E-002	-3.78579E-002	7.06578E-001	-4.38010E-002	2.16556E-003	-1.70649E-004	1.97087E-002	1.75784E-002	-8.62932E-004	-1.22799E-003	2.29191E-002	-1.42076E-003
	174	174	1.10003E+000	3.23572E-002	0.00000E+000	3.55940E-002	3.22806E-001	3.99666E-002	4.80512E+001	11	...........	6.67230E-002	-5.29847E-003	6.07716E-001	5.41788E-001	-2.66721E-002	-3.78481E-002	7.06580E-001	-4.38264E-002	2.15897E-003	-1.71444E-004	1.96640E-002	1.75308E-002	-8.63034E-004	-1.22466E-003	2.28629E-002	-1.41810E-003
	175	175	1.10003E+000	3.20259E-002	0.00000E+000	3.52293E-002	3.19512E-001	3.99136E-002	4.66216E+001	11	...........	6.66421E-002	-5.33653E-003	6.07604E-001	5.41779E-001	-2.67010E-002	-3.78290E-002	7.06566E-001	-4.37617E-002	2.13427E-003	-1.70907E-004	1.94591E-002	1.73510E-002	-8.55123E-004	-1.21151E-003	2.26284E-002	-1.40151E-003
	176	176	1.09996E+000	3.22324E-002	0.00000E+000	3.54545E-002	3.21563E-001	4.00841E-002	4.89159E+001	11	...........	6.68957E-002	-5.28153E-003	6.07734E-001	5.41709E-001	-2.66299E-002	-3.78106E-002	7.06593E-001	-4.38703E-002	2.15621E-003	-1.70236E-004	1.95887E-002	1.74606E-002	-8.58344E-004	-1.21872E-003	2.27752E-002	-1.41404E-003
	177	177	1.10003E+000	3.21861E-002	0.00000E+000	3.54057E-002	3.21101E-001	4.00406E-002	4.84443E+001	11	...........	6.68296E-002	-5.23847E-003	6.07717E-001	5.41626E-001	-2.65778E-002	-3.78190E-002	7.06667E-001	-4.38968E-002	2.15098E-003	-1.68606E-004	1.95600E-002	1.74328E-002	-8.55434E-004	-1.21725E-003	2.27448E-002	-1.41286E-003
	178	178	1.10003E+000	3.18284E-002	0.00000E+000	3.50121E-002	3.17549E-001	3.99804E-002	4.86223E+001	11	...........	6.67311E-002	-5.25139E-003	6.07627E-001	5.41695E-001	-2.66747E-002	-3.78310E-002	7.06525E-001	-4.39337E-002	2.12394E-003	-1.67143E-004	1.93398E-002	1.72413E-002	-8.49014E-004	-1.20410E-003	2.24876E-002	-1.39834E-003
	179	179	1.09996E+000	3.19469E-002	0.00000E+000	3.51405E-002	3.18726E-001	3.97649E-002	4.76380E+001	11	...........	6.63900E-002	-5.29528E-003	6.07601E-001	5.41677E-001	-2.67057E-002	-3.78371E-002	7.06411E-001	-4.38607E-002	2.12096E-003	-1.69168E-004	1.94110E-002	1.73049E-002	-8.53165E-004	-1.20878E-003	2.25677E-002	-1.40121E-003
	180	180	1.10003E+000	3.19533E-002	0.00000E+000	3.51495E-002	3.18792E-001	4.01721E-002	4.90255E+001	11	...........	6.70603E-002	-5.30806E-003	6.07615E-001	5.41547E-001	-2.66660E-002	-3.78708E-002	7.06309E-001	-4.38699E-002	2.14280E-003	-1.69610E-004	1.94153E-002	1.73042E-002	-8.52066E-004	-1.21010E-003	2.25689E-002	-1.40179E-003
	181	181	1.10003E+000	3.15761E-002	0.00000E+000	3.47347E-002	3.15040E-001	3.99756E-002	4.93008E+001	11	...........	6.67249E-002	-5.25139E-003	6.07618E-001	5.41585E-001	-2.65974E-002	-3.78829E-002	7.06255E-001	-4.38231E-002	2.10691E-003	-1.65818E-004	1.91862E-002	1.71011E-002	-8.39841E-004	-1.19619E-003	2.23008E-002	-1.38376E-003
	182	182	1.09996E+000	3.17135E-002	0.00000E+000	3.48837E-002	3.16404E-001	3.99215E-002	4.92086E+001	11	...........	6.66707E-002	-5.28125E-003	6.07585E-001	5.41697E-001	-2.66037E-002	-3.78724E-002	7.06242E-001	-4.38817E-002	2.11436E-003	-1.67487E-004	1.92687E-002	1.71791E-002	-8.43699E-004	-1.20107E-003	2.23974E-002	-1.39164E-003
	183	183	1.10002E+000	3.17243E-002	0.00000E+000	3.48976E-002	3.16514E-001	3.99651E-002	4.63489E+001	11	...........	6.67157E-002	-5.26000E-003	6.07652E-001	5.41527E-001	-2.66511E-002	-3.78383E-002	7.06325E-001	-4.38504E-002	2.11651E-003	-1.66870E-004	1.92774E-002	1.71796E-002	-8.45489E-004	-1.20040E-003	2.24077E-002	-1.39113E-003
	184	184	1.10004E+000	3.13280E-002	0.00000E+000	3.44619E-002	3.12572E-001	3.96471E-002	4.79887E+001	11	...........	6.61968E-002	-5.23278E-003	6.07498E-001	5.41463E-001	-2.66124E-002	-3.78229E-002	7.06369E-001	-4.37732E-002	2.07381E-003	-1.63932E-004	1.90317E-002	1.69629E-002	-8.33712E-004	-1.18492E-003	2.21291E-002	-1.37133E-003
	185	185	1.09996E+000	3.15089E-002	0.00000E+000	3.46586E-002	3.14370E-001	4.00015E-002	4.91832E+001	11	...........	6.67860E-002	-5.24903E-003	6.07695E-001	5.41367E-001	-2.65789E-002	-3.78129E-002	7.06402E-001	-4.37365E-002	2.10435E-003	-1.65391E-004	1.91478E-002	1.70579E-002	-8.37472E-004	-1.19144E-003	2.22580E-002	-1.37809E-003
	186	186	1.10002E+000	3.15171E-002	0.00000E+000	3.46695E-002	3.14450E-001	3.98670E-002	4.92477E+001	11	...........	6.65687E-002	-5.26250E-003	6.07773E-001	5.41384E-001	-2.65887E-002	-3.78036E-002	7.06354E-001	-4.36783E-002	2.09805E-003	-1.65859E-004	1.91552E-002	1.70629E-002	-8.38000E-004	-1.19146E-003	2.22622E-002	-1.37661E-003
	187	187	1.10004E+000	3.11576E-002	0.00000E+000	3.42745E-002	3.10876E-001	3.99109E-002	4.92381E+001	11	...........	6.66454E-002	-5.26903E-003	6.07776E-001	5.41369E-001	-2.66168E-002	-3.78201E-002	7.06350E-001	-4.37742E-002	2.07651E-003	-1.64170E-004	1.89368E-002	1.68677E-002	-8.29315E-004	-1.17838E-003	2.20081E-002	-1.36390E-003
	188	188	1.09996E+000	3.12753E-002	0.00000E+000	3.44017E-002	3.12048E-001	3.98583E-002	4.86246E+001	11	...........	6.65515E-002	-5.29111E-003	6.07714E-001	5.41408E-001	-2.66757E-002	-3.78299E-002	7.06384E-001	-4.37431E-002	2.08142E-003	-1.65481E-004	1.90064E-002	1.69327E-002	-8.34291E-004	-1.18314E-003	2.20924E-002	-1.36808E-003
	189	189	1.10002E+000	3.12817E-002	0.00000E+000	3.44104E-002	3.12109E-001	3.97679E-002	4.85336E+001	11	...........	6.64268E-002	-5.30153E-003	6.07804E-001	5.41415E-001	-2.66869E-002	-3.78256E-002	7.06381E-001	-4.37197E-002	2.07794E-003	-1.65841E-004	1.90131E-002	1.69364E-002	-8.34812E-004	-1.18325E-003	2.20968E-002	-1.36762E-003
	190	190	1.10004E+000	3.09338E-002	0.00000E+000	3.40285E-002	3.08648E-001	3.97977E-002	4.75225E+001	11	...........	6.64499E-002	-5.25653E-003	6.07838E-001	5.41459E-001	-2.66262E-002	-3.78431E-002	7.06305E-001	-4.37356E-002	2.05555E-003	-1.62605E-004	1.88028E-002	1.67494E-002	-8.23652E-004	-1.17063E-003	2.18487E-002	-1.35291E-003
	191	191	1.09996E+000	3.10275E-002	0.00000E+000	3.41292E-002	3.09578E-001	3.95667E-002	4.58814E+001	11	...........	6.60750E-002	-5.20097E-003	6.07848E-001	5.41429E-001	-2.65875E-002	-3.78203E-002	7.06330E-001	-4.38150E-002	2.05014E-003	-1.61373E-004	1.88600E-002	1.67992E-002	-8.24945E-004	-1.17347E-003	2.19157E-002	-1.35947E-003
	192	192	1.10002E+000	3.11132E-002	0.00000E+000	3.42250E-002	3.10435E-001	3.99616E-002	4.88053E+001	11	...........	6.67201E-002	-5.18958E-003	6.07974E-001	5.41399E-001	-2.66053E-002	-3.77696E-002	7.06211E-001	-4.39042E-002	2.07588E-003	-1.61464E-004	1.89160E-002	1.68447E-002	-8.27775E-004	-1.17513E-003	2.19725E-002	-1.36600E-003
	193	193	1.10004E+000	3.07742E-002	0.00000E+000	3.38530E-002	3.07067E-001	3.97918E-002	4.92532E+001	11	...........	6.64506E-002	-5.20278E-003	6.07962E-001	5.41420E-001	-2.66286E-002	-3.77374E-002	7.06199E-001	-4.39576E-002	2.04497E-003	-1.60112E-004	1.87096E-002	1.66618E-002	-8.19475E-004	-1.16134E-003	2.17327E-002	-1.35276E-003
	194	194	1.09996E+000	3.08707E-002	0.00000E+000	3.39566E-002	3.08031E-001	3.97852E-002	4.87136E+001	11	...........	6.64418E-002	-5.21486E-003	6.07804E-001	5.41396E-001	-2.66022E-002	-3.77347E-002	7.06246E-001	-4.37371E-002	2.05111E-003	-1.60987E-004	1.87634E-002	1.67133E-002	-8.21230E-004	-1.16490E-003	2.18023E-002	-1.35020E-003
	195	195	1.10002E+000	3.08867E-002	0.00000E+000	3.39758E-002	3.08185E-001	3.96400E-002	4.83426E+001	11	...........	6.62028E-002	-5.25264E-003	6.07642E-001	5.41294E-001	-2.66397E-002	-3.77437E-002	7.06211E-001	-4.36868E-002	2.04478E-003	-1.62236E-004	1.87680E-002	1.67188E-002	-8.22812E-004	-1.16578E-003	2.18125E-002	-1.34934E-003
	196	196	1.10005E+000	3.05445E-002	0.00000E+000	3.36004E-002	3.04785E-001	3.98664E-002	4.89227E+001	11	...........	6.65628E-002	-5.23792E-003	6.07670E-001	5.41130E-001	-2.66886E-002	-3.77736E-002	7.06293E-001	-4.37307E-002	2.03312E-003	-1.59989E-004	1.85610E-002	1.65285E-002	-8.15189E-004	-1.15377E-003	2.15733E-002	-1.33573E-003
	197	197	1.09996E+000	3.06136E-002	0.00000E+000	3.36737E-002	3.05471E-001	3.94737E-002	4.74845E+001	11	...........	6.59235E-002	-5.22194E-003	6.07740E-001	5.41120E-001	-2.66562E-002	-3.77837E-002	7.06306E-001	-4.37911E-002	2.01816E-003	-1.59863E-004	1.86051E-002	1.65656E-002	-8.16044E-004	-1.15670E-003	2.16226E-002	-1.34060E-003
	198	198	1.10001E+000	3.06654E-002	0.00000E+000	3.37323E-002	3.05988E-001	3.98124E-002	4.85647E+001	11	...........	6.64633E-002	-5.21125E-003	6.07545E-001	5.41163E-001	-2.66311E-002	-3.77726E-002	7.06293E-001	-4.37799E-002	2.03812E-003	-1.59805E-004	1.86306E-002	1.65950E-002	-8.16653E-004	-1.15831E-003	2.16587E-002	-1.34253E-003
	199	199	1.10005E+000	3.03442E-002	0.00000E+000	3.33802E-002	3.02797E-001	3.96816E-002	4.89572E+001	11	...........	6.62803E-002	-5.23194E-003	6.07512E-001	5.40938E-001	-2.66401E-002	-3.77435E-002	7.06257E-001	-4.38036E-002	2.01122E-003	-1.58759E-004	1.84345E-002	1.64143E-002	-8.08374E-004	-1.14530E-003	2.14308E-002	-1.32919E-003
	200	200	1.09996E+000	3.04333E-002	0.00000E+000	3.34754E-002	3.03681E-001	3.97211E-002	4.90302E+001	11	...........	6.63453E-002	-5.25569E-003	6.07376E-001	5.40820E-001	-2.66181E-002	-3.77567E-002	7.06322E-001	-4.38467E-002	2.01911E-003	-1.59948E-004	1.84844E-002	1.64589E-002	-8.10075E-004	-1.14906E-003	2.14957E-002	-1.33440E-003
	201	201	1.10001E+000	3.04600E-002	0.00000E+000	3.35064E-002	3.03944E-001	3.97181E-002	4.90122E+001	11	...........	6.63375E-002	-5.29347E-003	6.07350E-001	5.40815E-001	-2.66921E-002	-3.77953E-002	7.06352E-001	-4.39164E-002	2.02064E-003	-1.61239E-004	1.84999E-002	1.64732E-002	-8.13041E-004	-1.15124E-003	2.15155E-002	-1.33769E-003
	202	202	1.10005E+000	3.01492E-002	0.00000E+000	3.31656E-002	3.00857E-001	3.96212E-002	4.83883E+001	11	...........	6.61808E-002	-5.28889E-003	6.07333E-001	5.41069E-001	-2.66169E-002	-3.78092E-002	7.06418E-001	-4.39408E-002	1.99530E-003	-1.59456E-004	1.83106E-002	1.63128E-002	-8.02478E-004	-1.13991E-003	2.12979E-002	-1.32478E-003
	203	203	1.09996E+000	3.01971E-002	0.00000E+000	3.32155E-002	3.01332E-001	3.95343E-002	4.62288E+001	11	...........	6.60033E-002	-5.25264E-003	6.07365E-001	5.41212E-001	-2.65882E-002	-3.78253E-002	7.06366E-001	-4.38381E-002	1.99311E-003	-1.58614E-004	1.83407E-002	1.63430E-002	-8.02886E-004	-1.14221E-003	2.13302E-002	-1.32378E-003
	204	204	1.10001E+000	3.02119E-002	0.00000E+000	3.32334E-002	3.01479E-001	3.94190E-002	4.72343E+001	11	...........	6.58375E-002	-5.22292E-003	6.07213E-001	5.41188E-001	-2.66079E-002	-3.77887E-002	7.06351E-001	-4.38340E-002	1.98907E-003	-1.57794E-004	1.83451E-002	1.63503E-002	-8.03875E-004	-1.14167E-003	2.13402E-002	-1.32431E-003
	205	205	1.10005E+000	2.99721E-002	0.00000E+000	3.29709E-002	2.99098E-001	3.97830E-002	4.90666E+001	11	...........	6.64490E-002	-5.29403E-003	6.07328E-001	5.41132E-001	-2.66287E-002	-3.78156E-002	7.06361E-001	-4.38764E-002	1.99162E-003	-1.58673E-004	1.82029E-002	1.62189E-002	-7.98120E-004	-1.13341E-003	2.11711E-002	-1.31507E-003
	206	206	1.09996E+000	2.99770E-002	0.00000E+000	3.29735E-002	2.99146E-001	3.95394E-002	4.81379E+001	11	...........	6.60149E-002	-5.32167E-003	6.07260E-001	5.41218E-001	-2.67067E-002	-3.78685E-002	7.06424E-001	-4.38493E-002	1.97893E-003	-1.59528E-004	1.82039E-002	1.62241E-002	-8.00586E-004	-1.13518E-003	2.11765E-002	-1.31447E-003
	207	207	1.10001E+000	3.00543E-002	0.00000E+000	3.30600E-002	2.99911E-001	3.95291E-002	4.89173E+001	11	...........	6.59921E-002	-5.31431E-003	6.07213E-001	5.41220E-001	-2.66658E-002	-3.78768E-002	7.06405E-001	-4.38535E-002	1.98335E-003	-1.59718E-004	1.82494E-002	1.62660E-002	-8.01423E-004	-1.13836E-003	2.12305E-002	-1.31799E-003
	208	208	1.10006E+000	2.97538E-002	0.00000E+000	3.27308E-002	2.96926E-001	3.95431E-002	4.88327E+001	11	...........	6.60221E-002	-5.31486E-003	6.07340E-001	5.41101E-001	-2.66676E-002	-3.78307E-002	7.06469E-001	-4.39086E-002	1.96441E-003	-1.58137E-004	1.80707E-002	1.60998E-002	-7.93463E-004	-1.12561E-003	2.10201E-002	-1.30645E-003
	209	209	1.09996E+000	2.97657E-002	0.00000E+000	3.27410E-002	2.97044E-001	3.93370E-002	4.79405E+001	11	...........	6.56958E-002	-5.28292E-003	6.07498E-001	5.41035E-001	-2.67347E-002	-3.77807E-002	7.06445E-001	-4.38978E-002	1.95548E-003	-1.57250E-004	1.80826E-002	1.61043E-002	-7.95778E-004	-1.12457E-003	2.10278E-002	-1.30665E-003
	210	210	1.10001E+000	2.98371E-002	0.00000E+000	3.28210E-002	2.97754E-001	3.97222E-002	4.93285E+001	11	...........	6.63224E-002	-5.23667E-003	6.07663E-001	5.40967E-001	-2.66686E-002	-3.77481E-002	7.06298E-001	-4.37443E-002	1.97887E-003	-1.56247E-004	1.81309E-002	1.61409E-002	-7.95714E-004	-1.12629E-003	2.10739E-002	-1.30520E-003
	211	211	1.10006E+000	2.95372E-002	0.00000E+000	3.24926E-002	2.94769E-001	3.94877E-002	4.94342E+001	11	...........	6.59326E-002	-5.24444E-003	6.07497E-001	5.40703E-001	-2.67149E-002	-3.77768E-002	7.06370E-001	-4.37724E-002	1.94747E-003	-1.54906E-004	1.79438E-002	1.59709E-002	-7.89082E-004	-1.11582E-003	2.08642E-002	-1.29291E-003
	212	212	1.09996E+000	2.95851E-002	0.00000E+000	3.25424E-002	2.95249E-001	3.94547E-002	4.92221E+001	11	...........	6.58756E-002	-5.27653E-003	6.07499E-001	5.40657E-001	-2.67115E-002	-3.78085E-002	7.06479E-001	-4.38629E-002	1.94893E-003	-1.56107E-004	1.79729E-002	1.59954E-002	-7.90263E-004	-1.11857E-003	2.09013E-002	-1.29769E-003
	213	213	1.10000E+000	2.96222E-002	0.00000E+000	3.25846E-002	2.95618E-001	3.94253E-002	4.87074E+001	11	...........	6.58407E-002	-5.24931E-003	6.07409E-001	5.40776E-001	-2.66536E-002	-3.78197E-002	7.06475E-001	-4.38111E-002	1.95035E-003	-1.55496E-004	1.79928E-002	1.60190E-002	-7.89539E-004	-1.12030E-003	2.09274E-002	-1.29778E-003
	214	214	1.10006E+000	2.92936E-002	0.00000E+000	3.22247E-002	2.92347E-001	3.93541E-002	4.53344E+001	11	...........	6.56947E-002	-5.25319E-003	6.07451E-001	5.40785E-001	-2.67350E-002	-3.77985E-002	7.06513E-001	-4.37304E-002	1.92444E-003	-1.53885E-004	1.77944E-002	1.58415E-002	-7.83165E-004	-1.10725E-003	2.06963E-002	-1.28102E-003
	215	215	1.09996E+000	2.93759E-002	0.00000E+000	3.23123E-002	2.93164E-001	3.94095E-002	4.82241E+001	11	...........	6.57772E-002	-5.27681E-003	6.07290E-001	5.40759E-001	-2.67379E-002	-3.77804E-002	7.06570E-001	-4.37500E-002	1.93227E-003	-1.55011E-004	1.78397E-002	1.58853E-002	-7.85451E-004	-1.10983E-003	2.07562E-002	-1.28520E-003
	216	216	1.10000E+000	2.94278E-002	0.00000E+000	3.23707E-002	2.93684E-001	3.94338E-002	4.92035E+001	11	...........	6.58361E-002	-5.23986E-003	6.07255E-001	5.40432E-001	-2.66636E-002	-3.77789E-002	7.06625E-001	-4.38131E-002	1.93741E-003	-1.54198E-004	1.78702E-002	1.59037E-002	-7.84651E-004	-1.11175E-003	2.07944E-002	-1.28932E-003
	217	217	1.10006E+000	2.91561E-002	0.00000E+000	3.20735E-002	2.90983E-001	3.94507E-002	4.90412E+001	11	...........	6.58771E-002	-5.22028E-003	6.07222E-001	5.40509E-001	-2.66701E-002	-3.77950E-002	7.06655E-001	-4.37499E-002	1.92072E-003	-1.52203E-004	1.77042E-002	1.57591E-002	-7.77597E-004	-1.10195E-003	2.06033E-002	-1.27557E-003
	218	218	1.09996E+000	2.91662E-002	0.00000E+000	3.20816E-002	2.91084E-001	3.93570E-002	4.91044E+001	11	...........	6.57118E-002	-5.26958E-003	6.07193E-001	5.40528E-001	-2.67182E-002	-3.78129E-002	7.06511E-001	-4.37210E-002	1.91656E-003	-1.53694E-004	1.77095E-002	1.57652E-002	-7.79269E-004	-1.10286E-003	2.06063E-002	-1.27518E-003
	219	219	1.10000E+000	2.92440E-002	0.00000E+000	3.21685E-002	2.91856E-001	3.93823E-002	4.82365E+001	11	...........	6.57586E-002	-5.29653E-003	6.07197E-001	5.40508E-001	-2.67156E-002	-3.78364E-002	7.06411E-001	-4.37249E-002	1.92305E-003	-1.54892E-004	1.77569E-002	1.58067E-002	-7.81271E-004	-1.10649E-003	2.06583E-002	-1.27869E-003
	220	220	1.10006E+000	2.89482E-002	0.00000E+000	3.18448E-002	2.88917E-001	3.93417E-002	4.90663E+001	11	...........	6.56839E-002	-5.29139E-003	6.07225E-001	5.40357E-001	-2.66769E-002	-3.78399E-002	7.06426E-001	-4.36965E-002	1.90143E-003	-1.53176E-004	1.75781E-002	1.56424E-002	-7.72250E-004	-1.09540E-003	2.04498E-002	-1.26494E-003
	221	221	1.09996E+000	2.89516E-002	0.00000E+000	3.18456E-002	2.88949E-001	3.93928E-002	4.91752E+001	11	...........	6.57833E-002	-5.21278E-003	6.07262E-001	5.40372E-001	-2.66200E-002	-3.78297E-002	7.06464E-001	-4.36817E-002	1.90454E-003	-1.50918E-004	1.75812E-002	1.56447E-002	-7.70693E-004	-1.09523E-003	2.04533E-002	-1.26466E-003
	222	222	1.10000E+000	2.90288E-002	0.00000E+000	3.19317E-002	2.89715E-001	3.93883E-002	4.66444E+001	11	...........	6.57496E-002	-5.22806E-003	6.07267E-001	5.40552E-001	-2.66282E-002	-3.78246E-002	7.06489E-001	-4.38093E-002	1.90863E-003	-1.51764E-004	1.76282E-002	1.56916E-002	-7.72984E-004	-1.09800E-003	2.05085E-002	-1.27173E-003
	223	223	1.10006E+000	2.87182E-002	0.00000E+000	3.15918E-002	2.86630E-001	3.89761E-002	4.78461E+001	11	...........	6.50832E-002	-5.20472E-003	6.07199E-001	5.40728E-001	-2.66985E-002	-3.77737E-002	7.06571E-001	-4.38568E-002	1.86907E-003	-1.49470E-004	1.74377E-002	1.55287E-002	-7.66732E-004	-1.08479E-003	2.02915E-002	-1.25949E-003
	224	224	1.09996E+000	2.87769E-002	0.00000E+000	3.16534E-002	2.87214E-001	3.95113E-002	4.92363E+001	11	...........	6.59650E-002	-5.21514E-003	6.07410E-001	5.40709E-001	-2.67064E-002	-3.77647E-002	7.06634E-001	-4.38142E-002	1.89827E-003	-1.50075E-004	1.74794E-002	1.55599E-002	-7.68526E-004	-1.08675E-003	2.03347E-002	-1.26083E-003
	225	225	1.10000E+000	2.88377E-002	0.00000E+000	3.17214E-002	2.87817E-001	3.92582E-002	4.92735E+001	11	...........	6.55471E-002	-5.24486E-003	6.07521E-001	5.40719E-001	-2.66621E-002	-3.77508E-002	7.06602E-001	-4.37636E-002	1.89022E-003	-1.51250E-004	1.75195E-002	1.55931E-002	-7.68872E-004	-1.08865E-003	2.03767E-002	-1.26204E-003
	226	225.807	1.10008E+000	2.85681E-002	0.00000E+000	3.14271E-002	2.85138E-001	3.93134E-002	4.92533E+001	11	...........	6.56105E-002	-5.29459E-003	6.07602E-001	5.40604E-001	-2.66107E-002	-3.77588E-002	7.06474E-001	-4.38815E-002	1.87437E-003	-1.51257E-004	1.73580E-002	1.54440E-002	-7.60217E-004	-1.07870E-003	2.01826E-002	-1.25361E-003
STARTTIMEOFFSET	QUANT	634584.4	Start Time Offset (s)
