EXPLAIN
TAG	PWR800_CHARGE
TITLE	LABEL	PWR Charge	Test Identifier
DATE	LABEL	10/15/2022	Date
TIME	LABEL	21:27:39	Time
NOTES	NOTES	1	Notes...
	
PSTAT	PSTAT	REF3000-21114	Potentiostat
CAPACITY	QUANT	5.30000E-002	Capacity (A-hr)
CELLTYPE	SELECTOR	1	Cell Type
WORKINGCONNECTION	SELECTOR	0	Working Connection
MAXCHARGETIME	VARIABLEANDUNITS	7.20000E+003	s	2.00000E+000	hour(s)	Max Charge Time
CHARGEMODE	MULTIPARAM	0	1.00000E-001	Charge Mode	Constant Current	Amp(s)
CHARGECURRENT	QUANT	0.1	Charge Current (A)
VOLTAGEFINISH	TWOPARAM	T	2.50000E-002	7.20000E+003	Voltage Finish	I (A) <	Max Time(s)
SAMPLETIME	QUANT	1.00000E+000	Sample Period (s)
CHARGESTOPAT1	MULTIPARAM	2	1.10000E+000	Stop At 1	|Voltage| > Limit	V
CHARGESTOPAT2	MULTIPARAM	0	0.00000E+000	Stop At 2	None	N/A
AESELECTOR	AESELECTOR	0x1	T	Set Limits	AE Channels
AESBHCSELECTOR	TOGGLE	F	Save Both Half Cells
IRCOMP	TOGGLE	F	IR Measure
EOC	QUANT	0.2769521	Open Circuit (V)
SEQUENCER	TOGGLE	TRUE	Run as Sequence
PSTATMODEL	IQUANT	5	Pstat Model
PSTATSECTION	LABEL	REF3000-21114	Pstat Section
PSTATSERIALNO	LABEL	21114	Pstat Serial Number
CTRLMODE	IQUANT	0	Control Mode
ELECTROMETER	IQUANT	0	RE=0 or CS=1
IESTAB	IQUANT	0	I/E Stability
CASPEED	IQUANT	4	Control Amp Speed
CONVENTION	IQUANT	1	Current Convention
ICHRANGE	IQUANT	2	Ich Range
ICHRANGEMODE	TOGGLE	T	Ich Auto Range
ICHOFFSETENABLE	TOGGLE	F	Ich Offset Enable
ICHOFFSET	QUANT	0	Ich Offset (V)
ICHFILTER	IQUANT	1	Ich Filter
VCHRANGE	IQUANT	3	Vch Range
VCHRANGEMODE	TOGGLE	T	Vch Auto Range
VCHOFFSETENABLE	TOGGLE	F	Vch Offset Enable
VCHOFFSET	QUANT	0	Vch Offset (V)
VCHFILTER	IQUANT	1	Vch Filter
ACHRANGE	IQUANT	2	Ach Range
ACHOFFSETENABLE	TOGGLE	F	Ach Offset Enable
ACHOFFSET	QUANT	0	Ach Offset (V)
ACHFILTER	IQUANT	1	Ach Filter
IERANGELOWERLIMIT	IQUANT	9	I/E Range Lower Limit
IERANGEMODE	TOGGLE	F	I/E AutoRange
IERANGE	IQUANT	9	I/E Range
POSFEEDENABLE	TOGGLE	F	Positive Feedback IR Comp
POSFEEDRESISTANCE	QUANT	0	Positive Feedback Resistance (ohm)
ACHSELECT	IQUANT	1	Ach Select
SENSECABLEID	IQUANT	13	Sense Cable ID
PWRCABLEID	IQUANT	13	Power Cable ID
DCCALDATE	LABEL		DC Calibration Date
ACCALDATE	LABEL		AC Calibration Date
THERMOSELECT	IQUANT	1	Thermo Select
FRAMEWORKVERSION	LABEL	7.8.6	Framework Version
INSTRUMENTVERSION	LABEL	4.50	Instrument Version
COMPLIANCEVOLTAGE	IQUANT	0	Compliance Voltage
CURVE	TABLE	91
	Pt	T	Vf	Im	Vu	Pwr	Sig	Ach	Temp	IERange	Over	Vf1	Vf2	Vf3	Vf4	Vf5	Vf6	Vf7	Vf8	Pwr1	Pwr2	Pwr3	Pwr4	Pwr5	Pwr6	Pwr7	Pwr8
	#	s	V	A	V	W	V	V	deg C	#	bits	V	V	V	V	V	V	V	V	W	W	W	W	W	W	W	W
	0	1	5.63658E-001	9.98691E-002	0.00000E+000	5.62920E-002	9.94000E-001	3.87915E-002	4.06570E+001	11	...........	6.46479E-002	-4.27514E-003	5.79891E-001	6.06038E-001	-2.83889E-002	-3.88335E-002	6.66761E-001	-4.36999E-002	6.45633E-003	-4.26954E-004	5.79132E-002	6.05245E-002	-2.83517E-003	-3.87826E-003	6.65888E-002	-4.36427E-003
	1	2	7.88892E-001	9.98701E-002	0.00000E+000	7.87867E-002	9.94000E-001	3.91389E-002	4.44786E+001	11	...........	6.52265E-002	-4.29750E-003	5.80137E-001	6.05955E-001	-2.83847E-002	-3.88485E-002	6.66804E-001	-4.36496E-002	6.51418E-003	-4.29192E-004	5.79384E-002	6.05168E-002	-2.83479E-003	-3.87980E-003	6.65938E-002	-4.35929E-003
	2	2.19167	1.05255E+000	9.98713E-002	0.00000E+000	1.05119E-001	9.94000E-001	4.00939E-002	5.02423E+001	11	...........	6.67985E-002	-4.42609E-003	5.80355E-001	6.05951E-001	-2.84362E-002	-3.87246E-002	6.66841E-001	-4.36645E-002	6.67126E-003	-4.42039E-004	5.79608E-002	6.05171E-002	-2.83996E-003	-3.86748E-003	6.65982E-002	-4.36083E-003
	3	3	1.10119E+000	6.64279E-002	0.00000E+000	7.31496E-002	6.61506E-001	3.91810E-002	4.92195E+001	11	...........	6.52962E-002	-4.51735E-003	5.80121E-001	6.05743E-001	-2.84706E-002	-3.89684E-002	6.66635E-001	-4.37067E-002	4.33749E-003	-3.00078E-004	3.85362E-002	4.02382E-002	-1.89124E-003	-2.58859E-003	4.42832E-002	-2.90334E-003
	4	4	1.10064E+000	4.89003E-002	0.00000E+000	5.38218E-002	4.87240E-001	3.89852E-002	4.85862E+001	11	...........	6.49228E-002	-4.55181E-003	5.80011E-001	6.05562E-001	-2.85328E-002	-3.89847E-002	6.66536E-001	-4.36492E-002	3.17474E-003	-2.22585E-004	2.83627E-002	2.96122E-002	-1.39526E-003	-1.90637E-003	3.25938E-002	-2.13446E-003
	5	5	1.10054E+000	4.37496E-002	0.00000E+000	4.81481E-002	4.36037E-001	3.91113E-002	4.72617E+001	11	...........	6.51507E-002	-4.47097E-003	5.79905E-001	6.05601E-001	-2.85718E-002	-3.90565E-002	6.66516E-001	-4.36132E-002	2.85032E-003	-1.95603E-004	2.53706E-002	2.64949E-002	-1.25001E-003	-1.70871E-003	2.91598E-002	-1.90806E-003
	6	6	1.10059E+000	4.09926E-002	0.00000E+000	4.51161E-002	4.08624E-001	3.91774E-002	4.86016E+001	11	...........	6.52549E-002	-4.35319E-003	5.80007E-001	6.05551E-001	-2.85928E-002	-3.90264E-002	6.66488E-001	-4.35542E-002	2.67497E-003	-1.78449E-004	2.37760E-002	2.48231E-002	-1.17209E-003	-1.59979E-003	2.73211E-002	-1.78540E-003
	7	7	1.10057E+000	3.88515E-002	0.00000E+000	4.27588E-002	3.87354E-001	3.88092E-002	4.72562E+001	11	...........	6.46758E-002	-4.43264E-003	5.80088E-001	6.05388E-001	-2.86619E-002	-3.90889E-002	6.66321E-001	-4.35469E-002	2.51275E-003	-1.72215E-004	2.25373E-002	2.35203E-002	-1.11356E-003	-1.51866E-003	2.58876E-002	-1.69187E-003
	8	8	1.10051E+000	3.78429E-002	0.00000E+000	4.16463E-002	3.77330E-001	3.90865E-002	4.67064E+001	11	...........	6.51342E-002	-4.40653E-003	5.79837E-001	6.05407E-001	-2.86474E-002	-3.90471E-002	6.66510E-001	-4.36149E-002	2.46486E-003	-1.66756E-004	2.19427E-002	2.29103E-002	-1.08410E-003	-1.47765E-003	2.52226E-002	-1.65051E-003
	9	9	1.10057E+000	3.69427E-002	0.00000E+000	4.06580E-002	3.68376E-001	3.89164E-002	4.59656E+001	11	...........	6.48346E-002	-4.38111E-003	5.79970E-001	6.05501E-001	-2.86582E-002	-3.90510E-002	6.66646E-001	-4.36511E-002	2.39516E-003	-1.61850E-004	2.14256E-002	2.23688E-002	-1.05871E-003	-1.44265E-003	2.46277E-002	-1.61259E-003
	10	10	1.10056E+000	3.59733E-002	0.00000E+000	3.95910E-002	3.58741E-001	3.89015E-002	4.57896E+001	11	...........	6.48797E-002	-4.44319E-003	5.79936E-001	6.05416E-001	-2.86979E-002	-3.90799E-002	6.66629E-001	-4.37387E-002	2.33394E-003	-1.59837E-004	2.08622E-002	2.17788E-002	-1.03236E-003	-1.40583E-003	2.39809E-002	-1.57343E-003
	11	11	1.10050E+000	3.56787E-002	0.00000E+000	3.92644E-002	3.55821E-001	3.89467E-002	4.53742E+001	11	...........	6.49387E-002	-4.43194E-003	5.79902E-001	6.05515E-001	-2.87321E-002	-3.91128E-002	6.66587E-001	-4.37775E-002	2.31693E-003	-1.58126E-004	2.06902E-002	2.16040E-002	-1.02512E-003	-1.39549E-003	2.37830E-002	-1.56193E-003
	12	12	1.10056E+000	3.53453E-002	0.00000E+000	3.88997E-002	3.52511E-001	3.90231E-002	4.70335E+001	11	...........	6.50087E-002	-4.48875E-003	5.79828E-001	6.05578E-001	-2.87676E-002	-3.91836E-002	6.66547E-001	-4.38736E-002	2.29775E-003	-1.58656E-004	2.04942E-002	2.14043E-002	-1.01680E-003	-1.38496E-003	2.35593E-002	-1.55073E-003
	13	13	1.10056E+000	3.47478E-002	0.00000E+000	3.82422E-002	3.46555E-001	3.89127E-002	4.56930E+001	11	...........	6.47906E-002	-4.42194E-003	5.79783E-001	6.05633E-001	-2.86494E-002	-3.90819E-002	6.66605E-001	-4.37087E-002	2.25133E-003	-1.53653E-004	2.01462E-002	2.10444E-002	-9.95505E-004	-1.35801E-003	2.31631E-002	-1.51878E-003
	14	14	1.10050E+000	3.46471E-002	0.00000E+000	3.81291E-002	3.45550E-001	3.85141E-002	4.51347E+001	11	...........	6.42119E-002	-4.22542E-003	5.79920E-001	6.05639E-001	-2.86472E-002	-3.90603E-002	6.66540E-001	-4.35758E-002	2.22476E-003	-1.46398E-004	2.00925E-002	2.09836E-002	-9.92543E-004	-1.35333E-003	2.30937E-002	-1.50978E-003
	15	15	1.10055E+000	3.45506E-002	0.00000E+000	3.80248E-002	3.44592E-001	3.93515E-002	4.66003E+001	11	...........	6.55535E-002	-4.27708E-003	5.80019E-001	6.05483E-001	-2.86462E-002	-3.90821E-002	6.66561E-001	-4.35760E-002	2.26491E-003	-1.47776E-004	2.00400E-002	2.09198E-002	-9.89744E-004	-1.35031E-003	2.30301E-002	-1.50557E-003
	16	16	1.10057E+000	3.40638E-002	0.00000E+000	3.74895E-002	3.39753E-001	3.87088E-002	4.54866E+001	11	...........	6.44996E-002	-4.41319E-003	5.79931E-001	6.05583E-001	-2.86660E-002	-3.90990E-002	6.66511E-001	-4.36726E-002	2.19710E-003	-1.50330E-004	1.97547E-002	2.06285E-002	-9.76472E-004	-1.33186E-003	2.27039E-002	-1.48766E-003
	17	17	1.10049E+000	3.40946E-002	0.00000E+000	3.75209E-002	3.40059E-001	3.87570E-002	4.57045E+001	11	...........	6.46050E-002	-4.38194E-003	5.79967E-001	6.05628E-001	-2.86635E-002	-3.90908E-002	6.66544E-001	-4.36932E-002	2.20268E-003	-1.49401E-004	1.97737E-002	2.06487E-002	-9.77269E-004	-1.33279E-003	2.27256E-002	-1.48970E-003
	18	18	1.10055E+000	3.40457E-002	0.00000E+000	3.74691E-002	3.39569E-001	3.90759E-002	4.54427E+001	11	...........	6.51128E-002	-4.35069E-003	5.79949E-001	6.05712E-001	-2.86494E-002	-3.90625E-002	6.66495E-001	-4.36775E-002	2.21681E-003	-1.48122E-004	1.97447E-002	2.06219E-002	-9.75389E-004	-1.32991E-003	2.26913E-002	-1.48703E-003
	19	19	1.10057E+000	3.36143E-002	0.00000E+000	3.69948E-002	3.35276E-001	3.86782E-002	4.58094E+001	11	...........	6.44385E-002	-4.38667E-003	5.79855E-001	6.05724E-001	-2.86393E-002	-3.90162E-002	6.66470E-001	-4.36893E-002	2.16605E-003	-1.47455E-004	1.94914E-002	2.03610E-002	-9.62690E-004	-1.31150E-003	2.24029E-002	-1.46859E-003
	20	20	1.10050E+000	3.36972E-002	0.00000E+000	3.70836E-002	3.36115E-001	3.87583E-002	4.72758E+001	11	...........	6.47701E-002	-4.52375E-003	5.79941E-001	6.05762E-001	-2.87003E-002	-3.90796E-002	6.66475E-001	-4.36596E-002	2.18257E-003	-1.52438E-004	1.95423E-002	2.04125E-002	-9.67118E-004	-1.31687E-003	2.24583E-002	-1.47120E-003
	21	21	1.10055E+000	3.36370E-002	0.00000E+000	3.70191E-002	3.35524E-001	3.86000E-002	4.53047E+001	11	...........	6.46576E-002	-4.48222E-003	5.79913E-001	6.05855E-001	-2.87362E-002	-3.91069E-002	6.66494E-001	-4.37274E-002	2.17489E-003	-1.50768E-004	1.95065E-002	2.03791E-002	-9.66600E-004	-1.31544E-003	2.24188E-002	-1.47086E-003
	22	22	1.10057E+000	3.32790E-002	0.00000E+000	3.66260E-002	3.31961E-001	3.83688E-002	4.54234E+001	11	...........	6.42896E-002	-4.48889E-003	5.79910E-001	6.05875E-001	-2.87597E-002	-3.91111E-002	6.66532E-001	-4.38269E-002	2.13949E-003	-1.49386E-004	1.92988E-002	2.01629E-002	-9.57095E-004	-1.30158E-003	2.21815E-002	-1.45852E-003
	23	23	1.10049E+000	3.33318E-002	0.00000E+000	3.66814E-002	3.32503E-001	3.85442E-002	4.61406E+001	11	...........	6.46031E-002	-4.56847E-003	5.79853E-001	6.05820E-001	-2.88424E-002	-3.91710E-002	6.66444E-001	-4.39339E-002	2.15333E-003	-1.52275E-004	1.93275E-002	2.01931E-002	-9.61367E-004	-1.30564E-003	2.22138E-002	-1.46439E-003
	24	24	1.10055E+000	3.32874E-002	0.00000E+000	3.66343E-002	3.32059E-001	3.83122E-002	4.39666E+001	11	...........	6.41974E-002	-4.55625E-003	5.79825E-001	6.05892E-001	-2.88149E-002	-3.91892E-002	6.66331E-001	-4.38960E-002	2.13696E-003	-1.51666E-004	1.93008E-002	2.01685E-002	-9.59171E-004	-1.30450E-003	2.21804E-002	-1.46118E-003
	25	25	1.10058E+000	3.29675E-002	0.00000E+000	3.62832E-002	3.28874E-001	3.85614E-002	4.67810E+001	11	...........	6.45871E-002	-4.41347E-003	5.79749E-001	6.05908E-001	-2.87415E-002	-3.91278E-002	6.66334E-001	-4.38487E-002	2.12927E-003	-1.45501E-004	1.91129E-002	1.99753E-002	-9.47536E-004	-1.28994E-003	2.19673E-002	-1.44558E-003
	26	26	1.10049E+000	3.30426E-002	0.00000E+000	3.63632E-002	3.29626E-001	3.85847E-002	4.60687E+001	11	...........	6.46575E-002	-4.56125E-003	5.79731E-001	6.06019E-001	-2.87982E-002	-3.91640E-002	6.66290E-001	-4.37729E-002	2.13645E-003	-1.50716E-004	1.91559E-002	2.00245E-002	-9.51568E-004	-1.29408E-003	2.20160E-002	-1.44637E-003
	27	27	1.10054E+000	3.29850E-002	0.00000E+000	3.63014E-002	3.29050E-001	3.83229E-002	4.66191E+001	11	...........	6.42042E-002	-4.55042E-003	5.79770E-001	6.06151E-001	-2.87760E-002	-3.90767E-002	6.66323E-001	-4.37669E-002	2.11778E-003	-1.50096E-004	1.91237E-002	1.99939E-002	-9.49176E-004	-1.28894E-003	2.19787E-002	-1.44365E-003
	28	28	1.10058E+000	3.26647E-002	0.00000E+000	3.59501E-002	3.25867E-001	3.84520E-002	4.51839E+001	11	...........	6.44443E-002	-4.50278E-003	5.79707E-001	6.06109E-001	-2.87657E-002	-3.90787E-002	6.66446E-001	-4.38008E-002	2.10506E-003	-1.47082E-004	1.89360E-002	1.97984E-002	-9.39624E-004	-1.27650E-003	2.17693E-002	-1.43074E-003
	29	29	1.10049E+000	3.27316E-002	0.00000E+000	3.60209E-002	3.26528E-001	3.81737E-002	4.54879E+001	11	...........	6.39721E-002	-4.44847E-003	5.79612E-001	6.06092E-001	-2.87604E-002	-3.91074E-002	6.66495E-001	-4.37593E-002	2.09391E-003	-1.45606E-004	1.89716E-002	1.98383E-002	-9.41374E-004	-1.28005E-003	2.18155E-002	-1.43231E-003
	30	30	1.10054E+000	3.27481E-002	0.00000E+000	3.60406E-002	3.26691E-001	3.85523E-002	4.63940E+001	11	...........	6.46044E-002	-4.47944E-003	5.79621E-001	6.06190E-001	-2.87536E-002	-3.91335E-002	6.66509E-001	-4.37112E-002	2.11567E-003	-1.46693E-004	1.89815E-002	1.98516E-002	-9.41625E-004	-1.28155E-003	2.18269E-002	-1.43146E-003
	31	31	1.10058E+000	3.24148E-002	0.00000E+000	3.56751E-002	3.23369E-001	3.84684E-002	4.69089E+001	11	...........	6.44519E-002	-4.30667E-003	5.79560E-001	6.06337E-001	-2.86944E-002	-3.90587E-002	6.66472E-001	-4.36900E-002	2.08920E-003	-1.39600E-004	1.87863E-002	1.96543E-002	-9.30125E-004	-1.26608E-003	2.16035E-002	-1.41620E-003
	32	32	1.10049E+000	3.24740E-002	0.00000E+000	3.57374E-002	3.23952E-001	3.84040E-002	4.60355E+001	11	...........	6.43526E-002	-4.31181E-003	5.79464E-001	6.06418E-001	-2.86904E-002	-3.90411E-002	6.66432E-001	-4.36229E-002	2.08978E-003	-1.40021E-004	1.88175E-002	1.96928E-002	-9.31691E-004	-1.26782E-003	2.16417E-002	-1.41661E-003
	33	33	1.10054E+000	3.24987E-002	0.00000E+000	3.57661E-002	3.24196E-001	3.82339E-002	4.44980E+001	11	...........	6.40447E-002	-4.32500E-003	5.79702E-001	6.06354E-001	-2.87049E-002	-3.90096E-002	6.66562E-001	-4.37442E-002	2.08137E-003	-1.40557E-004	1.88395E-002	1.97057E-002	-9.32870E-004	-1.26776E-003	2.16624E-002	-1.42163E-003
	34	34	1.10058E+000	3.21505E-002	0.00000E+000	3.53843E-002	3.20727E-001	3.84813E-002	4.57576E+001	11	...........	6.44042E-002	-4.23681E-003	5.79853E-001	6.06394E-001	-2.86274E-002	-3.89493E-002	6.66678E-001	-4.39139E-002	2.07062E-003	-1.36215E-004	1.86425E-002	1.94959E-002	-9.20383E-004	-1.25224E-003	2.14340E-002	-1.41185E-003
	35	35	1.10049E+000	3.22311E-002	0.00000E+000	3.54700E-002	3.21529E-001	3.81967E-002	4.63556E+001	11	...........	6.39625E-002	-4.29389E-003	5.79894E-001	6.06330E-001	-2.86554E-002	-3.89958E-002	6.66597E-001	-4.38403E-002	2.06158E-003	-1.38397E-004	1.86906E-002	1.95427E-002	-9.23594E-004	-1.25688E-003	2.14851E-002	-1.41302E-003
	36	36	1.10054E+000	3.22442E-002	0.00000E+000	3.54860E-002	3.21659E-001	3.84957E-002	4.60148E+001	11	...........	6.44750E-002	-4.28181E-003	5.79803E-001	6.06522E-001	-2.86706E-002	-3.89826E-002	6.66578E-001	-4.38272E-002	2.07894E-003	-1.38063E-004	1.86953E-002	1.95568E-002	-9.24458E-004	-1.25696E-003	2.14932E-002	-1.41317E-003
	37	37	1.10059E+000	3.19309E-002	0.00000E+000	3.51427E-002	3.18554E-001	3.83334E-002	4.70413E+001	11	...........	6.41889E-002	-4.34778E-003	5.79879E-001	6.06399E-001	-2.87521E-002	-3.90443E-002	6.66558E-001	-4.37796E-002	2.04961E-003	-1.38829E-004	1.85161E-002	1.93629E-002	-9.18080E-004	-1.24672E-003	2.12838E-002	-1.39792E-003
	38	38	1.10049E+000	3.19523E-002	0.00000E+000	3.51632E-002	3.18770E-001	3.81140E-002	4.46684E+001	11	...........	6.38228E-002	-4.35417E-003	5.79557E-001	6.06360E-001	-2.87562E-002	-3.90464E-002	6.66519E-001	-4.38071E-002	2.03928E-003	-1.39125E-004	1.85182E-002	1.93746E-002	-9.18827E-004	-1.24762E-003	2.12968E-002	-1.39974E-003
	39	39	1.10054E+000	3.20143E-002	0.00000E+000	3.52329E-002	3.19387E-001	3.83760E-002	4.62367E+001	11	...........	6.42822E-002	-4.39153E-003	5.79378E-001	6.06406E-001	-2.87540E-002	-3.91028E-002	6.66492E-001	-4.38511E-002	2.05795E-003	-1.40592E-004	1.85484E-002	1.94137E-002	-9.20541E-004	-1.25185E-003	2.13373E-002	-1.40386E-003
	40	40	1.10059E+000	3.16953E-002	0.00000E+000	3.48835E-002	3.16220E-001	3.81821E-002	4.63514E+001	11	...........	6.39790E-002	-4.49458E-003	5.79402E-001	6.06417E-001	-2.87829E-002	-3.91290E-002	6.66329E-001	-4.38947E-002	2.02784E-003	-1.42457E-004	1.83644E-002	1.92206E-002	-9.12284E-004	-1.24021E-003	2.11195E-002	-1.39126E-003
	41	41	1.10049E+000	3.16839E-002	0.00000E+000	3.48679E-002	3.16105E-001	3.81113E-002	4.56344E+001	11	...........	6.38385E-002	-4.44903E-003	5.79363E-001	6.06321E-001	-2.87912E-002	-3.91256E-002	6.66414E-001	-4.38836E-002	2.02265E-003	-1.40963E-004	1.83565E-002	1.92106E-002	-9.12219E-004	-1.23965E-003	2.11146E-002	-1.39040E-003
	42	42	1.10054E+000	3.17499E-002	0.00000E+000	3.49419E-002	3.16772E-001	3.82452E-002	4.60418E+001	11	...........	6.41087E-002	-4.45819E-003	5.79519E-001	6.06316E-001	-2.88624E-002	-3.92132E-002	6.66336E-001	-4.39312E-002	2.03545E-003	-1.41547E-004	1.83997E-002	1.92505E-002	-9.16378E-004	-1.24502E-003	2.11561E-002	-1.39481E-003
	43	43	1.10059E+000	3.14548E-002	0.00000E+000	3.46188E-002	3.13837E-001	3.82180E-002	4.44993E+001	11	...........	6.40572E-002	-4.57722E-003	5.79597E-001	6.06316E-001	-2.88819E-002	-3.92203E-002	6.66395E-001	-4.38197E-002	2.01491E-003	-1.43976E-004	1.82311E-002	1.90716E-002	-9.08476E-004	-1.23367E-003	2.09613E-002	-1.37834E-003
	44	44	1.10049E+000	3.14859E-002	0.00000E+000	3.46499E-002	3.14153E-001	3.79191E-002	4.53051E+001	11	...........	6.35614E-002	-4.45958E-003	5.79426E-001	6.06264E-001	-2.89332E-002	-3.92171E-002	6.66415E-001	-4.39781E-002	2.00129E-003	-1.40414E-004	1.82437E-002	1.90888E-002	-9.10987E-004	-1.23478E-003	2.09827E-002	-1.38469E-003
	45	45	1.10053E+000	3.15453E-002	0.00000E+000	3.47167E-002	3.14742E-001	3.81536E-002	4.67242E+001	11	...........	6.39454E-002	-4.38361E-003	5.79428E-001	6.06188E-001	-2.89600E-002	-3.92475E-002	6.66531E-001	-4.39892E-002	2.01718E-003	-1.38282E-004	1.82782E-002	1.91224E-002	-9.13552E-004	-1.23807E-003	2.10259E-002	-1.38765E-003
	46	46	1.10059E+000	3.12227E-002	0.00000E+000	3.43634E-002	3.11532E-001	3.80392E-002	4.54257E+001	11	...........	6.37333E-002	-4.44681E-003	5.79305E-001	6.06179E-001	-2.89039E-002	-3.92000E-002	6.66609E-001	-4.39669E-002	1.98993E-003	-1.38841E-004	1.80875E-002	1.89265E-002	-9.02457E-004	-1.22393E-003	2.08133E-002	-1.37277E-003
	47	47	1.10049E+000	3.12612E-002	0.00000E+000	3.44026E-002	3.11921E-001	3.81221E-002	4.51793E+001	11	...........	6.39033E-002	-4.52347E-003	5.79284E-001	6.06021E-001	-2.89353E-002	-3.92733E-002	6.66557E-001	-4.39531E-002	1.99769E-003	-1.41409E-004	1.81091E-002	1.89449E-002	-9.04551E-004	-1.22773E-003	2.08374E-002	-1.37402E-003
	48	48	1.10053E+000	3.13035E-002	0.00000E+000	3.44506E-002	3.12342E-001	3.79541E-002	4.56438E+001	11	...........	6.36312E-002	-4.60611E-003	5.79120E-001	6.06074E-001	-2.89562E-002	-3.92872E-002	6.66356E-001	-4.40233E-002	1.99188E-003	-1.44188E-004	1.81285E-002	1.89723E-002	-9.06433E-004	-1.22983E-003	2.08593E-002	-1.37809E-003
	49	49	1.10059E+000	3.10199E-002	0.00000E+000	3.41402E-002	3.09531E-001	3.80895E-002	4.54388E+001	11	...........	6.38380E-002	-4.71861E-003	5.78921E-001	6.06004E-001	-2.89803E-002	-3.93368E-002	6.66199E-001	-4.40000E-002	1.98025E-003	-1.46371E-004	1.79581E-002	1.87982E-002	-8.98964E-004	-1.22022E-003	2.06654E-002	-1.36487E-003
	50	50	1.10049E+000	3.10350E-002	0.00000E+000	3.41538E-002	3.09680E-001	3.79200E-002	4.56462E+001	11	...........	6.35817E-002	-4.58917E-003	5.78858E-001	6.05953E-001	-2.89824E-002	-3.93150E-002	6.66250E-001	-4.39087E-002	1.97326E-003	-1.42425E-004	1.79649E-002	1.88057E-002	-8.99468E-004	-1.22014E-003	2.06771E-002	-1.36271E-003
	51	51	1.10053E+000	3.10810E-002	0.00000E+000	3.42056E-002	3.10139E-001	3.78648E-002	4.53469E+001	11	...........	6.34508E-002	-4.45306E-003	5.78839E-001	6.05975E-001	-2.89462E-002	-3.93275E-002	6.66427E-001	-4.39331E-002	1.97211E-003	-1.38405E-004	1.79909E-002	1.88343E-002	-8.99678E-004	-1.22234E-003	2.07132E-002	-1.36548E-003
	52	52	1.10059E+000	3.08066E-002	0.00000E+000	3.39055E-002	3.07395E-001	3.81520E-002	4.58026E+001	11	...........	6.39404E-002	-4.44556E-003	5.78825E-001	6.06113E-001	-2.88618E-002	-3.92287E-002	6.66526E-001	-4.39472E-002	1.96978E-003	-1.36952E-004	1.78316E-002	1.86722E-002	-8.89133E-004	-1.20850E-003	2.05334E-002	-1.35386E-003
	53	53	1.10049E+000	3.07657E-002	0.00000E+000	3.38574E-002	3.06992E-001	3.78264E-002	4.48671E+001	11	...........	6.33922E-002	-4.57042E-003	5.78876E-001	6.06251E-001	-2.88519E-002	-3.92357E-002	6.66292E-001	-4.40004E-002	1.95031E-003	-1.40612E-004	1.78096E-002	1.86518E-002	-8.87652E-004	-1.20712E-003	2.04990E-002	-1.35371E-003
	54	54	1.10053E+000	3.08725E-002	0.00000E+000	3.39761E-002	3.08051E-001	3.81253E-002	4.59497E+001	11	...........	6.38835E-002	-4.48931E-003	5.78915E-001	6.06437E-001	-2.88821E-002	-3.92549E-002	6.66386E-001	-4.39279E-002	1.97224E-003	-1.38596E-004	1.78725E-002	1.87222E-002	-8.91662E-004	-1.21190E-003	2.05730E-002	-1.35616E-003
	55	55	1.10059E+000	3.06264E-002	0.00000E+000	3.37072E-002	3.05603E-001	3.81327E-002	4.69921E+001	11	...........	6.38879E-002	-4.52292E-003	5.79064E-001	6.06545E-001	-2.88842E-002	-3.91914E-002	6.66516E-001	-4.39149E-002	1.95666E-003	-1.38521E-004	1.77347E-002	1.85763E-002	-8.84618E-004	-1.20029E-003	2.04130E-002	-1.34495E-003
	56	56	1.10049E+000	3.05574E-002	0.00000E+000	3.36282E-002	3.04922E-001	3.77794E-002	4.49848E+001	11	...........	6.33417E-002	-4.41639E-003	5.79132E-001	6.06455E-001	-2.89176E-002	-3.92221E-002	6.66371E-001	-4.38126E-002	1.93556E-003	-1.34954E-004	1.76968E-002	1.85317E-002	-8.83649E-004	-1.19853E-003	2.03626E-002	-1.33880E-003
	57	57	1.10053E+000	3.06378E-002	0.00000E+000	3.37177E-002	3.05724E-001	3.79233E-002	4.48675E+001	11	...........	6.35418E-002	-4.48333E-003	5.79061E-001	6.06407E-001	-2.89067E-002	-3.92454E-002	6.66309E-001	-4.37240E-002	1.94678E-003	-1.37359E-004	1.77411E-002	1.85789E-002	-8.85635E-004	-1.20239E-003	2.04142E-002	-1.33961E-003
	58	58	1.10059E+000	3.04174E-002	0.00000E+000	3.34772E-002	3.03534E-001	3.78863E-002	4.52035E+001	11	...........	6.35010E-002	-4.54972E-003	5.78930E-001	6.06330E-001	-2.89024E-002	-3.92442E-002	6.66220E-001	-4.38024E-002	1.93153E-003	-1.38391E-004	1.76095E-002	1.84430E-002	-8.79134E-004	-1.19370E-003	2.02647E-002	-1.33235E-003
	59	59	1.10049E+000	3.03631E-002	0.00000E+000	3.34144E-002	3.02991E-001	3.80565E-002	4.58390E+001	11	...........	6.37768E-002	-4.54639E-003	5.79024E-001	6.06060E-001	-2.88794E-002	-3.92379E-002	6.66256E-001	-4.37233E-002	1.93646E-003	-1.38042E-004	1.75810E-002	1.84019E-002	-8.76870E-004	-1.19139E-003	2.02296E-002	-1.32758E-003
	60	60	1.10053E+000	3.04567E-002	0.00000E+000	3.35184E-002	3.03919E-001	3.79707E-002	4.63504E+001	11	...........	6.36164E-002	-4.53333E-003	5.78954E-001	6.06038E-001	-2.88425E-002	-3.92187E-002	6.66231E-001	-4.38017E-002	1.93754E-003	-1.38070E-004	1.76330E-002	1.84579E-002	-8.78447E-004	-1.19447E-003	2.02912E-002	-1.33405E-003
	61	61	1.10059E+000	3.01798E-002	0.00000E+000	3.32157E-002	3.01161E-001	3.78921E-002	4.42881E+001	11	...........	6.34947E-002	-4.51486E-003	5.78944E-001	6.06218E-001	-2.88357E-002	-3.91562E-002	6.66239E-001	-4.38261E-002	1.91626E-003	-1.36258E-004	1.74724E-002	1.82956E-002	-8.70257E-004	-1.18173E-003	2.01070E-002	-1.32267E-003
	62	62	1.10049E+000	3.01224E-002	0.00000E+000	3.31495E-002	3.00593E-001	3.77281E-002	4.34753E+001	11	...........	6.31760E-002	-4.50972E-003	5.78718E-001	6.06398E-001	-2.88429E-002	-3.91987E-002	6.66253E-001	-4.38250E-002	1.90301E-003	-1.35844E-004	1.74324E-002	1.82662E-002	-8.68817E-004	-1.18076E-003	2.00691E-002	-1.32011E-003
	63	63	1.10053E+000	3.02442E-002	0.00000E+000	3.32845E-002	3.01806E-001	3.79610E-002	4.60100E+001	11	...........	6.35907E-002	-4.48389E-003	5.78718E-001	6.06441E-001	-2.88322E-002	-3.92211E-002	6.66367E-001	-4.37508E-002	1.92325E-003	-1.35611E-004	1.75028E-002	1.83413E-002	-8.72006E-004	-1.18621E-003	2.01537E-002	-1.32321E-003
	64	64	1.10059E+000	2.99895E-002	0.00000E+000	3.30062E-002	2.99278E-001	3.80565E-002	4.50174E+001	11	...........	6.37599E-002	-4.58903E-003	5.78722E-001	6.06534E-001	-2.88742E-002	-3.91892E-002	6.66412E-001	-4.37761E-002	1.91212E-003	-1.37622E-004	1.73556E-002	1.81896E-002	-8.65921E-004	-1.17526E-003	1.99853E-002	-1.31282E-003
	65	65	1.10050E+000	2.99108E-002	0.00000E+000	3.29167E-002	2.98493E-001	3.78557E-002	4.55121E+001	11	...........	6.34376E-002	-4.53236E-003	5.78539E-001	6.06595E-001	-2.88675E-002	-3.91283E-002	6.66300E-001	-4.38186E-002	1.89747E-003	-1.35567E-004	1.73046E-002	1.81437E-002	-8.63450E-004	-1.17036E-003	1.99296E-002	-1.31065E-003
	66	66	1.10053E+000	3.00254E-002	0.00000E+000	3.30437E-002	2.99634E-001	3.78607E-002	4.50266E+001	11	...........	6.34339E-002	-4.54042E-003	5.78620E-001	6.06637E-001	-2.88367E-002	-3.91108E-002	6.66245E-001	-4.38481E-002	1.90462E-003	-1.36328E-004	1.73733E-002	1.82145E-002	-8.65831E-004	-1.17432E-003	2.00043E-002	-1.31655E-003
	67	67	1.10059E+000	2.98087E-002	0.00000E+000	3.28072E-002	2.97483E-001	3.78966E-002	4.47109E+001	11	...........	6.34914E-002	-4.44708E-003	5.78618E-001	6.06734E-001	-2.88786E-002	-3.91492E-002	6.66194E-001	-4.37893E-002	1.89259E-003	-1.32562E-004	1.72478E-002	1.80859E-002	-8.60832E-004	-1.16698E-003	1.98583E-002	-1.30530E-003
	68	68	1.10050E+000	2.97290E-002	0.00000E+000	3.27167E-002	2.96690E-001	3.79385E-002	4.50734E+001	11	...........	6.35775E-002	-4.43875E-003	5.78766E-001	6.06718E-001	-2.88650E-002	-3.91587E-002	6.66231E-001	-4.37910E-002	1.89010E-003	-1.31960E-004	1.72061E-002	1.80371E-002	-8.58128E-004	-1.16415E-003	1.98064E-002	-1.30186E-003
	69	69	1.10053E+000	2.98276E-002	0.00000E+000	3.28260E-002	2.97675E-001	3.77001E-002	4.54337E+001	11	...........	6.31514E-002	-4.47111E-003	5.78813E-001	6.06669E-001	-2.88942E-002	-3.91712E-002	6.66273E-001	-4.39614E-002	1.88365E-003	-1.33362E-004	1.72646E-002	1.80955E-002	-8.61843E-004	-1.16838E-003	1.98733E-002	-1.31126E-003
	70	70	1.10059E+000	2.95847E-002	0.00000E+000	3.25607E-002	2.95268E-001	3.78106E-002	4.49219E+001	11	...........	6.33803E-002	-4.53389E-003	5.78928E-001	6.06703E-001	-2.89079E-002	-3.92253E-002	6.66362E-001	-4.39710E-002	1.87509E-003	-1.34134E-004	1.71274E-002	1.79491E-002	-8.55233E-004	-1.16047E-003	1.97142E-002	-1.30087E-003
	71	71	1.10050E+000	2.95164E-002	0.00000E+000	3.24827E-002	2.94581E-001	3.77117E-002	4.52473E+001	11	...........	6.31854E-002	-4.47333E-003	5.79001E-001	6.06792E-001	-2.88721E-002	-3.91806E-002	6.66466E-001	-4.39882E-002	1.86501E-003	-1.32037E-004	1.70900E-002	1.79103E-002	-8.52201E-004	-1.15647E-003	1.96717E-002	-1.29837E-003
	72	72	1.10053E+000	2.96170E-002	0.00000E+000	3.25942E-002	2.95577E-001	3.77291E-002	4.53667E+001	11	...........	6.32214E-002	-4.55208E-003	5.78992E-001	6.06745E-001	-2.89062E-002	-3.92153E-002	6.66383E-001	-4.39624E-002	1.87243E-003	-1.34819E-004	1.71480E-002	1.79699E-002	-8.56115E-004	-1.16144E-003	1.97362E-002	-1.30203E-003
	73	73	1.10059E+000	2.93754E-002	0.00000E+000	3.23303E-002	2.93177E-001	3.78149E-002	4.45098E+001	11	...........	6.33371E-002	-4.63694E-003	5.79111E-001	6.06637E-001	-2.89078E-002	-3.92104E-002	6.66365E-001	-4.39297E-002	1.86055E-003	-1.36212E-004	1.70116E-002	1.78202E-002	-8.49179E-004	-1.15182E-003	1.95748E-002	-1.29045E-003
	74	74	1.10050E+000	2.93254E-002	0.00000E+000	3.22726E-002	2.92682E-001	3.77003E-002	4.45639E+001	11	...........	6.31785E-002	-4.52875E-003	5.79063E-001	6.06504E-001	-2.89085E-002	-3.92101E-002	6.66400E-001	-4.39857E-002	1.85273E-003	-1.32807E-004	1.69813E-002	1.77860E-002	-8.47752E-004	-1.14985E-003	1.95424E-002	-1.28990E-003
	75	75	1.10052E+000	2.94242E-002	0.00000E+000	3.23821E-002	2.93665E-001	3.78272E-002	4.56262E+001	11	...........	6.34037E-002	-4.68833E-003	5.79195E-001	6.06565E-001	-2.89172E-002	-3.92203E-002	6.66214E-001	-4.39529E-002	1.86561E-003	-1.37950E-004	1.70423E-002	1.78477E-002	-8.50866E-004	-1.15403E-003	1.96028E-002	-1.29328E-003
	76	76	1.10059E+000	2.92194E-002	0.00000E+000	3.21586E-002	2.91624E-001	3.75904E-002	4.59525E+001	11	...........	6.29783E-002	-4.61722E-003	5.79120E-001	6.06632E-001	-2.88704E-002	-3.91836E-002	6.66263E-001	-4.38640E-002	1.84019E-003	-1.34913E-004	1.69216E-002	1.77254E-002	-8.43577E-004	-1.14492E-003	1.94678E-002	-1.28168E-003
	77	77	1.10050E+000	2.91003E-002	0.00000E+000	3.20250E-002	2.90444E-001	3.77912E-002	4.51674E+001	11	...........	6.33529E-002	-4.46569E-003	5.79152E-001	6.06782E-001	-2.88504E-002	-3.91790E-002	6.66313E-001	-4.37107E-002	1.84359E-003	-1.29953E-004	1.68535E-002	1.76576E-002	-8.39557E-004	-1.14012E-003	1.93899E-002	-1.27200E-003
	78	78	1.10052E+000	2.92118E-002	0.00000E+000	3.21482E-002	2.91558E-001	3.77119E-002	4.50029E+001	11	...........	6.32228E-002	-4.50250E-003	5.79125E-001	6.06841E-001	-2.88846E-002	-3.92579E-002	6.66268E-001	-4.38108E-002	1.84685E-003	-1.31526E-004	1.69173E-002	1.77269E-002	-8.43771E-004	-1.14679E-003	1.94629E-002	-1.27979E-003
	79	79	1.10059E+000	2.90327E-002	0.00000E+000	3.19531E-002	2.89775E-001	3.77931E-002	4.58193E+001	11	...........	6.33547E-002	-4.59375E-003	5.79075E-001	6.06854E-001	-2.88718E-002	-3.92481E-002	6.66337E-001	-4.38619E-002	1.83936E-003	-1.33369E-004	1.68121E-002	1.76186E-002	-8.38228E-004	-1.13948E-003	1.93456E-002	-1.27343E-003
	80	80	1.10050E+000	2.89106E-002	0.00000E+000	3.18162E-002	2.88561E-001	3.74733E-002	4.46092E+001	11	...........	6.28025E-002	-4.70486E-003	5.79095E-001	6.06805E-001	-2.88467E-002	-3.92106E-002	6.66463E-001	-4.38369E-002	1.81566E-003	-1.36020E-004	1.67420E-002	1.75431E-002	-8.33973E-004	-1.13360E-003	1.92678E-002	-1.26735E-003
	81	81	1.10052E+000	2.90403E-002	0.00000E+000	3.19596E-002	2.89848E-001	3.77755E-002	4.52249E+001	11	...........	6.32865E-002	-4.59306E-003	5.78986E-001	6.06711E-001	-2.88236E-002	-3.91718E-002	6.66525E-001	-4.40150E-002	1.83786E-003	-1.33384E-004	1.68139E-002	1.76191E-002	-8.37048E-004	-1.13756E-003	1.93561E-002	-1.27821E-003
	82	82	1.10059E+000	2.88330E-002	0.00000E+000	3.17333E-002	2.87784E-001	3.75774E-002	4.47006E+001	11	...........	6.29442E-002	-4.55083E-003	5.78907E-001	6.06621E-001	-2.88031E-002	-3.91825E-002	6.66530E-001	-4.39485E-002	1.81487E-003	-1.31214E-004	1.66916E-002	1.74907E-002	-8.30480E-004	-1.12975E-003	1.92181E-002	-1.26717E-003
	83	83	1.10050E+000	2.87166E-002	0.00000E+000	3.16027E-002	2.86617E-001	3.78633E-002	4.55654E+001	11	...........	6.34390E-002	-4.53889E-003	5.78959E-001	6.06568E-001	-2.87200E-002	-3.91312E-002	6.66458E-001	-4.39296E-002	1.82175E-003	-1.30341E-004	1.66257E-002	1.74186E-002	-8.24741E-004	-1.12372E-003	1.91384E-002	-1.26151E-003
	84	84	1.10052E+000	2.88406E-002	0.00000E+000	3.17397E-002	2.87860E-001	3.76509E-002	4.54612E+001	11	...........	6.31211E-002	-4.58208E-003	5.78742E-001	6.06325E-001	-2.87421E-002	-3.91711E-002	6.66338E-001	-4.39975E-002	1.82045E-003	-1.32150E-004	1.66913E-002	1.74868E-002	-8.28939E-004	-1.12972E-003	1.92176E-002	-1.26891E-003
	85	85	1.10059E+000	2.86246E-002	0.00000E+000	3.15038E-002	2.85707E-001	3.76399E-002	4.47698E+001	11	...........	6.30371E-002	-4.55528E-003	5.78700E-001	6.06266E-001	-2.86976E-002	-3.91557E-002	6.66328E-001	-4.38715E-002	1.80441E-003	-1.30393E-004	1.65650E-002	1.73541E-002	-8.21457E-004	-1.12081E-003	1.90733E-002	-1.25580E-003
	86	86	1.10051E+000	2.84964E-002	0.00000E+000	3.13605E-002	2.84435E-001	3.75407E-002	4.31506E+001	11	...........	6.29003E-002	-4.60556E-003	5.78675E-001	6.06154E-001	-2.87235E-002	-3.91661E-002	6.66395E-001	-4.38135E-002	1.79243E-003	-1.31242E-004	1.64902E-002	1.72732E-002	-8.18516E-004	-1.11609E-003	1.89899E-002	-1.24853E-003
	87	87	1.10052E+000	2.86521E-002	0.00000E+000	3.15323E-002	2.85991E-001	3.75932E-002	4.55059E+001	11	...........	6.29831E-002	-4.53222E-003	5.78632E-001	6.06070E-001	-2.87726E-002	-3.92169E-002	6.66432E-001	-4.39839E-002	1.80460E-003	-1.29858E-004	1.65790E-002	1.73652E-002	-8.24397E-004	-1.12365E-003	1.90947E-002	-1.26023E-003
	88	88	1.10058E+000	2.84807E-002	0.00000E+000	3.13454E-002	2.84284E-001	3.77567E-002	4.47521E+001	11	...........	6.32528E-002	-4.48028E-003	5.78673E-001	6.05990E-001	-2.87396E-002	-3.91889E-002	6.66473E-001	-4.38149E-002	1.80148E-003	-1.27601E-004	1.64810E-002	1.72590E-002	-8.18523E-004	-1.11613E-003	1.89816E-002	-1.24788E-003
	89	89	1.10051E+000	2.82932E-002	0.00000E+000	3.11370E-002	2.82419E-001	3.74728E-002	4.41106E+001	11	...........	6.28282E-002	-4.54069E-003	5.78665E-001	6.05978E-001	-2.87808E-002	-3.92012E-002	6.66432E-001	-4.37553E-002	1.77761E-003	-1.28471E-004	1.63723E-002	1.71451E-002	-8.14302E-004	-1.10913E-003	1.88555E-002	-1.23798E-003
	90	89.3233	1.10066E+000	2.85637E-002	0.00000E+000	3.14390E-002	2.85115E-001	3.77598E-002	4.25741E+001	11	...........	6.32749E-002	-4.53351E-003	5.78771E-001	6.05943E-001	-2.88793E-002	-3.91791E-002	6.66525E-001	-4.38187E-002	1.80737E-003	-1.29494E-004	1.65319E-002	1.73080E-002	-8.24901E-004	-1.11910E-003	1.90384E-002	-1.25163E-003
STARTTIMEOFFSET	QUANT	782194.6	Start Time Offset (s)
