EXPLAIN
TAG	PWR800_CHARGE
TITLE	LABEL	PWR Charge	Test Identifier
DATE	LABEL	10/16/2022	Date
TIME	LABEL	6:56:25	Time
NOTES	NOTES	1	Notes...
	
PSTAT	PSTAT	REF3000-21114	Potentiostat
CAPACITY	QUANT	5.30000E-002	Capacity (A-hr)
CELLTYPE	SELECTOR	1	Cell Type
WORKINGCONNECTION	SELECTOR	0	Working Connection
MAXCHARGETIME	VARIABLEANDUNITS	7.20000E+003	s	2.00000E+000	hour(s)	Max Charge Time
CHARGEMODE	MULTIPARAM	0	1.00000E-001	Charge Mode	Constant Current	Amp(s)
CHARGECURRENT	QUANT	0.1	Charge Current (A)
VOLTAGEFINISH	TWOPARAM	T	2.50000E-002	7.20000E+003	Voltage Finish	I (A) <	Max Time(s)
SAMPLETIME	QUANT	1.00000E+000	Sample Period (s)
CHARGESTOPAT1	MULTIPARAM	2	1.10000E+000	Stop At 1	|Voltage| > Limit	V
CHARGESTOPAT2	MULTIPARAM	0	0.00000E+000	Stop At 2	None	N/A
AESELECTOR	AESELECTOR	0x1	T	Set Limits	AE Channels
AESBHCSELECTOR	TOGGLE	F	Save Both Half Cells
IRCOMP	TOGGLE	F	IR Measure
EOC	QUANT	0.2769316	Open Circuit (V)
SEQUENCER	TOGGLE	TRUE	Run as Sequence
PSTATMODEL	IQUANT	5	Pstat Model
PSTATSECTION	LABEL	REF3000-21114	Pstat Section
PSTATSERIALNO	LABEL	21114	Pstat Serial Number
CTRLMODE	IQUANT	0	Control Mode
ELECTROMETER	IQUANT	0	RE=0 or CS=1
IESTAB	IQUANT	0	I/E Stability
CASPEED	IQUANT	4	Control Amp Speed
CONVENTION	IQUANT	1	Current Convention
ICHRANGE	IQUANT	2	Ich Range
ICHRANGEMODE	TOGGLE	T	Ich Auto Range
ICHOFFSETENABLE	TOGGLE	F	Ich Offset Enable
ICHOFFSET	QUANT	0	Ich Offset (V)
ICHFILTER	IQUANT	1	Ich Filter
VCHRANGE	IQUANT	3	Vch Range
VCHRANGEMODE	TOGGLE	T	Vch Auto Range
VCHOFFSETENABLE	TOGGLE	F	Vch Offset Enable
VCHOFFSET	QUANT	0	Vch Offset (V)
VCHFILTER	IQUANT	1	Vch Filter
ACHRANGE	IQUANT	2	Ach Range
ACHOFFSETENABLE	TOGGLE	F	Ach Offset Enable
ACHOFFSET	QUANT	0	Ach Offset (V)
ACHFILTER	IQUANT	1	Ach Filter
IERANGELOWERLIMIT	IQUANT	9	I/E Range Lower Limit
IERANGEMODE	TOGGLE	F	I/E AutoRange
IERANGE	IQUANT	9	I/E Range
POSFEEDENABLE	TOGGLE	F	Positive Feedback IR Comp
POSFEEDRESISTANCE	QUANT	0	Positive Feedback Resistance (ohm)
ACHSELECT	IQUANT	1	Ach Select
SENSECABLEID	IQUANT	13	Sense Cable ID
PWRCABLEID	IQUANT	13	Power Cable ID
DCCALDATE	LABEL		DC Calibration Date
ACCALDATE	LABEL		AC Calibration Date
THERMOSELECT	IQUANT	1	Thermo Select
FRAMEWORKVERSION	LABEL	7.8.6	Framework Version
INSTRUMENTVERSION	LABEL	4.50	Instrument Version
COMPLIANCEVOLTAGE	IQUANT	0	Compliance Voltage
CURVE	TABLE	66
	Pt	T	Vf	Im	Vu	Pwr	Sig	Ach	Temp	IERange	Over	Vf1	Vf2	Vf3	Vf4	Vf5	Vf6	Vf7	Vf8	Pwr1	Pwr2	Pwr3	Pwr4	Pwr5	Pwr6	Pwr7	Pwr8
	#	s	V	A	V	W	V	V	deg C	#	bits	V	V	V	V	V	V	V	V	W	W	W	W	W	W	W	W
	0	1	5.70824E-001	9.98391E-002	0.00000E+000	5.69906E-002	9.94000E-001	3.82128E-002	4.07661E+001	11	...........	6.34460E-002	-4.37944E-003	5.77684E-001	6.18438E-001	-2.90249E-002	-3.90392E-002	6.65896E-001	-4.33760E-002	6.33439E-003	-4.37240E-004	5.76755E-002	6.17443E-002	-2.89782E-003	-3.89764E-003	6.64825E-002	-4.33062E-003
	1	2	8.26500E-001	9.98395E-002	0.00000E+000	8.25173E-002	9.94000E-001	3.86675E-002	4.40209E+001	11	...........	6.41826E-002	-4.44208E-003	5.77801E-001	6.18465E-001	-2.90339E-002	-3.90661E-002	6.65850E-001	-4.33283E-002	6.40796E-003	-4.43495E-004	5.76874E-002	6.17472E-002	-2.89873E-003	-3.90034E-003	6.64781E-002	-4.32588E-003
	2	2.05833	1.08077E+000	9.98388E-002	0.00000E+000	1.07903E-001	9.94000E-001	3.94500E-002	4.99930E+001	11	...........	6.54667E-002	-4.51429E-003	5.77774E-001	6.18486E-001	-2.87214E-002	-3.92000E-002	6.65845E-001	-4.32190E-002	6.53612E-003	-4.50701E-004	5.76843E-002	6.17489E-002	-2.86751E-003	-3.91368E-003	6.64772E-002	-4.31494E-003
	3	3	1.10120E+000	6.39310E-002	0.00000E+000	7.04008E-002	6.36912E-001	3.91270E-002	4.77749E+001	11	...........	6.48969E-002	-4.57935E-003	5.77962E-001	6.18315E-001	-2.90575E-002	-3.90816E-002	6.65858E-001	-4.32252E-002	4.14892E-003	-2.92762E-004	3.69497E-002	3.95295E-002	-1.85768E-003	-2.49852E-003	4.25689E-002	-2.76343E-003
	4	4	1.10062E+000	4.62806E-002	0.00000E+000	5.09373E-002	4.61401E-001	3.85742E-002	4.71463E+001	11	...........	6.40231E-002	-4.46625E-003	5.77743E-001	6.18494E-001	-2.90267E-002	-3.90954E-002	6.65811E-001	-4.32289E-002	2.96303E-003	-2.06701E-004	2.67383E-002	2.86243E-002	-1.34337E-003	-1.80936E-003	3.08141E-002	-2.00066E-003
	5	5	1.10059E+000	4.15212E-002	0.00000E+000	4.56980E-002	4.14075E-001	3.86938E-002	4.85446E+001	11	...........	6.42856E-002	-4.43944E-003	5.77637E-001	6.18626E-001	-2.90417E-002	-3.90843E-002	6.65915E-001	-4.32910E-002	2.66921E-003	-1.84331E-004	2.39842E-002	2.56861E-002	-1.20584E-003	-1.62283E-003	2.76496E-002	-1.79749E-003
	6	6	1.10066E+000	3.86770E-002	0.00000E+000	4.25702E-002	3.85800E-001	3.86402E-002	4.67889E+001	11	...........	6.41154E-002	-4.26444E-003	5.77689E-001	6.18517E-001	-2.90237E-002	-3.91019E-002	6.65704E-001	-4.33193E-002	2.47979E-003	-1.64936E-004	2.23433E-002	2.39224E-002	-1.12255E-003	-1.51235E-003	2.57475E-002	-1.67546E-003
	7	7	1.10055E+000	3.68433E-002	0.00000E+000	4.05480E-002	3.67563E-001	3.89040E-002	4.60851E+001	11	...........	6.45539E-002	-4.26806E-003	5.77667E-001	6.18473E-001	-2.89843E-002	-3.90696E-002	6.65787E-001	-4.31387E-002	2.37838E-003	-1.57249E-004	2.12831E-002	2.27866E-002	-1.06788E-003	-1.43945E-003	2.45298E-002	-1.58937E-003
	8	8	1.10057E+000	3.57346E-002	0.00000E+000	3.93284E-002	3.56539E-001	3.84251E-002	4.68250E+001	11	...........	6.37618E-002	-4.20639E-003	5.77379E-001	6.18246E-001	-2.90008E-002	-3.90807E-002	6.65915E-001	-4.32036E-002	2.27850E-003	-1.50314E-004	2.06324E-002	2.20928E-002	-1.03633E-003	-1.39653E-003	2.37962E-002	-1.54386E-003
	9	9	1.10064E+000	3.46929E-002	0.00000E+000	3.81844E-002	3.46180E-001	3.86538E-002	4.39665E+001	11	...........	6.41299E-002	-4.21431E-003	5.77367E-001	6.18266E-001	-2.89419E-002	-3.90861E-002	6.65827E-001	-4.31729E-002	2.22485E-003	-1.46207E-004	2.00306E-002	2.14495E-002	-1.00408E-003	-1.35601E-003	2.30995E-002	-1.49780E-003
	10	10	1.10055E+000	3.39086E-002	0.00000E+000	3.73180E-002	3.38379E-001	3.88694E-002	4.53143E+001	11	...........	6.45122E-002	-4.25222E-003	5.77380E-001	6.18336E-001	-2.89793E-002	-3.90474E-002	6.65718E-001	-4.32354E-002	2.18752E-003	-1.44187E-004	1.95781E-002	2.09669E-002	-9.82647E-004	-1.32404E-003	2.25735E-002	-1.46605E-003
	11	11	1.10056E+000	3.35658E-002	0.00000E+000	3.69412E-002	3.34972E-001	3.87022E-002	4.62789E+001	11	...........	6.42025E-002	-4.25125E-003	5.77305E-001	6.18367E-001	-2.89583E-002	-3.90689E-002	6.65894E-001	-4.33015E-002	2.15501E-003	-1.42697E-004	1.93777E-002	2.07560E-002	-9.72009E-004	-1.31138E-003	2.23513E-002	-1.45345E-003
	12	12	1.10063E+000	3.30520E-002	0.00000E+000	3.63781E-002	3.29863E-001	3.85402E-002	4.60703E+001	11	...........	6.39871E-002	-4.22958E-003	5.77136E-001	6.18280E-001	-2.89579E-002	-3.90546E-002	6.65936E-001	-4.32675E-002	2.11490E-003	-1.39796E-004	1.90755E-002	2.04354E-002	-9.57117E-004	-1.29083E-003	2.20105E-002	-1.43008E-003
	13	13	1.10055E+000	3.26087E-002	0.00000E+000	3.58874E-002	3.25457E-001	3.86698E-002	4.54234E+001	11	...........	6.41965E-002	-4.29181E-003	5.77153E-001	6.18286E-001	-2.89486E-002	-3.90387E-002	6.65964E-001	-4.32547E-002	2.09336E-003	-1.39950E-004	1.88202E-002	2.01615E-002	-9.43975E-004	-1.27300E-003	2.17162E-002	-1.41048E-003
	14	14	1.10056E+000	3.25467E-002	0.00000E+000	3.58196E-002	3.24847E-001	3.86008E-002	4.49950E+001	11	...........	6.40450E-002	-4.25972E-003	5.77211E-001	6.18429E-001	-2.89447E-002	-3.90149E-002	6.65919E-001	-4.32678E-002	2.08446E-003	-1.38640E-004	1.87863E-002	2.01278E-002	-9.42056E-004	-1.26981E-003	2.16735E-002	-1.40822E-003
	15	15	1.10063E+000	3.22176E-002	0.00000E+000	3.54595E-002	3.21569E-001	3.84204E-002	4.52636E+001	11	...........	6.37379E-002	-4.32208E-003	5.77233E-001	6.18553E-001	-2.89257E-002	-3.90271E-002	6.65796E-001	-4.32561E-002	2.05348E-003	-1.39247E-004	1.85971E-002	1.99283E-002	-9.31916E-004	-1.25736E-003	2.14503E-002	-1.39361E-003
	16	16	1.10055E+000	3.19187E-002	0.00000E+000	3.51281E-002	3.18600E-001	3.86652E-002	4.56323E+001	11	...........	6.41383E-002	-4.29681E-003	5.77307E-001	6.18542E-001	-2.89507E-002	-3.90512E-002	6.65762E-001	-4.32736E-002	2.04721E-003	-1.37149E-004	1.84269E-002	1.97431E-002	-9.24069E-004	-1.24647E-003	2.12503E-002	-1.38124E-003
	17	17	1.10056E+000	3.19449E-002	0.00000E+000	3.51572E-002	3.18859E-001	3.84771E-002	4.59869E+001	11	...........	6.38568E-002	-4.28958E-003	5.77137E-001	6.18547E-001	-2.89904E-002	-3.90024E-002	6.65720E-001	-4.33290E-002	2.03990E-003	-1.37030E-004	1.84366E-002	1.97594E-002	-9.26097E-004	-1.24593E-003	2.12664E-002	-1.38414E-003
	18	18	1.10062E+000	3.16857E-002	0.00000E+000	3.48741E-002	3.16285E-001	3.86070E-002	4.42726E+001	11	...........	6.40612E-002	-4.29181E-003	5.77120E-001	6.18440E-001	-2.89782E-002	-3.90072E-002	6.65846E-001	-4.32697E-002	2.02983E-003	-1.35989E-004	1.82865E-002	1.95957E-002	-9.18195E-004	-1.23597E-003	2.10978E-002	-1.37103E-003
	19	19	1.10055E+000	3.14443E-002	0.00000E+000	3.46061E-002	3.13882E-001	3.84173E-002	4.46314E+001	11	...........	6.37817E-002	-4.38722E-003	5.77013E-001	6.18436E-001	-2.90192E-002	-3.89793E-002	6.65928E-001	-4.32162E-002	2.00557E-003	-1.37953E-004	1.81437E-002	1.94462E-002	-9.12486E-004	-1.22567E-003	2.09396E-002	-1.35890E-003
	20	20	1.10055E+000	3.14856E-002	0.00000E+000	3.46516E-002	3.14294E-001	3.83297E-002	4.59990E+001	11	...........	6.38843E-002	-4.45319E-003	5.76988E-001	6.18227E-001	-2.90354E-002	-3.89839E-002	6.66034E-001	-4.30993E-002	2.01144E-003	-1.40212E-004	1.81668E-002	1.94653E-002	-9.14199E-004	-1.22743E-003	2.09705E-002	-1.35701E-003
	21	21	1.10062E+000	3.13452E-002	0.00000E+000	3.44992E-002	3.12902E-001	3.83081E-002	4.52299E+001	11	...........	6.39594E-002	-4.43972E-003	5.76999E-001	6.18207E-001	-2.90551E-002	-3.90103E-002	6.65981E-001	-4.31554E-002	2.00482E-003	-1.39164E-004	1.80861E-002	1.93778E-002	-9.10738E-004	-1.22278E-003	2.08753E-002	-1.35271E-003
	22	22	1.10055E+000	3.10739E-002	0.00000E+000	3.41985E-002	3.10203E-001	3.82078E-002	4.58278E+001	11	...........	6.37843E-002	-4.31347E-003	5.77034E-001	6.18259E-001	-2.90672E-002	-3.90135E-002	6.65847E-001	-4.34353E-002	1.98203E-003	-1.34036E-004	1.79307E-002	1.92117E-002	-9.03231E-004	-1.21230E-003	2.06904E-002	-1.34970E-003
	23	23	1.10055E+000	3.11657E-002	0.00000E+000	3.42995E-002	3.11116E-001	3.83413E-002	4.55127E+001	11	...........	6.40079E-002	-4.38153E-003	5.77087E-001	6.18296E-001	-2.90496E-002	-3.90128E-002	6.65729E-001	-4.33590E-002	1.99485E-003	-1.36553E-004	1.79853E-002	1.92696E-002	-9.05350E-004	-1.21586E-003	2.07479E-002	-1.35131E-003
	24	24	1.10062E+000	3.10152E-002	0.00000E+000	3.41359E-002	3.09617E-001	3.80369E-002	4.48128E+001	11	...........	6.35099E-002	-4.42806E-003	5.77194E-001	6.18174E-001	-2.90253E-002	-3.90093E-002	6.65653E-001	-4.31975E-002	1.96977E-003	-1.37337E-004	1.79018E-002	1.91728E-002	-9.00225E-004	-1.20988E-003	2.06454E-002	-1.33978E-003
	25	25	1.10056E+000	3.07947E-002	0.00000E+000	3.38913E-002	3.07423E-001	3.83623E-002	4.52083E+001	11	...........	6.40193E-002	-4.46333E-003	5.77281E-001	6.18070E-001	-2.90342E-002	-3.89992E-002	6.65615E-001	-4.31729E-002	1.97146E-003	-1.37447E-004	1.77772E-002	1.90333E-002	-8.94099E-004	-1.20097E-003	2.04974E-002	-1.32950E-003
	26	26	1.10055E+000	3.08700E-002	0.00000E+000	3.39740E-002	3.08173E-001	3.80472E-002	4.58653E+001	11	...........	6.35224E-002	-4.39597E-003	5.77361E-001	6.18090E-001	-2.90357E-002	-3.90218E-002	6.65652E-001	-4.31586E-002	1.96093E-003	-1.35704E-004	1.78231E-002	1.90804E-002	-8.96332E-004	-1.20460E-003	2.05487E-002	-1.33231E-003
	27	27	1.10062E+000	3.07622E-002	0.00000E+000	3.38575E-002	3.07099E-001	3.81693E-002	4.60259E+001	11	...........	6.37131E-002	-4.29458E-003	5.77433E-001	6.18112E-001	-2.90526E-002	-3.90410E-002	6.65818E-001	-4.32315E-002	1.95995E-003	-1.32111E-004	1.77631E-002	1.90145E-002	-8.93723E-004	-1.20099E-003	2.04820E-002	-1.32990E-003
	28	28	1.10056E+000	3.05175E-002	0.00000E+000	3.35863E-002	3.04671E-001	3.81615E-002	4.59455E+001	11	...........	6.37158E-002	-4.37597E-003	5.77377E-001	6.18254E-001	-2.90783E-002	-3.90374E-002	6.65792E-001	-4.32529E-002	1.94445E-003	-1.33544E-004	1.76201E-002	1.88675E-002	-8.87397E-004	-1.19132E-003	2.03183E-002	-1.31997E-003
	29	29	1.10055E+000	3.05987E-002	0.00000E+000	3.36754E-002	3.05478E-001	3.79711E-002	4.43466E+001	11	...........	6.34101E-002	-4.36556E-003	5.77417E-001	6.18305E-001	-2.90479E-002	-3.90399E-002	6.65813E-001	-4.31403E-002	1.94027E-003	-1.33580E-004	1.76682E-002	1.89193E-002	-8.88828E-004	-1.19457E-003	2.03730E-002	-1.32004E-003
	30	30	1.10062E+000	3.05181E-002	0.00000E+000	3.35888E-002	3.04674E-001	3.82202E-002	4.51452E+001	11	...........	6.38092E-002	-4.41278E-003	5.77494E-001	6.18367E-001	-2.90550E-002	-3.90231E-002	6.65770E-001	-4.32010E-002	1.94734E-003	-1.34670E-004	1.76240E-002	1.88714E-002	-8.86704E-004	-1.19091E-003	2.03181E-002	-1.31841E-003
	31	31	1.10056E+000	3.02731E-002	0.00000E+000	3.33174E-002	3.02240E-001	3.80890E-002	4.51634E+001	11	...........	6.35912E-002	-4.24764E-003	5.77510E-001	6.18470E-001	-2.90778E-002	-3.89940E-002	6.65841E-001	-4.31676E-002	1.92511E-003	-1.28589E-004	1.74830E-002	1.87230E-002	-8.80276E-004	-1.18047E-003	2.01571E-002	-1.30682E-003
	32	32	1.10055E+000	3.03470E-002	0.00000E+000	3.33984E-002	3.02970E-001	3.80292E-002	4.53500E+001	11	...........	6.34971E-002	-4.21042E-003	5.77425E-001	6.18535E-001	-2.90919E-002	-3.90375E-002	6.65792E-001	-4.32624E-002	1.92694E-003	-1.27773E-004	1.75231E-002	1.87707E-002	-8.82852E-004	-1.18467E-003	2.02048E-002	-1.31288E-003
	33	33	1.10062E+000	3.02487E-002	0.00000E+000	3.32922E-002	3.01995E-001	3.80813E-002	4.56937E+001	11	...........	6.35768E-002	-4.26222E-003	5.77395E-001	6.18612E-001	-2.90935E-002	-3.90201E-002	6.65701E-001	-4.32172E-002	1.92311E-003	-1.28926E-004	1.74654E-002	1.87122E-002	-8.80038E-004	-1.18031E-003	2.01366E-002	-1.30726E-003
	34	34	1.10056E+000	3.00051E-002	0.00000E+000	3.30224E-002	2.99573E-001	3.79570E-002	4.32961E+001	11	...........	6.33519E-002	-4.25514E-003	5.77469E-001	6.18711E-001	-2.91228E-002	-3.90150E-002	6.65839E-001	-4.33589E-002	1.90088E-003	-1.27676E-004	1.73270E-002	1.85645E-002	-8.73831E-004	-1.17065E-003	1.99786E-002	-1.30099E-003
	35	35	1.10055E+000	3.01252E-002	0.00000E+000	3.31543E-002	3.00770E-001	3.80204E-002	4.43285E+001	11	...........	6.34758E-002	-4.26972E-003	5.77434E-001	6.18725E-001	-2.91181E-002	-3.90051E-002	6.65933E-001	-4.35372E-002	1.91222E-003	-1.28626E-004	1.73953E-002	1.86392E-002	-8.77187E-004	-1.17504E-003	2.00614E-002	-1.31157E-003
	36	36	1.10061E+000	3.00416E-002	0.00000E+000	3.30642E-002	2.99939E-001	3.79434E-002	4.54750E+001	11	...........	6.33508E-002	-4.30903E-003	5.77415E-001	6.18712E-001	-2.90997E-002	-3.89733E-002	6.65864E-001	-4.35683E-002	1.90316E-003	-1.29450E-004	1.73464E-002	1.85871E-002	-8.74201E-004	-1.17082E-003	2.00036E-002	-1.30886E-003
	37	37	1.10056E+000	2.97909E-002	0.00000E+000	3.27868E-002	2.97448E-001	3.81496E-002	4.55811E+001	11	...........	6.36897E-002	-4.29222E-003	5.77489E-001	6.18589E-001	-2.91835E-002	-3.89833E-002	6.65811E-001	-4.34828E-002	1.89738E-003	-1.27869E-004	1.72039E-002	1.84283E-002	-8.69403E-004	-1.16135E-003	1.98351E-002	-1.29539E-003
	38	38	1.10055E+000	2.98788E-002	0.00000E+000	3.28831E-002	2.98323E-001	3.79950E-002	4.35918E+001	11	...........	6.34233E-002	-4.18333E-003	5.77288E-001	6.18737E-001	-2.91386E-002	-3.89662E-002	6.65799E-001	-4.33396E-002	1.89501E-003	-1.24993E-004	1.72487E-002	1.84871E-002	-8.70626E-004	-1.16426E-003	1.98933E-002	-1.29493E-003
	39	39	1.10061E+000	2.97963E-002	0.00000E+000	3.27941E-002	2.97504E-001	3.78838E-002	4.42111E+001	11	...........	6.32451E-002	-4.14903E-003	5.77222E-001	6.18877E-001	-2.91567E-002	-3.89500E-002	6.65763E-001	-4.32975E-002	1.88447E-003	-1.23626E-004	1.71991E-002	1.84402E-002	-8.68760E-004	-1.16056E-003	1.98373E-002	-1.29010E-003
	40	40	1.10057E+000	2.95916E-002	0.00000E+000	3.25675E-002	2.95464E-001	3.80788E-002	4.55738E+001	11	...........	6.35875E-002	-4.14292E-003	5.77164E-001	6.19007E-001	-2.91644E-002	-3.89671E-002	6.65890E-001	-4.32871E-002	1.88165E-003	-1.22595E-004	1.70792E-002	1.83174E-002	-8.63022E-004	-1.15310E-003	1.97047E-002	-1.28093E-003
	41	41	1.10055E+000	2.96653E-002	0.00000E+000	3.26481E-002	2.96203E-001	3.78230E-002	4.51954E+001	11	...........	6.31550E-002	-4.14361E-003	5.77093E-001	6.18870E-001	-2.91358E-002	-3.89782E-002	6.65814E-001	-4.32797E-002	1.87351E-003	-1.22921E-004	1.71196E-002	1.83590E-002	-8.64323E-004	-1.15630E-003	1.97516E-002	-1.28391E-003
	42	42	1.10061E+000	2.96108E-002	0.00000E+000	3.25899E-002	2.95660E-001	3.80512E-002	4.58096E+001	11	...........	6.35596E-002	-4.23292E-003	5.77172E-001	6.18856E-001	-2.91397E-002	-3.89731E-002	6.65804E-001	-4.32879E-002	1.88205E-003	-1.25340E-004	1.70905E-002	1.83248E-002	-8.62850E-004	-1.15402E-003	1.97150E-002	-1.28179E-003
	43	43	1.10057E+000	2.93632E-002	0.00000E+000	3.23162E-002	2.93200E-001	3.79648E-002	4.39531E+001	11	...........	6.33806E-002	-4.27472E-003	5.76961E-001	6.18879E-001	-2.91472E-002	-3.89832E-002	6.65829E-001	-4.32346E-002	1.86105E-003	-1.25519E-004	1.69414E-002	1.81722E-002	-8.55854E-004	-1.14467E-003	1.95509E-002	-1.26950E-003
	44	44	1.10055E+000	2.94580E-002	0.00000E+000	3.24199E-002	2.94137E-001	3.77492E-002	4.46012E+001	11	...........	6.30237E-002	-4.21167E-003	5.76801E-001	6.18913E-001	-2.91760E-002	-3.89272E-002	6.65725E-001	-4.31617E-002	1.85655E-003	-1.24067E-004	1.69914E-002	1.82319E-002	-8.59465E-004	-1.14672E-003	1.96109E-002	-1.27146E-003
	45	45	1.10061E+000	2.94098E-002	0.00000E+000	3.23686E-002	2.93658E-001	3.79447E-002	4.44440E+001	11	...........	6.33136E-002	-4.40153E-003	5.76781E-001	6.18834E-001	-2.91772E-002	-3.89568E-002	6.65665E-001	-4.31904E-002	1.86204E-003	-1.29448E-004	1.69630E-002	1.81998E-002	-8.58096E-004	-1.14571E-003	1.95771E-002	-1.27022E-003
	46	46	1.10057E+000	2.91154E-002	0.00000E+000	3.20436E-002	2.90730E-001	3.79010E-002	4.46555E+001	11	...........	6.32826E-002	-4.23097E-003	5.76710E-001	6.18862E-001	-2.91482E-002	-3.89519E-002	6.65897E-001	-4.32961E-002	1.84250E-003	-1.23186E-004	1.67911E-002	1.80184E-002	-8.48660E-004	-1.13410E-003	1.93878E-002	-1.26058E-003
	47	47	1.10055E+000	2.92314E-002	0.00000E+000	3.21705E-002	2.91882E-001	3.78635E-002	4.31465E+001	11	...........	6.32140E-002	-4.14417E-003	5.76727E-001	6.18994E-001	-2.91733E-002	-3.89889E-002	6.65870E-001	-4.33165E-002	1.84783E-003	-1.21140E-004	1.68585E-002	1.80940E-002	-8.52776E-004	-1.13970E-003	1.94643E-002	-1.26620E-003
	48	48	1.10061E+000	2.92222E-002	0.00000E+000	3.21622E-002	2.91796E-001	3.78467E-002	4.38509E+001	11	...........	6.31693E-002	-4.22611E-003	5.76750E-001	6.18865E-001	-2.91910E-002	-3.89700E-002	6.65683E-001	-4.32568E-002	1.84595E-003	-1.23496E-004	1.68539E-002	1.80846E-002	-8.53026E-004	-1.13879E-003	1.94527E-002	-1.26406E-003
	49	49	1.10057E+000	2.89419E-002	0.00000E+000	3.18527E-002	2.89011E-001	3.78932E-002	4.46768E+001	11	...........	6.32143E-002	-4.32389E-003	5.76787E-001	6.18764E-001	-2.92062E-002	-3.89567E-002	6.65654E-001	-4.32506E-002	1.82954E-003	-1.25142E-004	1.66933E-002	1.79082E-002	-8.45285E-004	-1.12748E-003	1.92653E-002	-1.25175E-003
	50	50	1.10055E+000	2.90370E-002	0.00000E+000	3.19566E-002	2.89956E-001	3.79099E-002	4.44854E+001	11	...........	6.33085E-002	-4.36903E-003	5.76809E-001	6.18835E-001	-2.92315E-002	-3.89790E-002	6.65644E-001	-4.33193E-002	1.83829E-003	-1.26864E-004	1.67488E-002	1.79691E-002	-8.48797E-004	-1.13183E-003	1.93283E-002	-1.25786E-003
	51	51	1.10060E+000	2.89988E-002	0.00000E+000	3.19162E-002	2.89574E-001	3.77551E-002	4.46292E+001	11	...........	6.30112E-002	-4.33111E-003	5.76613E-001	6.18770E-001	-2.92331E-002	-3.89518E-002	6.65736E-001	-4.33431E-002	1.82725E-003	-1.25597E-004	1.67211E-002	1.79436E-002	-8.47724E-004	-1.12956E-003	1.93056E-002	-1.25690E-003
	52	52	1.10058E+000	2.87551E-002	0.00000E+000	3.16472E-002	2.87153E-001	3.79115E-002	4.47384E+001	11	...........	6.32911E-002	-4.31417E-003	5.76689E-001	6.18763E-001	-2.92703E-002	-3.89254E-002	6.65804E-001	-4.34811E-002	1.81994E-003	-1.24054E-004	1.65827E-002	1.77926E-002	-8.41668E-004	-1.11930E-003	1.91452E-002	-1.25030E-003
	53	53	1.10055E+000	2.88428E-002	0.00000E+000	3.17428E-002	2.88019E-001	3.77593E-002	4.45274E+001	11	...........	6.30418E-002	-4.24222E-003	5.76659E-001	6.18813E-001	-2.92590E-002	-3.89126E-002	6.65903E-001	-4.34782E-002	1.81830E-003	-1.22357E-004	1.66324E-002	1.78483E-002	-8.43911E-004	-1.12235E-003	1.92065E-002	-1.25403E-003
	54	54	1.10060E+000	2.87913E-002	0.00000E+000	3.16878E-002	2.87518E-001	3.78178E-002	4.53657E+001	11	...........	6.31724E-002	-4.22861E-003	5.76581E-001	6.18791E-001	-2.92750E-002	-3.89757E-002	6.65815E-001	-4.34360E-002	1.81881E-003	-1.21747E-004	1.66005E-002	1.78158E-002	-8.42865E-004	-1.12216E-003	1.91697E-002	-1.25058E-003
	55	55	1.10058E+000	2.85251E-002	0.00000E+000	3.13941E-002	2.84866E-001	3.76022E-002	4.40230E+001	11	...........	6.27544E-002	-4.26347E-003	5.76424E-001	6.18818E-001	-2.92650E-002	-3.89043E-002	6.65652E-001	-4.33868E-002	1.79008E-003	-1.21616E-004	1.64425E-002	1.76519E-002	-8.34787E-004	-1.10975E-003	1.89878E-002	-1.23761E-003
	56	56	1.10054E+000	2.86543E-002	0.00000E+000	3.15353E-002	2.86157E-001	3.78331E-002	4.52101E+001	11	...........	6.31862E-002	-4.24542E-003	5.76380E-001	6.18798E-001	-2.92579E-002	-3.89387E-002	6.65630E-001	-4.33074E-002	1.81056E-003	-1.21649E-004	1.65158E-002	1.77312E-002	-8.38365E-004	-1.11576E-003	1.90731E-002	-1.24094E-003
	57	57	1.10060E+000	2.86455E-002	0.00000E+000	3.15273E-002	2.86069E-001	3.79810E-002	4.51863E+001	11	...........	6.33860E-002	-4.22056E-003	5.76233E-001	6.18783E-001	-2.92267E-002	-3.89036E-002	6.65561E-001	-4.33722E-002	1.81572E-003	-1.20900E-004	1.65065E-002	1.77253E-002	-8.37212E-004	-1.11441E-003	1.90653E-002	-1.24242E-003
	58	58	1.10058E+000	2.83358E-002	0.00000E+000	3.11859E-002	2.82990E-001	3.75818E-002	4.52502E+001	11	...........	6.27678E-002	-4.20528E-003	5.76114E-001	6.18766E-001	-2.92090E-002	-3.89019E-002	6.65656E-001	-4.34082E-002	1.77858E-003	-1.19160E-004	1.63247E-002	1.75333E-002	-8.27662E-004	-1.10232E-003	1.88619E-002	-1.23001E-003
	59	59	1.10054E+000	2.84479E-002	0.00000E+000	3.13082E-002	2.84102E-001	3.77148E-002	4.46266E+001	11	...........	6.29521E-002	-4.18153E-003	5.76136E-001	6.18861E-001	-2.92031E-002	-3.89324E-002	6.65724E-001	-4.33436E-002	1.79085E-003	-1.18956E-004	1.63898E-002	1.76053E-002	-8.30765E-004	-1.10754E-003	1.89384E-002	-1.23303E-003
	60	60	1.10060E+000	2.84128E-002	0.00000E+000	3.12711E-002	2.83754E-001	3.74413E-002	4.36814E+001	11	...........	6.24836E-002	-4.19694E-003	5.76007E-001	6.18936E-001	-2.92244E-002	-3.89436E-002	6.65787E-001	-4.33718E-002	1.77534E-003	-1.19247E-004	1.63660E-002	1.75857E-002	-8.30349E-004	-1.10650E-003	1.89169E-002	-1.23232E-003
	61	61	1.10058E+000	2.81526E-002	0.00000E+000	3.09843E-002	2.81165E-001	3.79771E-002	4.52471E+001	11	...........	6.33953E-002	-4.24097E-003	5.76095E-001	6.18821E-001	-2.92018E-002	-3.88933E-002	6.65788E-001	-4.33286E-002	1.78474E-003	-1.19394E-004	1.62186E-002	1.74214E-002	-8.22107E-004	-1.09495E-003	1.87437E-002	-1.21981E-003
	62	62	1.10055E+000	2.82446E-002	0.00000E+000	3.10845E-002	2.82083E-001	3.76091E-002	4.45917E+001	11	...........	6.27667E-002	-4.20292E-003	5.76079E-001	6.18831E-001	-2.92012E-002	-3.89118E-002	6.65793E-001	-4.32337E-002	1.77282E-003	-1.18710E-004	1.62711E-002	1.74787E-002	-8.24778E-004	-1.09905E-003	1.88051E-002	-1.22112E-003
	63	63	1.10060E+000	2.82362E-002	0.00000E+000	3.10767E-002	2.82001E-001	3.77690E-002	4.45771E+001	11	...........	6.30664E-002	-4.16639E-003	5.76095E-001	6.18920E-001	-2.92093E-002	-3.89383E-002	6.65658E-001	-4.32071E-002	1.78075E-003	-1.17643E-004	1.62667E-002	1.74759E-002	-8.24759E-004	-1.09947E-003	1.87956E-002	-1.22000E-003
	64	64	1.10059E+000	2.79617E-002	0.00000E+000	3.07743E-002	2.79271E-001	3.77138E-002	4.36589E+001	11	...........	6.29432E-002	-4.26542E-003	5.76282E-001	6.18941E-001	-2.91936E-002	-3.89744E-002	6.65606E-001	-4.32492E-002	1.76000E-003	-1.19268E-004	1.61138E-002	1.73067E-002	-8.16303E-004	-1.08979E-003	1.86115E-002	-1.20932E-003
	65	64.1567	1.10067E+000	2.83415E-002	0.00000E+000	3.11946E-002	2.83038E-001	3.72665E-002	4.49373E+001	11	...........	6.22252E-002	-4.17110E-003	5.76433E-001	6.18936E-001	-2.90851E-002	-3.89504E-002	6.65620E-001	-4.32447E-002	1.76355E-003	-1.18215E-004	1.63369E-002	1.75416E-002	-8.24314E-004	-1.10391E-003	1.88646E-002	-1.22562E-003
STARTTIMEOFFSET	QUANT	816312.9	Start Time Offset (s)
