EXPLAIN
TAG	PWR800_CHARGE
TITLE	LABEL	PWR Charge	Test Identifier
DATE	LABEL	10/15/2022	Date
TIME	LABEL	22:31:27	Time
NOTES	NOTES	1	Notes...
	
PSTAT	PSTAT	REF3000-21114	Potentiostat
CAPACITY	QUANT	5.30000E-002	Capacity (A-hr)
CELLTYPE	SELECTOR	1	Cell Type
WORKINGCONNECTION	SELECTOR	0	Working Connection
MAXCHARGETIME	VARIABLEANDUNITS	7.20000E+003	s	2.00000E+000	hour(s)	Max Charge Time
CHARGEMODE	MULTIPARAM	0	1.00000E-001	Charge Mode	Constant Current	Amp(s)
CHARGECURRENT	QUANT	0.1	Charge Current (A)
VOLTAGEFINISH	TWOPARAM	T	2.50000E-002	7.20000E+003	Voltage Finish	I (A) <	Max Time(s)
SAMPLETIME	QUANT	1.00000E+000	Sample Period (s)
CHARGESTOPAT1	MULTIPARAM	2	1.10000E+000	Stop At 1	|Voltage| > Limit	V
CHARGESTOPAT2	MULTIPARAM	0	0.00000E+000	Stop At 2	None	N/A
AESELECTOR	AESELECTOR	0x1	T	Set Limits	AE Channels
AESBHCSELECTOR	TOGGLE	F	Save Both Half Cells
IRCOMP	TOGGLE	F	IR Measure
EOC	QUANT	0.2775292	Open Circuit (V)
SEQUENCER	TOGGLE	TRUE	Run as Sequence
PSTATMODEL	IQUANT	5	Pstat Model
PSTATSECTION	LABEL	REF3000-21114	Pstat Section
PSTATSERIALNO	LABEL	21114	Pstat Serial Number
CTRLMODE	IQUANT	0	Control Mode
ELECTROMETER	IQUANT	0	RE=0 or CS=1
IESTAB	IQUANT	0	I/E Stability
CASPEED	IQUANT	4	Control Amp Speed
CONVENTION	IQUANT	1	Current Convention
ICHRANGE	IQUANT	2	Ich Range
ICHRANGEMODE	TOGGLE	T	Ich Auto Range
ICHOFFSETENABLE	TOGGLE	F	Ich Offset Enable
ICHOFFSET	QUANT	0	Ich Offset (V)
ICHFILTER	IQUANT	1	Ich Filter
VCHRANGE	IQUANT	3	Vch Range
VCHRANGEMODE	TOGGLE	T	Vch Auto Range
VCHOFFSETENABLE	TOGGLE	F	Vch Offset Enable
VCHOFFSET	QUANT	0	Vch Offset (V)
VCHFILTER	IQUANT	1	Vch Filter
ACHRANGE	IQUANT	2	Ach Range
ACHOFFSETENABLE	TOGGLE	F	Ach Offset Enable
ACHOFFSET	QUANT	0	Ach Offset (V)
ACHFILTER	IQUANT	1	Ach Filter
IERANGELOWERLIMIT	IQUANT	9	I/E Range Lower Limit
IERANGEMODE	TOGGLE	F	I/E AutoRange
IERANGE	IQUANT	9	I/E Range
POSFEEDENABLE	TOGGLE	F	Positive Feedback IR Comp
POSFEEDRESISTANCE	QUANT	0	Positive Feedback Resistance (ohm)
ACHSELECT	IQUANT	1	Ach Select
SENSECABLEID	IQUANT	13	Sense Cable ID
PWRCABLEID	IQUANT	13	Power Cable ID
DCCALDATE	LABEL		DC Calibration Date
ACCALDATE	LABEL		AC Calibration Date
THERMOSELECT	IQUANT	1	Thermo Select
FRAMEWORKVERSION	LABEL	7.8.6	Framework Version
INSTRUMENTVERSION	LABEL	4.50	Instrument Version
COMPLIANCEVOLTAGE	IQUANT	0	Compliance Voltage
CURVE	TABLE	88
	Pt	T	Vf	Im	Vu	Pwr	Sig	Ach	Temp	IERange	Over	Vf1	Vf2	Vf3	Vf4	Vf5	Vf6	Vf7	Vf8	Pwr1	Pwr2	Pwr3	Pwr4	Pwr5	Pwr6	Pwr7	Pwr8
	#	s	V	A	V	W	V	V	deg C	#	bits	V	V	V	V	V	V	V	V	W	W	W	W	W	W	W	W
	0	1	5.64491E-001	9.98517E-002	0.00000E+000	5.63654E-002	9.94000E-001	3.84135E-002	4.07474E+001	11	...........	6.38131E-002	-4.66014E-003	5.76656E-001	6.12585E-001	-2.90497E-002	-3.91250E-002	6.65130E-001	-4.35171E-002	6.37184E-003	-4.65323E-004	5.75801E-002	6.11676E-002	-2.90066E-003	-3.90670E-003	6.64144E-002	-4.34526E-003
	1	2	7.94837E-001	9.98521E-002	0.00000E+000	7.93661E-002	9.94000E-001	3.91803E-002	4.31709E+001	11	...........	6.50799E-002	-4.68042E-003	5.76934E-001	6.12591E-001	-2.90283E-002	-3.91053E-002	6.65080E-001	-4.34932E-002	6.49836E-003	-4.67349E-004	5.76081E-002	6.11685E-002	-2.89854E-003	-3.90474E-003	6.64096E-002	-4.34289E-003
	2	2.16333	1.05730E+000	9.98526E-002	0.00000E+000	1.05574E-001	9.94000E-001	4.02490E-002	4.79543E+001	11	...........	6.68775E-002	-4.79762E-003	5.77018E-001	6.12636E-001	-2.89320E-002	-3.91454E-002	6.65105E-001	-4.35017E-002	6.67789E-003	-4.79054E-004	5.76167E-002	6.11733E-002	-2.88893E-003	-3.90877E-003	6.64125E-002	-4.34376E-003
	3	3	1.10098E+000	6.61175E-002	0.00000E+000	7.27942E-002	6.58530E-001	3.88091E-002	4.85449E+001	11	...........	6.44331E-002	-4.69207E-003	5.76695E-001	6.12647E-001	-2.90460E-002	-3.91016E-002	6.65057E-001	-4.35551E-002	4.26016E-003	-3.10228E-004	3.81297E-002	4.05067E-002	-1.92045E-003	-2.58530E-003	4.39719E-002	-2.87976E-003
	4	4	1.10040E+000	4.84770E-002	0.00000E+000	5.33441E-002	4.83110E-001	3.93013E-002	4.77121E+001	11	...........	6.52871E-002	-4.71361E-003	5.76712E-001	6.12550E-001	-2.90337E-002	-3.90964E-002	6.65004E-001	-4.37033E-002	3.16492E-003	-2.28502E-004	2.79573E-002	2.96946E-002	-1.40747E-003	-1.89528E-003	3.22374E-002	-2.11861E-003
	5	5	1.10032E+000	4.34134E-002	0.00000E+000	4.77687E-002	4.32759E-001	3.92145E-002	4.78175E+001	11	...........	6.51472E-002	-4.66431E-003	5.76704E-001	6.12255E-001	-2.90432E-002	-3.90942E-002	6.65055E-001	-4.35082E-002	2.82826E-003	-2.02493E-004	2.50367E-002	2.65801E-002	-1.26086E-003	-1.69721E-003	2.88723E-002	-1.88884E-003
	6	6	1.10038E+000	4.05979E-002	0.00000E+000	4.46731E-002	4.04763E-001	3.89907E-002	4.74497E+001	11	...........	6.47662E-002	-4.65764E-003	5.76714E-001	6.12129E-001	-2.90879E-002	-3.90693E-002	6.64939E-001	-4.34147E-002	2.62937E-003	-1.89090E-004	2.34134E-002	2.48512E-002	-1.18091E-003	-1.58613E-003	2.69951E-002	-1.76254E-003
	7	7	1.10033E+000	3.85464E-002	0.00000E+000	4.24137E-002	3.84376E-001	3.92019E-002	4.81145E+001	11	...........	6.51361E-002	-4.63403E-003	5.76568E-001	6.12018E-001	-2.91021E-002	-3.91336E-002	6.64957E-001	-4.36390E-002	2.51077E-003	-1.78625E-004	2.22247E-002	2.35911E-002	-1.12178E-003	-1.50846E-003	2.56317E-002	-1.68213E-003
	8	8	1.10029E+000	3.75057E-002	0.00000E+000	4.12671E-002	3.74030E-001	3.89102E-002	4.56667E+001	11	...........	6.46590E-002	-4.62889E-003	5.76441E-001	6.12052E-001	-2.90867E-002	-3.91293E-002	6.64912E-001	-4.33978E-002	2.42509E-003	-1.73610E-004	2.16199E-002	2.29555E-002	-1.09092E-003	-1.46757E-003	2.49380E-002	-1.62767E-003
	9	9	1.10036E+000	3.66015E-002	0.00000E+000	4.02747E-002	3.65032E-001	3.90592E-002	4.63211E+001	11	...........	6.48762E-002	-4.58236E-003	5.76231E-001	6.12238E-001	-2.90665E-002	-3.91154E-002	6.64978E-001	-4.34882E-002	2.37457E-003	-1.67721E-004	2.10909E-002	2.24088E-002	-1.06388E-003	-1.43168E-003	2.43392E-002	-1.59173E-003
	10	10	1.10032E+000	3.56855E-002	0.00000E+000	3.92655E-002	3.55921E-001	3.91906E-002	4.72462E+001	11	...........	6.50883E-002	-4.57361E-003	5.76290E-001	6.12105E-001	-2.90619E-002	-3.91212E-002	6.65031E-001	-4.34076E-002	2.32271E-003	-1.63212E-004	2.05652E-002	2.18433E-002	-1.03709E-003	-1.39606E-003	2.37320E-002	-1.54902E-003
	11	11	1.10028E+000	3.53803E-002	0.00000E+000	3.89283E-002	3.52889E-001	3.90031E-002	4.62022E+001	11	...........	6.47724E-002	-4.62875E-003	5.76294E-001	6.12173E-001	-2.91154E-002	-3.90904E-002	6.65000E-001	-4.34162E-002	2.29167E-003	-1.63767E-004	2.03895E-002	2.16589E-002	-1.03011E-003	-1.38303E-003	2.35279E-002	-1.53608E-003
	12	12	1.10035E+000	3.50102E-002	0.00000E+000	3.85235E-002	3.49206E-001	3.90900E-002	4.70549E+001	11	...........	6.49411E-002	-4.64778E-003	5.76173E-001	6.12068E-001	-2.90994E-002	-3.91061E-002	6.64909E-001	-4.34243E-002	2.27360E-003	-1.62720E-004	2.01720E-002	2.14286E-002	-1.01878E-003	-1.36911E-003	2.32786E-002	-1.52030E-003
	13	13	1.10032E+000	3.43960E-002	0.00000E+000	3.78467E-002	3.43095E-001	3.89150E-002	4.50047E+001	11	...........	6.46696E-002	-4.66028E-003	5.76197E-001	6.12023E-001	-2.90535E-002	-3.91536E-002	6.64942E-001	-4.34865E-002	2.22438E-003	-1.60295E-004	1.98189E-002	2.10512E-002	-9.99324E-004	-1.34673E-003	2.28714E-002	-1.49576E-003
	14	14	1.10028E+000	3.43811E-002	0.00000E+000	3.78288E-002	3.42951E-001	3.89339E-002	4.46953E+001	11	...........	6.46978E-002	-4.65986E-003	5.76154E-001	6.11921E-001	-2.90568E-002	-3.91746E-002	6.65015E-001	-4.34189E-002	2.22438E-003	-1.60211E-004	1.98088E-002	2.10385E-002	-9.99005E-004	-1.34687E-003	2.28640E-002	-1.49279E-003
	15	15	1.10035E+000	3.42256E-002	0.00000E+000	3.76599E-002	3.41403E-001	3.91633E-002	4.68991E+001	11	...........	6.50461E-002	-4.64958E-003	5.76209E-001	6.12005E-001	-2.90450E-002	-3.91919E-002	6.64964E-001	-4.33581E-002	2.22624E-003	-1.59135E-004	1.97211E-002	2.09462E-002	-9.94081E-004	-1.34137E-003	2.27588E-002	-1.48395E-003
	16	16	1.10032E+000	3.37638E-002	0.00000E+000	3.71512E-002	3.36815E-001	3.89699E-002	4.66999E+001	11	...........	6.47608E-002	-4.66319E-003	5.76180E-001	6.12134E-001	-2.90476E-002	-3.91833E-002	6.64943E-001	-4.34968E-002	2.18657E-003	-1.57447E-004	1.94540E-002	2.06680E-002	-9.80759E-004	-1.32298E-003	2.24510E-002	-1.46862E-003
	17	17	1.10028E+000	3.37693E-002	0.00000E+000	3.71556E-002	3.36865E-001	3.88494E-002	4.63041E+001	11	...........	6.45230E-002	-4.64694E-003	5.76297E-001	6.12467E-001	-2.90760E-002	-3.91592E-002	6.64907E-001	-4.35422E-002	2.17890E-003	-1.56924E-004	1.94611E-002	2.06826E-002	-9.81875E-004	-1.32238E-003	2.24534E-002	-1.47039E-003
	18	18	1.10034E+000	3.36699E-002	0.00000E+000	3.70483E-002	3.35882E-001	3.91591E-002	4.52257E+001	11	...........	6.50417E-002	-4.65569E-003	5.76517E-001	6.12525E-001	-2.90671E-002	-3.91376E-002	6.64954E-001	-4.34778E-002	2.18994E-003	-1.56757E-004	1.94113E-002	2.06236E-002	-9.78685E-004	-1.31776E-003	2.23889E-002	-1.46389E-003
	19	19	1.10033E+000	3.32841E-002	0.00000E+000	3.66234E-002	3.32044E-001	3.87901E-002	4.57552E+001	11	...........	6.44390E-002	-4.62458E-003	5.76597E-001	6.12538E-001	-2.90619E-002	-3.91243E-002	6.64923E-001	-4.33986E-002	2.14479E-003	-1.53925E-004	1.91915E-002	2.03878E-002	-9.67300E-004	-1.30222E-003	2.21313E-002	-1.44448E-003
	20	20	1.10027E+000	3.33500E-002	0.00000E+000	3.66942E-002	3.32701E-001	3.87739E-002	4.68544E+001	11	...........	6.46283E-002	-4.60153E-003	5.76648E-001	6.12654E-001	-2.90390E-002	-3.90994E-002	6.64942E-001	-4.33857E-002	2.15536E-003	-1.53461E-004	1.92312E-002	2.04320E-002	-9.68452E-004	-1.30397E-003	2.21758E-002	-1.44691E-003
	21	21	1.10034E+000	3.32751E-002	0.00000E+000	3.66138E-002	3.31957E-001	3.87634E-002	4.60004E+001	11	...........	6.47336E-002	-4.59264E-003	5.76565E-001	6.12655E-001	-2.90462E-002	-3.91043E-002	6.65010E-001	-4.33719E-002	2.15402E-003	-1.52820E-004	1.91852E-002	2.03861E-002	-9.66516E-004	-1.30120E-003	2.21283E-002	-1.44320E-003
	22	22	1.10033E+000	3.29521E-002	0.00000E+000	3.62583E-002	3.28745E-001	3.86942E-002	4.69387E+001	11	...........	6.46144E-002	-4.64875E-003	5.76645E-001	6.12677E-001	-2.90697E-002	-3.90776E-002	6.65137E-001	-4.33461E-002	2.12918E-003	-1.53186E-004	1.90017E-002	2.01890E-002	-9.57908E-004	-1.28769E-003	2.19176E-002	-1.42835E-003
	23	23	1.10027E+000	3.30143E-002	0.00000E+000	3.63247E-002	3.29367E-001	3.85988E-002	4.62779E+001	11	...........	6.44699E-002	-4.63028E-003	5.76737E-001	6.12720E-001	-2.90606E-002	-3.90781E-002	6.65065E-001	-4.33372E-002	2.12843E-003	-1.52865E-004	1.90406E-002	2.02285E-002	-9.59414E-004	-1.29013E-003	2.19566E-002	-1.43075E-003
	24	24	1.10033E+000	3.29485E-002	0.00000E+000	3.62543E-002	3.28717E-001	3.84771E-002	4.65223E+001	11	...........	6.42533E-002	-4.61278E-003	5.76663E-001	6.12900E-001	-2.90943E-002	-3.90408E-002	6.65085E-001	-4.34508E-002	2.11705E-003	-1.51984E-004	1.90002E-002	2.01941E-002	-9.58613E-004	-1.28634E-003	2.19135E-002	-1.43164E-003
	25	25	1.10034E+000	3.26203E-002	0.00000E+000	3.58934E-002	3.25451E-001	3.87188E-002	4.67283E+001	11	...........	6.46417E-002	-4.62889E-003	5.76790E-001	6.12776E-001	-2.90715E-002	-3.90249E-002	6.65118E-001	-4.34050E-002	2.10863E-003	-1.50996E-004	1.88151E-002	1.99890E-002	-9.48323E-004	-1.27300E-003	2.16964E-002	-1.41589E-003
	26	26	1.10027E+000	3.27116E-002	0.00000E+000	3.59917E-002	3.26357E-001	3.84431E-002	4.50070E+001	11	...........	6.42076E-002	-4.57750E-003	5.76725E-001	6.12702E-001	-2.90711E-002	-3.90368E-002	6.65168E-001	-4.34112E-002	2.10033E-003	-1.49737E-004	1.88656E-002	2.00425E-002	-9.50962E-004	-1.27696E-003	2.17587E-002	-1.42005E-003
	27	27	1.10033E+000	3.26790E-002	0.00000E+000	3.59576E-002	3.26033E-001	3.86058E-002	4.76230E+001	11	...........	6.44872E-002	-4.59375E-003	5.76466E-001	6.12798E-001	-2.90817E-002	-3.90465E-002	6.65113E-001	-4.35551E-002	2.10737E-003	-1.50119E-004	1.88383E-002	2.00256E-002	-9.50358E-004	-1.27600E-003	2.17352E-002	-1.42334E-003
	28	28	1.10034E+000	3.23379E-002	0.00000E+000	3.55827E-002	3.22639E-001	3.86001E-002	4.61512E+001	11	...........	6.44708E-002	-4.65444E-003	5.76481E-001	6.12798E-001	-2.90683E-002	-3.90556E-002	6.65187E-001	-4.37051E-002	2.08485E-003	-1.50515E-004	1.86422E-002	1.98166E-002	-9.40009E-004	-1.26297E-003	2.15107E-002	-1.41333E-003
	29	29	1.10027E+000	3.24241E-002	0.00000E+000	3.56752E-002	3.23493E-001	3.85550E-002	4.55286E+001	11	...........	6.43867E-002	-4.63486E-003	5.76371E-001	6.12891E-001	-2.90997E-002	-3.90485E-002	6.65210E-001	-4.35018E-002	2.08768E-003	-1.50281E-004	1.86883E-002	1.98724E-002	-9.43531E-004	-1.26611E-003	2.15688E-002	-1.41050E-003
	30	30	1.10033E+000	3.23742E-002	0.00000E+000	3.56223E-002	3.23000E-001	3.82296E-002	4.59725E+001	11	...........	6.38532E-002	-4.62250E-003	5.76359E-001	6.12990E-001	-2.90972E-002	-3.90399E-002	6.65170E-001	-4.33592E-002	2.06720E-003	-1.49650E-004	1.86592E-002	1.98451E-002	-9.42000E-004	-1.26388E-003	2.15344E-002	-1.40372E-003
	31	31	1.10034E+000	3.20833E-002	0.00000E+000	3.53026E-002	3.20107E-001	3.86090E-002	4.67989E+001	11	...........	6.44821E-002	-4.64194E-003	5.76325E-001	6.13114E-001	-2.90954E-002	-3.90581E-002	6.65092E-001	-4.35549E-002	2.06880E-003	-1.48929E-004	1.84904E-002	1.96707E-002	-9.33477E-004	-1.25311E-003	2.13383E-002	-1.39738E-003
	32	32	1.10027E+000	3.21531E-002	0.00000E+000	3.53771E-002	3.20801E-001	3.84066E-002	4.67198E+001	11	...........	6.41490E-002	-4.65236E-003	5.76506E-001	6.13180E-001	-2.90822E-002	-3.90724E-002	6.64961E-001	-4.36772E-002	2.06259E-003	-1.49588E-004	1.85365E-002	1.97156E-002	-9.35084E-004	-1.25630E-003	2.13806E-002	-1.40436E-003
	33	33	1.10032E+000	3.21381E-002	0.00000E+000	3.53624E-002	3.20651E-001	3.84158E-002	4.55695E+001	11	...........	6.41839E-002	-4.64667E-003	5.76652E-001	6.13206E-001	-2.90976E-002	-3.90964E-002	6.65010E-001	-4.35026E-002	2.06275E-003	-1.49335E-004	1.85325E-002	1.97073E-002	-9.35143E-004	-1.25648E-003	2.13722E-002	-1.39809E-003
	34	34	1.10035E+000	3.17934E-002	0.00000E+000	3.49837E-002	3.17221E-001	3.83326E-002	4.52044E+001	11	...........	6.40361E-002	-4.57333E-003	5.76518E-001	6.13134E-001	-2.91151E-002	-3.91106E-002	6.64993E-001	-4.34815E-002	2.03592E-003	-1.45402E-004	1.83294E-002	1.94936E-002	-9.25668E-004	-1.24346E-003	2.11424E-002	-1.38242E-003
	35	35	1.10027E+000	3.19242E-002	0.00000E+000	3.51253E-002	3.18519E-001	3.85726E-002	4.73596E+001	11	...........	6.44305E-002	-4.59306E-003	5.76522E-001	6.13217E-001	-2.90804E-002	-3.91372E-002	6.64917E-001	-4.34460E-002	2.05689E-003	-1.46630E-004	1.84050E-002	1.95765E-002	-9.28370E-004	-1.24943E-003	2.12269E-002	-1.38698E-003
	36	36	1.10032E+000	3.19056E-002	0.00000E+000	3.51064E-002	3.18337E-001	3.83229E-002	4.58673E+001	11	...........	6.40068E-002	-4.63625E-003	5.76303E-001	6.13175E-001	-2.91212E-002	-3.91233E-002	6.64983E-001	-4.34174E-002	2.04217E-003	-1.47922E-004	1.83873E-002	1.95637E-002	-9.29130E-004	-1.24825E-003	2.12167E-002	-1.38526E-003
	37	37	1.10035E+000	3.15872E-002	0.00000E+000	3.47570E-002	3.15171E-001	3.83398E-002	4.56049E+001	11	...........	6.40244E-002	-4.62625E-003	5.76266E-001	6.13285E-001	-2.91557E-002	-3.91031E-002	6.64969E-001	-4.34239E-002	2.02235E-003	-1.46130E-004	1.82026E-002	1.93719E-002	-9.20947E-004	-1.23516E-003	2.10045E-002	-1.37164E-003
	38	38	1.10027E+000	3.16731E-002	0.00000E+000	3.48490E-002	3.16024E-001	3.82934E-002	4.65489E+001	11	...........	6.39696E-002	-4.60028E-003	5.76267E-001	6.13331E-001	-2.91082E-002	-3.91356E-002	6.64965E-001	-4.33469E-002	2.02612E-003	-1.45705E-004	1.82522E-002	1.94261E-002	-9.21948E-004	-1.23955E-003	2.10615E-002	-1.37293E-003
	39	39	1.10032E+000	3.16716E-002	0.00000E+000	3.48489E-002	3.16007E-001	3.83308E-002	4.60687E+001	11	...........	6.39997E-002	-4.57444E-003	5.76216E-001	6.13384E-001	-2.91450E-002	-3.91710E-002	6.64940E-001	-4.33439E-002	2.02697E-003	-1.44880E-004	1.82497E-002	1.94268E-002	-9.23068E-004	-1.24061E-003	2.10597E-002	-1.37277E-003
	40	40	1.10035E+000	3.13462E-002	0.00000E+000	3.44919E-002	3.12771E-001	3.81938E-002	4.50310E+001	11	...........	6.37935E-002	-4.51931E-003	5.76125E-001	6.13513E-001	-2.91222E-002	-3.91556E-002	6.64914E-001	-4.33667E-002	1.99968E-003	-1.41663E-004	1.80593E-002	1.92313E-002	-9.12870E-004	-1.22738E-003	2.08425E-002	-1.35938E-003
	41	41	1.10027E+000	3.14084E-002	0.00000E+000	3.45577E-002	3.13388E-001	3.83113E-002	4.59709E+001	11	...........	6.39882E-002	-4.64708E-003	5.76055E-001	6.13600E-001	-2.91687E-002	-3.91185E-002	6.64899E-001	-4.33356E-002	2.00977E-003	-1.45957E-004	1.80930E-002	1.92722E-002	-9.16143E-004	-1.22865E-003	2.08834E-002	-1.36110E-003
	42	42	1.10032E+000	3.14309E-002	0.00000E+000	3.45839E-002	3.13609E-001	3.82562E-002	4.64222E+001	11	...........	6.38832E-002	-4.63569E-003	5.76226E-001	6.13420E-001	-2.91782E-002	-3.91136E-002	6.64852E-001	-4.33760E-002	2.00791E-003	-1.45704E-004	1.81113E-002	1.92803E-002	-9.17097E-004	-1.22938E-003	2.08969E-002	-1.36335E-003
	43	43	1.10036E+000	3.11202E-002	0.00000E+000	3.42433E-002	3.10521E-001	3.80764E-002	4.62465E+001	11	...........	6.35989E-002	-4.63167E-003	5.76190E-001	6.13444E-001	-2.91746E-002	-3.91782E-002	6.64896E-001	-4.33512E-002	1.97921E-003	-1.44138E-004	1.79312E-002	1.90905E-002	-9.07919E-004	-1.21923E-003	2.06917E-002	-1.34910E-003
	44	44	1.10027E+000	3.11736E-002	0.00000E+000	3.42992E-002	3.11053E-001	3.83757E-002	4.44188E+001	11	...........	6.40901E-002	-4.64986E-003	5.76231E-001	6.13404E-001	-2.91881E-002	-3.92101E-002	6.64919E-001	-4.33843E-002	1.99792E-003	-1.44953E-004	1.79632E-002	1.91220E-002	-9.09896E-004	-1.22232E-003	2.07279E-002	-1.35244E-003
	45	45	1.10032E+000	3.11921E-002	0.00000E+000	3.43212E-002	3.11237E-001	3.81165E-002	4.57224E+001	11	...........	6.36462E-002	-4.62458E-003	5.76436E-001	6.13448E-001	-2.91272E-002	-3.91821E-002	6.64823E-001	-4.35072E-002	1.98526E-003	-1.44251E-004	1.79803E-002	1.91348E-002	-9.08540E-004	-1.22217E-003	2.07372E-002	-1.35708E-003
	46	46	1.10036E+000	3.09117E-002	0.00000E+000	3.40139E-002	3.08452E-001	3.82964E-002	4.62673E+001	11	...........	6.39737E-002	-4.60597E-003	5.76599E-001	6.13360E-001	-2.91332E-002	-3.91218E-002	6.64899E-001	-4.38176E-002	1.97754E-003	-1.42378E-004	1.78237E-002	1.89600E-002	-9.00556E-004	-1.20932E-003	2.05531E-002	-1.35448E-003
	47	47	1.10027E+000	3.09585E-002	0.00000E+000	3.40625E-002	3.08915E-001	3.79883E-002	4.64835E+001	11	...........	6.37104E-002	-4.58694E-003	5.76606E-001	6.13255E-001	-2.91921E-002	-3.91269E-002	6.64741E-001	-4.36264E-002	1.97238E-003	-1.42005E-004	1.78508E-002	1.89854E-002	-9.03742E-004	-1.21131E-003	2.05794E-002	-1.35061E-003
	48	48	1.10031E+000	3.09835E-002	0.00000E+000	3.40916E-002	3.09165E-001	3.80813E-002	4.58453E+001	11	...........	6.36261E-002	-4.58431E-003	5.76546E-001	6.13290E-001	-2.91507E-002	-3.91690E-002	6.64745E-001	-4.33708E-002	1.97136E-003	-1.42038E-004	1.78634E-002	1.90018E-002	-9.03189E-004	-1.21359E-003	2.05961E-002	-1.34378E-003
	49	49	1.10036E+000	3.06981E-002	0.00000E+000	3.37790E-002	3.06327E-001	3.83072E-002	4.60770E+001	11	...........	6.39950E-002	-4.57069E-003	5.76667E-001	6.13146E-001	-2.91550E-002	-3.92003E-002	6.64734E-001	-4.34175E-002	1.96452E-003	-1.40312E-004	1.77026E-002	1.88224E-002	-8.95003E-004	-1.20337E-003	2.04061E-002	-1.33283E-003
	50	50	1.10027E+000	3.07191E-002	0.00000E+000	3.37992E-002	3.06535E-001	3.80362E-002	4.64276E+001	11	...........	6.35253E-002	-4.57236E-003	5.76762E-001	6.13207E-001	-2.91243E-002	-3.91804E-002	6.64884E-001	-4.34835E-002	1.95144E-003	-1.40459E-004	1.77176E-002	1.88372E-002	-8.94673E-004	-1.20359E-003	2.04247E-002	-1.33577E-003
	51	51	1.10031E+000	3.07724E-002	0.00000E+000	3.38593E-002	3.07067E-001	3.82170E-002	4.65627E+001	11	...........	6.38194E-002	-4.63986E-003	5.76828E-001	6.13276E-001	-2.91276E-002	-3.91504E-002	6.64975E-001	-4.35650E-002	1.96388E-003	-1.42780E-004	1.77504E-002	1.88720E-002	-8.96329E-004	-1.20475E-003	2.04629E-002	-1.34060E-003
	52	52	1.10036E+000	3.04653E-002	0.00000E+000	3.35229E-002	3.04013E-001	3.81397E-002	4.52714E+001	11	...........	6.36887E-002	-4.59194E-003	5.76826E-001	6.13235E-001	-2.91674E-002	-3.91251E-002	6.65019E-001	-4.34928E-002	1.94029E-003	-1.39895E-004	1.75732E-002	1.86824E-002	-8.88591E-004	-1.19196E-003	2.02600E-002	-1.32502E-003
	53	53	1.10027E+000	3.04794E-002	0.00000E+000	3.35355E-002	3.04155E-001	3.80042E-002	4.58086E+001	11	...........	6.34676E-002	-4.60597E-003	5.76734E-001	6.13251E-001	-2.91485E-002	-3.91631E-002	6.64957E-001	-4.34854E-002	1.93446E-003	-1.40387E-004	1.75785E-002	1.86916E-002	-8.88429E-004	-1.19367E-003	2.02675E-002	-1.32541E-003
	54	54	1.10031E+000	3.05322E-002	0.00000E+000	3.35949E-002	3.04679E-001	3.81747E-002	4.51532E+001	11	...........	6.37501E-002	-4.59250E-003	5.76733E-001	6.13174E-001	-2.91625E-002	-3.91903E-002	6.65054E-001	-4.33710E-002	1.94643E-003	-1.40219E-004	1.76089E-002	1.87215E-002	-8.90395E-004	-1.19656E-003	2.03055E-002	-1.32421E-003
	55	55	1.10036E+000	3.02623E-002	0.00000E+000	3.32996E-002	3.02000E-001	3.81518E-002	4.61440E+001	11	...........	6.37026E-002	-4.60833E-003	5.76575E-001	6.13073E-001	-2.91271E-002	-3.91694E-002	6.65017E-001	-4.34144E-002	1.92779E-003	-1.39459E-004	1.74485E-002	1.85530E-002	-8.81453E-004	-1.18536E-003	2.01249E-002	-1.31382E-003
	56	56	1.10027E+000	3.02927E-002	0.00000E+000	3.33301E-002	3.02300E-001	3.80950E-002	4.61930E+001	11	...........	6.36396E-002	-4.50972E-003	5.76601E-001	6.13086E-001	-2.91118E-002	-3.91224E-002	6.64923E-001	-4.33622E-002	1.92782E-003	-1.36612E-004	1.74668E-002	1.85721E-002	-8.81876E-004	-1.18512E-003	2.01423E-002	-1.31356E-003
	57	57	1.10031E+000	3.03201E-002	0.00000E+000	3.33614E-002	3.02568E-001	3.80897E-002	4.55891E+001	11	...........	6.36058E-002	-4.56986E-003	5.76522E-001	6.13126E-001	-2.91758E-002	-3.90974E-002	6.64957E-001	-4.33704E-002	1.92854E-003	-1.38559E-004	1.74802E-002	1.85900E-002	-8.84614E-004	-1.18544E-003	2.01616E-002	-1.31500E-003
	58	58	1.10037E+000	3.00401E-002	0.00000E+000	3.30551E-002	2.99783E-001	3.79878E-002	4.52999E+001	11	...........	6.34599E-002	-4.53347E-003	5.76478E-001	6.13142E-001	-2.91328E-002	-3.91453E-002	6.64965E-001	-4.34376E-002	1.90634E-003	-1.36186E-004	1.73175E-002	1.84189E-002	-8.75152E-004	-1.17593E-003	1.99756E-002	-1.30487E-003
	59	59	1.10027E+000	3.00317E-002	0.00000E+000	3.30429E-002	2.99705E-001	3.77422E-002	4.35135E+001	11	...........	6.30189E-002	-4.52736E-003	5.76508E-001	6.13273E-001	-2.91394E-002	-3.91397E-002	6.65021E-001	-4.34379E-002	1.89257E-003	-1.35964E-004	1.73135E-002	1.84176E-002	-8.75107E-004	-1.17543E-003	1.99717E-002	-1.30452E-003
	60	60	1.10031E+000	3.01402E-002	0.00000E+000	3.31635E-002	3.00779E-001	3.81799E-002	4.53810E+001	11	...........	6.37758E-002	-4.50986E-003	5.76490E-001	6.13237E-001	-2.91325E-002	-3.91636E-002	6.64982E-001	-4.34021E-002	1.92222E-003	-1.35928E-004	1.73755E-002	1.84831E-002	-8.78060E-004	-1.18040E-003	2.00427E-002	-1.30815E-003
	61	61	1.10037E+000	2.98404E-002	0.00000E+000	3.28353E-002	2.97798E-001	3.80934E-002	4.66887E+001	11	...........	6.36469E-002	-4.49569E-003	5.76498E-001	6.13261E-001	-2.90904E-002	-3.91439E-002	6.64904E-001	-4.34867E-002	1.89925E-003	-1.34153E-004	1.72029E-002	1.82999E-002	-8.68069E-004	-1.16807E-003	1.98410E-002	-1.29766E-003
	62	62	1.10027E+000	2.98546E-002	0.00000E+000	3.28480E-002	2.97941E-001	3.79782E-002	4.51552E+001	11	...........	6.34189E-002	-4.41958E-003	5.76654E-001	6.13120E-001	-2.90917E-002	-3.91314E-002	6.64937E-001	-4.34482E-002	1.89334E-003	-1.31945E-004	1.72158E-002	1.83045E-002	-8.68520E-004	-1.16825E-003	1.98514E-002	-1.29713E-003
	63	63	1.10031E+000	2.99125E-002	0.00000E+000	3.29129E-002	2.98519E-001	3.81843E-002	4.61617E+001	11	...........	6.37771E-002	-4.58875E-003	5.76762E-001	6.13087E-001	-2.90950E-002	-3.91551E-002	6.64815E-001	-4.33640E-002	1.90773E-003	-1.37261E-004	1.72524E-002	1.83390E-002	-8.70305E-004	-1.17123E-003	1.98863E-002	-1.29713E-003
	64	64	1.10037E+000	2.96518E-002	0.00000E+000	3.26279E-002	2.95929E-001	3.78355E-002	4.44943E+001	11	...........	6.31676E-002	-4.54069E-003	5.76558E-001	6.13168E-001	-2.91497E-002	-3.91458E-002	6.64777E-001	-4.33794E-002	1.87303E-003	-1.34640E-004	1.70960E-002	1.81815E-002	-8.64341E-004	-1.16074E-003	1.97118E-002	-1.28628E-003
	65	65	1.10027E+000	2.96416E-002	0.00000E+000	3.26136E-002	2.95831E-001	3.80329E-002	4.54485E+001	11	...........	6.35213E-002	-4.59375E-003	5.76479E-001	6.13118E-001	-2.92092E-002	-3.91631E-002	6.64860E-001	-4.34542E-002	1.88287E-003	-1.36166E-004	1.70877E-002	1.81738E-002	-8.65805E-004	-1.16085E-003	1.97075E-002	-1.28805E-003
	66	66	1.10030E+000	2.97149E-002	0.00000E+000	3.26954E-002	2.96555E-001	3.79962E-002	4.69511E+001	11	...........	6.34832E-002	-4.58028E-003	5.76473E-001	6.12975E-001	-2.91836E-002	-3.91672E-002	6.64839E-001	-4.34612E-002	1.88639E-003	-1.36102E-004	1.71298E-002	1.82145E-002	-8.67187E-004	-1.16385E-003	1.97556E-002	-1.29145E-003
	67	67	1.10037E+000	2.94512E-002	0.00000E+000	3.24072E-002	2.93941E-001	3.77964E-002	4.54470E+001	11	...........	6.31237E-002	-4.53208E-003	5.76491E-001	6.12754E-001	-2.92051E-002	-3.91332E-002	6.64844E-001	-4.36046E-002	1.85907E-003	-1.33475E-004	1.69784E-002	1.80464E-002	-8.60127E-004	-1.15252E-003	1.95805E-002	-1.28421E-003
	68	68	1.10027E+000	2.94174E-002	0.00000E+000	3.23670E-002	2.93598E-001	3.80298E-002	4.62709E+001	11	...........	6.35160E-002	-4.58875E-003	5.76596E-001	6.12700E-001	-2.92008E-002	-3.91336E-002	6.64855E-001	-4.34710E-002	1.86847E-003	-1.34989E-004	1.69619E-002	1.80240E-002	-8.59011E-004	-1.15121E-003	1.95583E-002	-1.27880E-003
	69	69	1.10030E+000	2.95083E-002	0.00000E+000	3.24680E-002	2.94504E-001	3.79277E-002	4.39305E+001	11	...........	6.33336E-002	-4.44306E-003	5.76615E-001	6.12922E-001	-2.91962E-002	-3.91269E-002	6.64825E-001	-4.37444E-002	1.86887E-003	-1.31107E-004	1.70149E-002	1.80863E-002	-8.61531E-004	-1.15457E-003	1.96178E-002	-1.29082E-003
	70	70	1.10037E+000	2.92509E-002	0.00000E+000	3.21868E-002	2.91943E-001	3.78634E-002	4.50547E+001	11	...........	6.32374E-002	-4.53083E-003	5.76535E-001	6.13065E-001	-2.92132E-002	-3.91067E-002	6.64733E-001	-4.36633E-002	1.84975E-003	-1.32531E-004	1.68642E-002	1.79327E-002	-8.54512E-004	-1.14390E-003	1.94440E-002	-1.27719E-003
	71	71	1.10027E+000	2.92354E-002	0.00000E+000	3.21668E-002	2.91795E-001	3.79007E-002	4.63019E+001	11	...........	6.33011E-002	-4.63903E-003	5.76581E-001	6.12906E-001	-2.92136E-002	-3.91317E-002	6.64751E-001	-4.36608E-002	1.85064E-003	-1.35624E-004	1.68566E-002	1.79186E-002	-8.54073E-004	-1.14403E-003	1.94343E-002	-1.27644E-003
	72	72	1.10030E+000	2.93012E-002	0.00000E+000	3.22401E-002	2.92443E-001	3.78099E-002	4.58942E+001	11	...........	6.31347E-002	-4.62097E-003	5.76320E-001	6.12963E-001	-2.92147E-002	-3.91287E-002	6.64872E-001	-4.37694E-002	1.84992E-003	-1.35400E-004	1.68869E-002	1.79605E-002	-8.56026E-004	-1.14652E-003	1.94815E-002	-1.28250E-003
	73	73	1.10037E+000	2.90759E-002	0.00000E+000	3.19943E-002	2.90210E-001	3.78310E-002	4.63965E+001	11	...........	6.31918E-002	-4.58125E-003	5.76307E-001	6.13079E-001	-2.91681E-002	-3.91158E-002	6.64930E-001	-4.37268E-002	1.83736E-003	-1.33204E-004	1.67567E-002	1.78259E-002	-8.48088E-004	-1.13733E-003	1.93335E-002	-1.27140E-003
	74	74	1.10027E+000	2.90227E-002	0.00000E+000	3.19328E-002	2.89679E-001	3.79717E-002	4.45006E+001	11	...........	6.34085E-002	-4.59653E-003	5.76422E-001	6.13181E-001	-2.91458E-002	-3.90964E-002	6.64996E-001	-4.36547E-002	1.84028E-003	-1.33403E-004	1.67293E-002	1.77962E-002	-8.45890E-004	-1.13468E-003	1.92999E-002	-1.26698E-003
	75	75	1.10030E+000	2.91100E-002	0.00000E+000	3.20296E-002	2.90543E-001	3.77152E-002	4.57687E+001	11	...........	6.29731E-002	-4.51528E-003	5.76553E-001	6.13186E-001	-2.91428E-002	-3.91093E-002	6.65053E-001	-4.36140E-002	1.83314E-003	-1.31440E-004	1.67834E-002	1.78498E-002	-8.48345E-004	-1.13847E-003	1.93597E-002	-1.26960E-003
	76	76	1.10037E+000	2.89031E-002	0.00000E+000	3.18041E-002	2.88487E-001	3.78237E-002	4.58242E+001	11	...........	6.31593E-002	-4.62847E-003	5.76865E-001	6.13177E-001	-2.91582E-002	-3.91049E-002	6.64934E-001	-4.36200E-002	1.82550E-003	-1.33777E-004	1.66732E-002	1.77227E-002	-8.42761E-004	-1.13025E-003	1.92186E-002	-1.26075E-003
	77	77	1.10027E+000	2.88250E-002	0.00000E+000	3.17153E-002	2.87712E-001	3.78822E-002	4.58700E+001	11	...........	6.32558E-002	-4.64403E-003	5.76984E-001	6.13306E-001	-2.91899E-002	-3.91467E-002	6.64925E-001	-4.34882E-002	1.82335E-003	-1.33864E-004	1.66316E-002	1.76786E-002	-8.41399E-004	-1.12840E-003	1.91665E-002	-1.25355E-003
	78	78	1.10030E+000	2.89076E-002	0.00000E+000	3.18070E-002	2.88529E-001	3.77431E-002	4.64368E+001	11	...........	6.30460E-002	-4.64417E-003	5.77015E-001	6.13322E-001	-2.92174E-002	-3.91726E-002	6.64941E-001	-4.33740E-002	1.82251E-003	-1.34252E-004	1.66801E-002	1.77297E-002	-8.44604E-004	-1.13239E-003	1.92218E-002	-1.25384E-003
	79	79	1.10037E+000	2.86642E-002	0.00000E+000	3.15412E-002	2.86110E-001	3.75550E-002	4.37527E+001	11	...........	6.26994E-002	-4.65167E-003	5.77110E-001	6.13125E-001	-2.91900E-002	-3.91921E-002	6.64958E-001	-4.34437E-002	1.79723E-003	-1.33336E-004	1.65424E-002	1.75747E-002	-8.36708E-004	-1.12341E-003	1.90605E-002	-1.24528E-003
	80	80	1.10027E+000	2.86311E-002	0.00000E+000	3.15020E-002	2.85784E-001	3.78473E-002	4.52786E+001	11	...........	6.32089E-002	-4.62667E-003	5.77221E-001	6.13032E-001	-2.92083E-002	-3.91571E-002	6.65094E-001	-4.35610E-002	1.80974E-003	-1.32467E-004	1.65265E-002	1.75518E-002	-8.36268E-004	-1.12111E-003	1.90424E-002	-1.24720E-003
	81	81	1.10030E+000	2.87390E-002	0.00000E+000	3.16214E-002	2.86857E-001	3.78901E-002	4.59099E+001	11	...........	6.32967E-002	-4.66000E-003	5.77326E-001	6.13170E-001	-2.92179E-002	-3.91819E-002	6.65056E-001	-4.34317E-002	1.81908E-003	-1.33924E-004	1.65918E-002	1.76219E-002	-8.39694E-004	-1.12605E-003	1.91130E-002	-1.24818E-003
	82	82	1.10037E+000	2.85129E-002	0.00000E+000	3.13748E-002	2.84611E-001	3.76327E-002	4.55545E+001	11	...........	6.28551E-002	-4.64625E-003	5.77235E-001	6.13013E-001	-2.91575E-002	-3.92065E-002	6.64966E-001	-4.35101E-002	1.79218E-003	-1.32478E-004	1.64586E-002	1.74788E-002	-8.31365E-004	-1.11789E-003	1.89601E-002	-1.24060E-003
	83	83	1.10027E+000	2.84437E-002	0.00000E+000	3.12958E-002	2.83919E-001	3.77725E-002	4.65469E+001	11	...........	6.30846E-002	-4.59653E-003	5.77283E-001	6.12977E-001	-2.91614E-002	-3.92239E-002	6.64892E-001	-4.34556E-002	1.79436E-003	-1.30742E-004	1.64201E-002	1.74353E-002	-8.29458E-004	-1.11567E-003	1.89120E-002	-1.23604E-003
	84	84	1.10030E+000	2.85070E-002	0.00000E+000	3.13662E-002	2.84551E-001	3.75624E-002	4.45031E+001	11	...........	6.27110E-002	-4.61222E-003	5.77390E-001	6.12927E-001	-2.91576E-002	-3.92512E-002	6.64868E-001	-4.34285E-002	1.78770E-003	-1.31481E-004	1.64597E-002	1.74727E-002	-8.31197E-004	-1.11894E-003	1.89534E-002	-1.23802E-003
	85	85	1.10037E+000	2.83213E-002	0.00000E+000	3.11639E-002	2.82709E-001	3.78084E-002	4.49876E+001	11	...........	6.31450E-002	-4.54458E-003	5.77230E-001	6.13039E-001	-2.91994E-002	-3.92532E-002	6.64979E-001	-4.34440E-002	1.78835E-003	-1.28708E-004	1.63479E-002	1.73621E-002	-8.26966E-004	-1.11170E-003	1.88331E-002	-1.23039E-003
	86	86	1.10027E+000	2.82583E-002	0.00000E+000	3.10919E-002	2.82080E-001	3.77625E-002	4.71423E+001	11	...........	6.30725E-002	-4.56375E-003	5.77363E-001	6.13168E-001	-2.91619E-002	-3.92247E-002	6.64974E-001	-4.34357E-002	1.78232E-003	-1.28964E-004	1.63153E-002	1.73271E-002	-8.24068E-004	-1.10843E-003	1.87911E-002	-1.22742E-003
	87	86.1283	1.10064E+000	2.86327E-002	0.00000E+000	3.15142E-002	2.85800E-001	3.77610E-002	4.55495E+001	11	...........	6.30465E-002	-4.65368E-003	5.77531E-001	6.13095E-001	-2.91299E-002	-3.92251E-002	6.64946E-001	-4.33344E-002	1.80519E-003	-1.33247E-004	1.65363E-002	1.75546E-002	-8.34067E-004	-1.12312E-003	1.90392E-002	-1.24078E-003
STARTTIMEOFFSET	QUANT	786021.9	Start Time Offset (s)
