EXPLAIN
TAG	PWR800_CHARGE
TITLE	LABEL	PWR Charge	Test Identifier
DATE	LABEL	10/15/2022	Date
TIME	LABEL	16:05:39	Time
NOTES	NOTES	1	Notes...
	
PSTAT	PSTAT	REF3000-21114	Potentiostat
CAPACITY	QUANT	5.30000E-002	Capacity (A-hr)
CELLTYPE	SELECTOR	1	Cell Type
WORKINGCONNECTION	SELECTOR	0	Working Connection
MAXCHARGETIME	VARIABLEANDUNITS	7.20000E+003	s	2.00000E+000	hour(s)	Max Charge Time
CHARGEMODE	MULTIPARAM	0	1.00000E-001	Charge Mode	Constant Current	Amp(s)
CHARGECURRENT	QUANT	0.1	Charge Current (A)
VOLTAGEFINISH	TWOPARAM	T	2.50000E-002	7.20000E+003	Voltage Finish	I (A) <	Max Time(s)
SAMPLETIME	QUANT	1.00000E+000	Sample Period (s)
CHARGESTOPAT1	MULTIPARAM	2	1.10000E+000	Stop At 1	|Voltage| > Limit	V
CHARGESTOPAT2	MULTIPARAM	0	0.00000E+000	Stop At 2	None	N/A
AESELECTOR	AESELECTOR	0x1	T	Set Limits	AE Channels
AESBHCSELECTOR	TOGGLE	F	Save Both Half Cells
IRCOMP	TOGGLE	F	IR Measure
EOC	QUANT	0.2791148	Open Circuit (V)
SEQUENCER	TOGGLE	TRUE	Run as Sequence
PSTATMODEL	IQUANT	5	Pstat Model
PSTATSECTION	LABEL	REF3000-21114	Pstat Section
PSTATSERIALNO	LABEL	21114	Pstat Serial Number
CTRLMODE	IQUANT	0	Control Mode
ELECTROMETER	IQUANT	0	RE=0 or CS=1
IESTAB	IQUANT	0	I/E Stability
CASPEED	IQUANT	4	Control Amp Speed
CONVENTION	IQUANT	1	Current Convention
ICHRANGE	IQUANT	2	Ich Range
ICHRANGEMODE	TOGGLE	T	Ich Auto Range
ICHOFFSETENABLE	TOGGLE	F	Ich Offset Enable
ICHOFFSET	QUANT	0	Ich Offset (V)
ICHFILTER	IQUANT	1	Ich Filter
VCHRANGE	IQUANT	3	Vch Range
VCHRANGEMODE	TOGGLE	T	Vch Auto Range
VCHOFFSETENABLE	TOGGLE	F	Vch Offset Enable
VCHOFFSET	QUANT	0	Vch Offset (V)
VCHFILTER	IQUANT	1	Vch Filter
ACHRANGE	IQUANT	2	Ach Range
ACHOFFSETENABLE	TOGGLE	F	Ach Offset Enable
ACHOFFSET	QUANT	0	Ach Offset (V)
ACHFILTER	IQUANT	1	Ach Filter
IERANGELOWERLIMIT	IQUANT	9	I/E Range Lower Limit
IERANGEMODE	TOGGLE	F	I/E AutoRange
IERANGE	IQUANT	9	I/E Range
POSFEEDENABLE	TOGGLE	F	Positive Feedback IR Comp
POSFEEDRESISTANCE	QUANT	0	Positive Feedback Resistance (ohm)
ACHSELECT	IQUANT	1	Ach Select
SENSECABLEID	IQUANT	13	Sense Cable ID
PWRCABLEID	IQUANT	13	Power Cable ID
DCCALDATE	LABEL		DC Calibration Date
ACCALDATE	LABEL		AC Calibration Date
THERMOSELECT	IQUANT	1	Thermo Select
FRAMEWORKVERSION	LABEL	7.8.6	Framework Version
INSTRUMENTVERSION	LABEL	4.50	Instrument Version
COMPLIANCEVOLTAGE	IQUANT	0	Compliance Voltage
CURVE	TABLE	115
	Pt	T	Vf	Im	Vu	Pwr	Sig	Ach	Temp	IERange	Over	Vf1	Vf2	Vf3	Vf4	Vf5	Vf6	Vf7	Vf8	Pwr1	Pwr2	Pwr3	Pwr4	Pwr5	Pwr6	Pwr7	Pwr8
	#	s	V	A	V	W	V	V	deg C	#	bits	V	V	V	V	V	V	V	V	W	W	W	W	W	W	W	W
	0	1	5.64385E-001	9.98619E-002	0.00000E+000	5.63606E-002	9.94000E-001	3.90780E-002	4.04320E+001	11	...........	6.48525E-002	-3.64958E-003	5.66988E-001	6.67952E-001	-2.97115E-002	-3.86146E-002	6.40788E-001	-4.26246E-002	6.47629E-003	-3.64454E-004	5.66205E-002	6.67030E-002	-2.96705E-003	-3.85612E-003	6.39903E-002	-4.25657E-003
	1	2	7.65251E-001	9.98626E-002	0.00000E+000	7.64200E-002	9.94000E-001	3.96992E-002	4.32077E+001	11	...........	6.58678E-002	-3.59014E-003	5.66990E-001	6.67732E-001	-2.96914E-002	-3.86268E-002	6.40749E-001	-4.26344E-002	6.57773E-003	-3.58520E-004	5.66211E-002	6.66815E-002	-2.96506E-003	-3.85737E-003	6.39869E-002	-4.25758E-003
	2	2.28333	1.02193E+000	9.98633E-002	0.00000E+000	1.02053E-001	9.94000E-001	4.03712E-002	4.75673E+001	11	...........	6.70083E-002	-3.73186E-003	5.66975E-001	6.67699E-001	-2.96412E-002	-3.86206E-002	6.40675E-001	-4.26201E-002	6.69167E-003	-3.72676E-004	5.66200E-002	6.66786E-002	-2.96007E-003	-3.85678E-003	6.39799E-002	-4.25618E-003
	3	3	1.10148E+000	6.95606E-002	0.00000E+000	7.66192E-002	6.92679E-001	3.96806E-002	4.94447E+001	11	...........	6.58232E-002	-3.74748E-003	5.66999E-001	6.67689E-001	-2.95930E-002	-3.86238E-002	6.40712E-001	-4.26289E-002	4.57870E-003	-2.60677E-004	3.94408E-002	4.64448E-002	-2.05851E-003	-2.68670E-003	4.45683E-002	-2.96529E-003
	4	4	1.10091E+000	5.09466E-002	0.00000E+000	5.60877E-002	5.07593E-001	3.97084E-002	4.84603E+001	11	...........	6.58929E-002	-3.63014E-003	5.66915E-001	6.67831E-001	-2.95637E-002	-3.86328E-002	6.40557E-001	-4.25515E-002	3.35702E-003	-1.84943E-004	2.88824E-002	3.40237E-002	-1.50617E-003	-1.96821E-003	3.26342E-002	-2.16785E-003
	5	5	1.10080E+000	4.53131E-002	0.00000E+000	4.98806E-002	4.51581E-001	3.96247E-002	4.66895E+001	11	...........	6.57539E-002	-3.61833E-003	5.66621E-001	6.68028E-001	-2.96672E-002	-3.86087E-002	6.40468E-001	-4.25051E-002	2.97951E-003	-1.63958E-004	2.56754E-002	3.02704E-002	-1.34431E-003	-1.74948E-003	2.90216E-002	-1.92604E-003
	6	6	1.10086E+000	4.24492E-002	0.00000E+000	4.67304E-002	4.23104E-001	3.95649E-002	4.81314E+001	11	...........	6.56504E-002	-3.51264E-003	5.66548E-001	6.67978E-001	-2.97464E-002	-3.86281E-002	6.40454E-001	-4.25743E-002	2.78680E-003	-1.49109E-004	2.40495E-002	2.83551E-002	-1.26271E-003	-1.63973E-003	2.71867E-002	-1.80724E-003
	7	7	1.10083E+000	4.04012E-002	0.00000E+000	4.44748E-002	4.02743E-001	3.96789E-002	4.86989E+001	11	...........	6.58342E-002	-3.53986E-003	5.66832E-001	6.67873E-001	-2.97536E-002	-3.86329E-002	6.40357E-001	-4.26154E-002	2.65978E-003	-1.43015E-004	2.29007E-002	2.69829E-002	-1.20208E-003	-1.56082E-003	2.58712E-002	-1.72171E-003
	8	8	1.10077E+000	3.93821E-002	0.00000E+000	4.33505E-002	3.92611E-001	3.95598E-002	4.69977E+001	11	...........	6.56424E-002	-3.59917E-003	5.66886E-001	6.67716E-001	-2.97617E-002	-3.86222E-002	6.40396E-001	-4.26301E-002	2.58513E-003	-1.41743E-004	2.23251E-002	2.62960E-002	-1.17208E-003	-1.52102E-003	2.52201E-002	-1.67886E-003
	9	9	1.10083E+000	3.85761E-002	0.00000E+000	4.24659E-002	3.84601E-001	3.95075E-002	4.51982E+001	11	...........	6.55701E-002	-3.63472E-003	5.66750E-001	6.67441E-001	-2.97006E-002	-3.85979E-002	6.40485E-001	-4.25633E-002	2.52944E-003	-1.40213E-004	2.18630E-002	2.57473E-002	-1.14573E-003	-1.48896E-003	2.47074E-002	-1.64193E-003
	10	10	1.10082E+000	3.77034E-002	0.00000E+000	4.15048E-002	3.75925E-001	3.96530E-002	4.71764E+001	11	...........	6.57674E-002	-3.55722E-003	5.66699E-001	6.67498E-001	-2.96069E-002	-3.85786E-002	6.40450E-001	-4.25860E-002	2.47965E-003	-1.34119E-004	2.13665E-002	2.51669E-002	-1.11628E-003	-1.45454E-003	2.41471E-002	-1.60564E-003
	11	11	1.10076E+000	3.74421E-002	0.00000E+000	4.12149E-002	3.73323E-001	3.96492E-002	4.73873E+001	11	...........	6.57418E-002	-3.67944E-003	5.66877E-001	6.67492E-001	-2.96808E-002	-3.85656E-002	6.40377E-001	-4.25646E-002	2.46151E-003	-1.37766E-004	2.12251E-002	2.49923E-002	-1.11131E-003	-1.44398E-003	2.39771E-002	-1.59371E-003
	12	12	1.10083E+000	3.71227E-002	0.00000E+000	4.08657E-002	3.70147E-001	3.95495E-002	4.72531E+001	11	...........	6.56271E-002	-3.69875E-003	5.66860E-001	6.67645E-001	-2.97412E-002	-3.85724E-002	6.40400E-001	-4.26351E-002	2.43626E-003	-1.37308E-004	2.10434E-002	2.47848E-002	-1.10408E-003	-1.43191E-003	2.37734E-002	-1.58273E-003
	13	13	1.10082E+000	3.65070E-002	0.00000E+000	4.01878E-002	3.64027E-001	3.94254E-002	4.54068E+001	11	...........	6.54358E-002	-3.69958E-003	5.66647E-001	6.67553E-001	-2.97769E-002	-3.85856E-002	6.40390E-001	-4.26553E-002	2.38886E-003	-1.35061E-004	2.06866E-002	2.43704E-002	-1.08707E-003	-1.40864E-003	2.33787E-002	-1.55722E-003
	14	14	1.10076E+000	3.64651E-002	0.00000E+000	4.01393E-002	3.63610E-001	3.93937E-002	4.54750E+001	11	...........	6.53996E-002	-3.54514E-003	5.66390E-001	6.67531E-001	-2.97835E-002	-3.85894E-002	6.40421E-001	-4.25697E-002	2.38480E-003	-1.29274E-004	2.06535E-002	2.43416E-002	-1.08606E-003	-1.40717E-003	2.33530E-002	-1.55231E-003
	15	15	1.10082E+000	3.63571E-002	0.00000E+000	4.00227E-002	3.62532E-001	3.97506E-002	4.71027E+001	11	...........	6.59597E-002	-3.51750E-003	5.66552E-001	6.67596E-001	-2.97074E-002	-3.85712E-002	6.40544E-001	-4.25642E-002	2.39810E-003	-1.27886E-004	2.05982E-002	2.42719E-002	-1.08007E-003	-1.40234E-003	2.32883E-002	-1.54751E-003
	16	16	1.10083E+000	3.58655E-002	0.00000E+000	3.94817E-002	3.57646E-001	3.94062E-002	4.56637E+001	11	...........	6.54085E-002	-3.55292E-003	5.66595E-001	6.67707E-001	-2.96433E-002	-3.85496E-002	6.40550E-001	-4.25240E-002	2.34591E-003	-1.27427E-004	2.03212E-002	2.39476E-002	-1.06317E-003	-1.38260E-003	2.29736E-002	-1.52514E-003
	17	17	1.10076E+000	3.59269E-002	0.00000E+000	3.95468E-002	3.58261E-001	3.94879E-002	4.68955E+001	11	...........	6.55011E-002	-3.65611E-003	5.66718E-001	6.67757E-001	-2.97247E-002	-3.85664E-002	6.40553E-001	-4.26286E-002	2.35325E-003	-1.31353E-004	2.03604E-002	2.39904E-002	-1.06792E-003	-1.38557E-003	2.30131E-002	-1.53151E-003
	18	18	1.10082E+000	3.58175E-002	0.00000E+000	3.94285E-002	3.57177E-001	3.94787E-002	4.68095E+001	11	...........	6.54860E-002	-3.56417E-003	5.66966E-001	6.67684E-001	-2.97742E-002	-3.85632E-002	6.40559E-001	-4.26378E-002	2.34554E-003	-1.27659E-004	2.03073E-002	2.39148E-002	-1.06644E-003	-1.38124E-003	2.29432E-002	-1.52718E-003
	19	19	1.10083E+000	3.54127E-002	0.00000E+000	3.89834E-002	3.53147E-001	3.92788E-002	4.60845E+001	11	...........	6.51567E-002	-3.53792E-003	5.66900E-001	6.67721E-001	-2.97697E-002	-3.85833E-002	6.40457E-001	-4.26047E-002	2.30737E-003	-1.25287E-004	2.00754E-002	2.36458E-002	-1.05423E-003	-1.36634E-003	2.26803E-002	-1.50875E-003
	20	20	1.10076E+000	3.55096E-002	0.00000E+000	3.90874E-002	3.54111E-001	3.93487E-002	4.59461E+001	11	...........	6.55210E-002	-3.69292E-003	5.67014E-001	6.67820E-001	-2.98061E-002	-3.85808E-002	6.40385E-001	-4.25989E-002	2.32662E-003	-1.31134E-004	2.01344E-002	2.37140E-002	-1.05840E-003	-1.36999E-003	2.27398E-002	-1.51267E-003
	21	21	1.10081E+000	3.54869E-002	0.00000E+000	3.90645E-002	3.53886E-001	3.90847E-002	4.73910E+001	11	...........	6.52350E-002	-3.68875E-003	5.66939E-001	6.67959E-001	-2.97400E-002	-3.85750E-002	6.40401E-001	-4.26074E-002	2.31499E-003	-1.30902E-004	2.01189E-002	2.37038E-002	-1.05538E-003	-1.36891E-003	2.27258E-002	-1.51200E-003
	22	22	1.10083E+000	3.50713E-002	0.00000E+000	3.86077E-002	3.49756E-001	3.91709E-002	4.62651E+001	11	...........	6.53782E-002	-3.70069E-003	5.66883E-001	6.67824E-001	-2.97085E-002	-3.85643E-002	6.40412E-001	-4.25792E-002	2.29290E-003	-1.29788E-004	1.98813E-002	2.34215E-002	-1.04192E-003	-1.35250E-003	2.24601E-002	-1.49331E-003
	23	23	1.10076E+000	3.51152E-002	0.00000E+000	3.86533E-002	3.50189E-001	3.89947E-002	4.58442E+001	11	...........	6.50910E-002	-3.68083E-003	5.66741E-001	6.67641E-001	-2.98374E-002	-3.85575E-002	6.40452E-001	-4.25031E-002	2.28568E-003	-1.29253E-004	1.99012E-002	2.34444E-002	-1.04775E-003	-1.35395E-003	2.24896E-002	-1.49250E-003
	24	24	1.10081E+000	3.51452E-002	0.00000E+000	3.86882E-002	3.50488E-001	3.91312E-002	4.63354E+001	11	...........	6.53199E-002	-3.71653E-003	5.66656E-001	6.67486E-001	-2.98814E-002	-3.85718E-002	6.40501E-001	-4.25076E-002	2.29568E-003	-1.30618E-004	1.99152E-002	2.34589E-002	-1.05019E-003	-1.35561E-003	2.25105E-002	-1.49394E-003
	25	25	1.10084E+000	3.47416E-002	0.00000E+000	3.82449E-002	3.46474E-001	3.89147E-002	4.68371E+001	11	...........	6.49574E-002	-3.68972E-003	5.66828E-001	6.67490E-001	-2.98831E-002	-3.85921E-002	6.40466E-001	-4.25829E-002	2.25672E-003	-1.28187E-004	1.96925E-002	2.31897E-002	-1.03819E-003	-1.34075E-003	2.22508E-002	-1.47940E-003
	26	26	1.10076E+000	3.48191E-002	0.00000E+000	3.83274E-002	3.47245E-001	3.91846E-002	4.67429E+001	11	...........	6.54068E-002	-3.61000E-003	5.66831E-001	6.67478E-001	-2.98437E-002	-3.85854E-002	6.40473E-001	-4.25924E-002	2.27741E-003	-1.25697E-004	1.97366E-002	2.32410E-002	-1.03913E-003	-1.34351E-003	2.23007E-002	-1.48303E-003
	27	27	1.10081E+000	3.48170E-002	0.00000E+000	3.83267E-002	3.47227E-001	3.89834E-002	4.55708E+001	11	...........	6.50719E-002	-3.62806E-003	5.66640E-001	6.67549E-001	-2.97651E-002	-3.85828E-002	6.40400E-001	-4.26072E-002	2.26561E-003	-1.26318E-004	1.97287E-002	2.32420E-002	-1.03633E-003	-1.34333E-003	2.22968E-002	-1.48345E-003
	28	28	1.10084E+000	3.44455E-002	0.00000E+000	3.79190E-002	3.43529E-001	3.89011E-002	4.66547E+001	11	...........	6.49121E-002	-3.65986E-003	5.66502E-001	6.67451E-001	-2.98519E-002	-3.85828E-002	6.40398E-001	-4.26179E-002	2.23593E-003	-1.26066E-004	1.95134E-002	2.29907E-002	-1.02826E-003	-1.32900E-003	2.20588E-002	-1.46800E-003
	29	29	1.10075E+000	3.45198E-002	0.00000E+000	3.79979E-002	3.44269E-001	3.90405E-002	4.60818E+001	11	...........	6.51686E-002	-3.69792E-003	5.66540E-001	6.67351E-001	-2.98899E-002	-3.85854E-002	6.40566E-001	-4.26278E-002	2.24961E-003	-1.27651E-004	1.95569E-002	2.30368E-002	-1.03179E-003	-1.33196E-003	2.21122E-002	-1.47150E-003
	30	30	1.10081E+000	3.45181E-002	0.00000E+000	3.79977E-002	3.44254E-001	3.89604E-002	4.71321E+001	11	...........	6.50490E-002	-3.67722E-003	5.66693E-001	6.67408E-001	-2.98578E-002	-3.85790E-002	6.40570E-001	-4.25928E-002	2.24537E-003	-1.26931E-004	1.95612E-002	2.30377E-002	-1.03063E-003	-1.33167E-003	2.21113E-002	-1.47022E-003
	31	31	1.10085E+000	3.41424E-002	0.00000E+000	3.75855E-002	3.40519E-001	3.88975E-002	4.40787E+001	11	...........	6.49333E-002	-3.74667E-003	5.66786E-001	6.67514E-001	-2.97533E-002	-3.85858E-002	6.40587E-001	-4.25886E-002	2.21698E-003	-1.27920E-004	1.93515E-002	2.27905E-002	-1.01585E-003	-1.31741E-003	2.18712E-002	-1.45408E-003
	32	32	1.10075E+000	3.42152E-002	0.00000E+000	3.76624E-002	3.41243E-001	3.88669E-002	4.45799E+001	11	...........	6.48600E-002	-3.65236E-003	5.66783E-001	6.67500E-001	-2.98776E-002	-3.85876E-002	6.40528E-001	-4.25397E-002	2.21919E-003	-1.24966E-004	1.93926E-002	2.28386E-002	-1.02227E-003	-1.32028E-003	2.19157E-002	-1.45550E-003
	33	33	1.10080E+000	3.42819E-002	0.00000E+000	3.77376E-002	3.41903E-001	3.90170E-002	4.60716E+001	11	...........	6.51486E-002	-3.66833E-003	5.67051E-001	6.67362E-001	-2.98442E-002	-3.85753E-002	6.40445E-001	-4.24865E-002	2.23342E-003	-1.25757E-004	1.94396E-002	2.28784E-002	-1.02312E-003	-1.32243E-003	2.19557E-002	-1.45652E-003
	34	34	1.10085E+000	3.38900E-002	0.00000E+000	3.73077E-002	3.38009E-001	3.87477E-002	4.66766E+001	11	...........	6.46851E-002	-3.65819E-003	5.67117E-001	6.67320E-001	-2.98110E-002	-3.85600E-002	6.40528E-001	-4.24871E-002	2.19218E-003	-1.23976E-004	1.92196E-002	2.26155E-002	-1.01029E-003	-1.30680E-003	2.17075E-002	-1.43989E-003
	35	35	1.10075E+000	3.39271E-002	0.00000E+000	3.73454E-002	3.38377E-001	3.90461E-002	4.58999E+001	11	...........	6.51772E-002	-3.63569E-003	5.67130E-001	6.67440E-001	-2.98717E-002	-3.85840E-002	6.40498E-001	-4.25550E-002	2.21127E-003	-1.23349E-004	1.92411E-002	2.26443E-002	-1.01346E-003	-1.30904E-003	2.17302E-002	-1.44377E-003
	36	36	1.10080E+000	3.39710E-002	0.00000E+000	3.73952E-002	3.38815E-001	3.87658E-002	4.37330E+001	11	...........	6.46850E-002	-3.65292E-003	5.67020E-001	6.67610E-001	-2.97799E-002	-3.85690E-002	6.40481E-001	-4.24972E-002	2.19741E-003	-1.24093E-004	1.92622E-002	2.26794E-002	-1.01165E-003	-1.31023E-003	2.17578E-002	-1.44367E-003
	37	37	1.10085E+000	3.36721E-002	0.00000E+000	3.70679E-002	3.35841E-001	3.88707E-002	4.60283E+001	11	...........	6.48932E-002	-3.67903E-003	5.67066E-001	6.67570E-001	-2.98558E-002	-3.85825E-002	6.40330E-001	-4.25192E-002	2.18509E-003	-1.23881E-004	1.90943E-002	2.24785E-002	-1.00531E-003	-1.29915E-003	2.15612E-002	-1.43171E-003
	38	38	1.10075E+000	3.37094E-002	0.00000E+000	3.71058E-002	3.36213E-001	3.89217E-002	4.56515E+001	11	...........	6.49547E-002	-3.64139E-003	5.67156E-001	6.67622E-001	-2.97739E-002	-3.85796E-002	6.40379E-001	-4.25629E-002	2.18959E-003	-1.22749E-004	1.91185E-002	2.25052E-002	-1.00366E-003	-1.30050E-003	2.15868E-002	-1.43477E-003
	39	39	1.10080E+000	3.37172E-002	0.00000E+000	3.71158E-002	3.36292E-001	3.87875E-002	4.66862E+001	11	...........	6.47342E-002	-3.61819E-003	5.67038E-001	6.67712E-001	-2.98590E-002	-3.85862E-002	6.40394E-001	-4.26046E-002	2.18265E-003	-1.21995E-004	1.91189E-002	2.25134E-002	-1.00676E-003	-1.30102E-003	2.15923E-002	-1.43651E-003
	40	40	1.10085E+000	3.33862E-002	0.00000E+000	3.67533E-002	3.33001E-001	3.88113E-002	4.43913E+001	11	...........	6.47874E-002	-3.69194E-003	5.66980E-001	6.67762E-001	-2.98242E-002	-3.86256E-002	6.40432E-001	-4.25726E-002	2.16301E-003	-1.23260E-004	1.89293E-002	2.22941E-002	-9.95717E-004	-1.28956E-003	2.13816E-002	-1.42134E-003
	41	41	1.10075E+000	3.34029E-002	0.00000E+000	3.67683E-002	3.33165E-001	3.86404E-002	4.48640E+001	11	...........	6.45047E-002	-3.61222E-003	5.66898E-001	6.67798E-001	-2.98158E-002	-3.86371E-002	6.40352E-001	-4.25294E-002	2.15464E-003	-1.20659E-004	1.89360E-002	2.23064E-002	-9.95935E-004	-1.29059E-003	2.13896E-002	-1.42061E-003
	42	42	1.10080E+000	3.35134E-002	0.00000E+000	3.68914E-002	3.34261E-001	3.89137E-002	4.64440E+001	11	...........	6.49567E-002	-3.65528E-003	5.66966E-001	6.67855E-001	-2.98556E-002	-3.86335E-002	6.40243E-001	-4.25381E-002	2.17692E-003	-1.22501E-004	1.90009E-002	2.23821E-002	-1.00056E-003	-1.29474E-003	2.14567E-002	-1.42559E-003
	43	43	1.10086E+000	3.31580E-002	0.00000E+000	3.65022E-002	3.30733E-001	3.86031E-002	4.53194E+001	11	...........	6.44325E-002	-3.52389E-003	5.66787E-001	6.67913E-001	-2.97656E-002	-3.86039E-002	6.40160E-001	-4.24322E-002	2.13645E-003	-1.16845E-004	1.87935E-002	2.21466E-002	-9.86966E-004	-1.28003E-003	2.12264E-002	-1.40697E-003
	44	44	1.10075E+000	3.31949E-002	0.00000E+000	3.65393E-002	3.31095E-001	3.88335E-002	4.69127E+001	11	...........	6.48279E-002	-3.62722E-003	5.66706E-001	6.68006E-001	-2.98731E-002	-3.86172E-002	6.40263E-001	-4.24707E-002	2.15196E-003	-1.20405E-004	1.88118E-002	2.21744E-002	-9.91634E-004	-1.28190E-003	2.12535E-002	-1.40981E-003
	45	45	1.10079E+000	3.32320E-002	0.00000E+000	3.65816E-002	3.31465E-001	3.86517E-002	4.54504E+001	11	...........	6.45167E-002	-3.63181E-003	5.66545E-001	6.68040E-001	-2.98542E-002	-3.86333E-002	6.40239E-001	-4.25244E-002	2.14402E-003	-1.20692E-004	1.88274E-002	2.22003E-002	-9.92114E-004	-1.28386E-003	2.12764E-002	-1.41317E-003
	46	46	1.10086E+000	3.29410E-002	0.00000E+000	3.62633E-002	3.28569E-001	3.86362E-002	4.59648E+001	11	...........	6.44749E-002	-3.59250E-003	5.66303E-001	6.67918E-001	-2.98371E-002	-3.85800E-002	6.40162E-001	-4.25401E-002	2.12386E-003	-1.18340E-004	1.86546E-002	2.20019E-002	-9.82862E-004	-1.27086E-003	2.10875E-002	-1.40131E-003
	47	47	1.10075E+000	3.29803E-002	0.00000E+000	3.63031E-002	3.28961E-001	3.88312E-002	4.61925E+001	11	...........	6.48062E-002	-3.70819E-003	5.66333E-001	6.67874E-001	-2.98914E-002	-3.85786E-002	6.40259E-001	-4.24436E-002	2.13733E-003	-1.22297E-004	1.86778E-002	2.20267E-002	-9.85826E-004	-1.27233E-003	2.11159E-002	-1.39980E-003
	48	48	1.10079E+000	3.30087E-002	0.00000E+000	3.63358E-002	3.29247E-001	3.85602E-002	4.68923E+001	11	...........	6.43390E-002	-3.60347E-003	5.66358E-001	6.67894E-001	-2.97971E-002	-3.85742E-002	6.40279E-001	-4.24187E-002	2.12375E-003	-1.18946E-004	1.86948E-002	2.20464E-002	-9.83564E-004	-1.27328E-003	2.11348E-002	-1.40019E-003
	49	49	1.10086E+000	3.26886E-002	0.00000E+000	3.59856E-002	3.26061E-001	3.85147E-002	4.39134E+001	11	...........	6.42951E-002	-3.53236E-003	5.66351E-001	6.67860E-001	-2.98897E-002	-3.85668E-002	6.40320E-001	-4.25250E-002	2.10172E-003	-1.15468E-004	1.85132E-002	2.18314E-002	-9.77054E-004	-1.26070E-003	2.09312E-002	-1.39008E-003
	50	50	1.10075E+000	3.26985E-002	0.00000E+000	3.59929E-002	3.26161E-001	3.84907E-002	4.65950E+001	11	...........	6.42529E-002	-3.65208E-003	5.66325E-001	6.68019E-001	-2.98412E-002	-3.85646E-002	6.40262E-001	-4.26240E-002	2.10098E-003	-1.19418E-004	1.85180E-002	2.18432E-002	-9.75765E-004	-1.26100E-003	2.09356E-002	-1.39374E-003
	51	51	1.10079E+000	3.27759E-002	0.00000E+000	3.60795E-002	3.26927E-001	3.87983E-002	4.57859E+001	11	...........	6.47658E-002	-3.76667E-003	5.66219E-001	6.68086E-001	-2.98883E-002	-3.85667E-002	6.40386E-001	-4.25804E-002	2.12276E-003	-1.23456E-004	1.85583E-002	2.18972E-002	-9.79618E-004	-1.26406E-003	2.09892E-002	-1.39561E-003
	52	52	1.10086E+000	3.25072E-002	0.00000E+000	3.57859E-002	3.24258E-001	3.86224E-002	4.68944E+001	11	...........	6.44626E-002	-3.64083E-003	5.66147E-001	6.68013E-001	-2.98957E-002	-3.85797E-002	6.40409E-001	-4.25890E-002	2.09550E-003	-1.18353E-004	1.84039E-002	2.17152E-002	-9.71826E-004	-1.25412E-003	2.08179E-002	-1.38445E-003
	53	53	1.10075E+000	3.24753E-002	0.00000E+000	3.57473E-002	3.23942E-001	3.84383E-002	4.63554E+001	11	...........	6.41604E-002	-3.64986E-003	5.66054E-001	6.67918E-001	-2.98017E-002	-3.85596E-002	6.40297E-001	-4.25507E-002	2.08363E-003	-1.18530E-004	1.83828E-002	2.16908E-002	-9.67818E-004	-1.25223E-003	2.07938E-002	-1.38185E-003
	54	54	1.10079E+000	3.25158E-002	0.00000E+000	3.57931E-002	3.24345E-001	3.87863E-002	4.51594E+001	11	...........	6.47286E-002	-3.59722E-003	5.66153E-001	6.67947E-001	-2.99007E-002	-3.85622E-002	6.40395E-001	-4.25390E-002	2.10470E-003	-1.16967E-004	1.84089E-002	2.17189E-002	-9.72246E-004	-1.25388E-003	2.08230E-002	-1.38319E-003
	55	55	1.10086E+000	3.22770E-002	0.00000E+000	3.55325E-002	3.21969E-001	3.83210E-002	4.49381E+001	11	...........	6.39628E-002	-3.72153E-003	5.66186E-001	6.68087E-001	-2.98408E-002	-3.85581E-002	6.40438E-001	-4.24394E-002	2.06453E-003	-1.20120E-004	1.82748E-002	2.15638E-002	-9.63172E-004	-1.24454E-003	2.06714E-002	-1.36982E-003
	56	56	1.10075E+000	3.22535E-002	0.00000E+000	3.55031E-002	3.21736E-001	3.86506E-002	4.71446E+001	11	...........	6.45129E-002	-3.76931E-003	5.66314E-001	6.68171E-001	-2.98276E-002	-3.85525E-002	6.40474E-001	-4.24440E-002	2.08077E-003	-1.21573E-004	1.82656E-002	2.15509E-002	-9.62046E-004	-1.24345E-003	2.06575E-002	-1.36897E-003
	57	57	1.10079E+000	3.22957E-002	0.00000E+000	3.55507E-002	3.22155E-001	3.84406E-002	4.56853E+001	11	...........	6.41564E-002	-3.69319E-003	5.66376E-001	6.68335E-001	-2.98922E-002	-3.85715E-002	6.40420E-001	-4.25069E-002	2.07197E-003	-1.19274E-004	1.82915E-002	2.15843E-002	-9.65389E-004	-1.24569E-003	2.06828E-002	-1.37279E-003
	58	58	1.10086E+000	3.20414E-002	0.00000E+000	3.52732E-002	3.19628E-001	3.86700E-002	4.62137E+001	11	...........	6.45582E-002	-3.67639E-003	5.66251E-001	6.68434E-001	-2.97892E-002	-3.85824E-002	6.40287E-001	-4.25928E-002	2.06854E-003	-1.17797E-004	1.81435E-002	2.14176E-002	-9.54487E-004	-1.23623E-003	2.05157E-002	-1.36473E-003
	59	59	1.10075E+000	3.20094E-002	0.00000E+000	3.52344E-002	3.19311E-001	3.83881E-002	4.53319E+001	11	...........	6.40710E-002	-3.68861E-003	5.66124E-001	6.68319E-001	-2.98942E-002	-3.85950E-002	6.40229E-001	-4.26383E-002	2.05087E-003	-1.18070E-004	1.81213E-002	2.13925E-002	-9.56894E-004	-1.23540E-003	2.04933E-002	-1.36483E-003
	60	60	1.10079E+000	3.20855E-002	0.00000E+000	3.53193E-002	3.20067E-001	3.84323E-002	4.66305E+001	11	...........	6.41643E-002	-3.53417E-003	5.66234E-001	6.68454E-001	-2.98767E-002	-3.85943E-002	6.40332E-001	-4.27160E-002	2.05874E-003	-1.13395E-004	1.81679E-002	2.14476E-002	-9.58606E-004	-1.23832E-003	2.05453E-002	-1.37056E-003
	61	61	1.10086E+000	3.18460E-002	0.00000E+000	3.50580E-002	3.17685E-001	3.85601E-002	4.69235E+001	11	...........	6.43749E-002	-3.47556E-003	5.66497E-001	6.68511E-001	-2.98036E-002	-3.85806E-002	6.40354E-001	-4.26611E-002	2.05008E-003	-1.10683E-004	1.80407E-002	2.12894E-002	-9.49126E-004	-1.22864E-003	2.03927E-002	-1.35859E-003
	62	62	1.10075E+000	3.17897E-002	0.00000E+000	3.49926E-002	3.17122E-001	3.82744E-002	4.62346E+001	11	...........	6.39022E-002	-3.55153E-003	5.66546E-001	6.68397E-001	-2.98893E-002	-3.85892E-002	6.40297E-001	-4.25907E-002	2.03143E-003	-1.12902E-004	1.80103E-002	2.12481E-002	-9.50171E-004	-1.22674E-003	2.03548E-002	-1.35394E-003
	63	63	1.10079E+000	3.18573E-002	0.00000E+000	3.50681E-002	3.17791E-001	3.83912E-002	4.44538E+001	11	...........	6.40682E-002	-3.57083E-003	5.66576E-001	6.68434E-001	-2.98375E-002	-3.85946E-002	6.40227E-001	-4.25674E-002	2.04104E-003	-1.13757E-004	1.80496E-002	2.12945E-002	-9.50543E-004	-1.22952E-003	2.03959E-002	-1.35608E-003
	64	64	1.10086E+000	3.16023E-002	0.00000E+000	3.47898E-002	3.15260E-001	3.82067E-002	4.57874E+001	11	...........	6.40796E-002	-3.42361E-003	5.66601E-001	6.68621E-001	-2.99061E-002	-3.85800E-002	6.40192E-001	-4.25735E-002	2.02506E-003	-1.08194E-004	1.79059E-002	2.11300E-002	-9.45103E-004	-1.21922E-003	2.02316E-002	-1.34542E-003
	65	65	1.10075E+000	3.15645E-002	0.00000E+000	3.47448E-002	3.14883E-001	3.84907E-002	4.64346E+001	11	...........	6.42351E-002	-3.56250E-003	5.66527E-001	6.68760E-001	-2.99068E-002	-3.85996E-002	6.40161E-001	-4.25054E-002	2.02755E-003	-1.12449E-004	1.78822E-002	2.11091E-002	-9.43994E-004	-1.21838E-003	2.02064E-002	-1.34166E-003
	66	66	1.10079E+000	3.16533E-002	0.00000E+000	3.48436E-002	3.15763E-001	3.84157E-002	4.62460E+001	11	...........	6.41210E-002	-3.48083E-003	5.66525E-001	6.68795E-001	-2.98478E-002	-3.86000E-002	6.40140E-001	-4.25394E-002	2.02964E-003	-1.10180E-004	1.79324E-002	2.11695E-002	-9.44779E-004	-1.22182E-003	2.02625E-002	-1.34651E-003
	67	67	1.10086E+000	3.13892E-002	0.00000E+000	3.45551E-002	3.13144E-001	3.83690E-002	4.45173E+001	11	...........	6.40464E-002	-3.49528E-003	5.66427E-001	6.68808E-001	-2.99149E-002	-3.85883E-002	6.40305E-001	-4.26114E-002	2.01037E-003	-1.09714E-004	1.77797E-002	2.09934E-002	-9.39005E-004	-1.21126E-003	2.00987E-002	-1.33754E-003
	68	68	1.10076E+000	3.13479E-002	0.00000E+000	3.45063E-002	3.12730E-001	3.83308E-002	4.54213E+001	11	...........	6.39828E-002	-3.46097E-003	5.66426E-001	6.68764E-001	-2.98390E-002	-3.85932E-002	6.40300E-001	-4.26481E-002	2.00572E-003	-1.08494E-004	1.77562E-002	2.09643E-002	-9.35390E-004	-1.20981E-003	2.00720E-002	-1.33693E-003
	69	69	1.10079E+000	3.14224E-002	0.00000E+000	3.45893E-002	3.13469E-001	3.81396E-002	4.62748E+001	11	...........	6.36635E-002	-3.45292E-003	5.66502E-001	6.68732E-001	-2.99407E-002	-3.85912E-002	6.40236E-001	-4.26782E-002	2.00046E-003	-1.08499E-004	1.78009E-002	2.10132E-002	-9.40808E-004	-1.21263E-003	2.01178E-002	-1.34105E-003
	70	70	1.10086E+000	3.12127E-002	0.00000E+000	3.43608E-002	3.11385E-001	3.83760E-002	4.59018E+001	11	...........	6.40567E-002	-3.50681E-003	5.66504E-001	6.68751E-001	-2.99115E-002	-3.86253E-002	6.40314E-001	-4.27094E-002	1.99938E-003	-1.09457E-004	1.76822E-002	2.08736E-002	-9.33621E-004	-1.20560E-003	1.99860E-002	-1.33308E-003
	71	71	1.10076E+000	3.11324E-002	0.00000E+000	3.42692E-002	3.10586E-001	3.82817E-002	4.65929E+001	11	...........	6.38846E-002	-3.48222E-003	5.66495E-001	6.68795E-001	-2.98346E-002	-3.86244E-002	6.40321E-001	-4.26406E-002	1.98888E-003	-1.08410E-004	1.76363E-002	2.08212E-002	-9.28821E-004	-1.20247E-003	1.99347E-002	-1.32750E-003
	72	72	1.10079E+000	3.12090E-002	0.00000E+000	3.43544E-002	3.11352E-001	3.82765E-002	4.48654E+001	11	...........	6.38887E-002	-3.55389E-003	5.66487E-001	6.68908E-001	-2.98926E-002	-3.85992E-002	6.40263E-001	-4.26860E-002	1.99390E-003	-1.10913E-004	1.76795E-002	2.08760E-002	-9.32920E-004	-1.20464E-003	1.99820E-002	-1.33219E-003
	73	73	1.10086E+000	3.09901E-002	0.00000E+000	3.41158E-002	3.09173E-001	3.81822E-002	4.54057E+001	11	...........	6.37301E-002	-3.49681E-003	5.66613E-001	6.68870E-001	-2.99397E-002	-3.85808E-002	6.40261E-001	-4.25729E-002	1.97501E-003	-1.08366E-004	1.75594E-002	2.07284E-002	-9.27836E-004	-1.19563E-003	1.98418E-002	-1.31934E-003
	74	74	1.10076E+000	3.09191E-002	0.00000E+000	3.40345E-002	3.08468E-001	3.84512E-002	4.62655E+001	11	...........	6.41592E-002	-3.49694E-003	5.66594E-001	6.69063E-001	-2.99565E-002	-3.85839E-002	6.40265E-001	-4.25653E-002	1.98374E-003	-1.08122E-004	1.75186E-002	2.06869E-002	-9.26229E-004	-1.19298E-003	1.97964E-002	-1.31608E-003
	75	75	1.10078E+000	3.09910E-002	0.00000E+000	3.41143E-002	3.09183E-001	3.81172E-002	4.61402E+001	11	...........	6.36362E-002	-3.52125E-003	5.66359E-001	6.69207E-001	-2.98418E-002	-3.86812E-002	6.40179E-001	-4.25467E-002	1.97215E-003	-1.09127E-004	1.75520E-002	2.07394E-002	-9.24826E-004	-1.19877E-003	1.98397E-002	-1.31856E-003
	76	76	1.10086E+000	3.08007E-002	0.00000E+000	3.39072E-002	3.07289E-001	3.82714E-002	4.66304E+001	11	...........	6.38678E-002	-3.57833E-003	5.66289E-001	6.69205E-001	-2.97253E-002	-3.86921E-002	6.40259E-001	-4.24971E-002	1.96717E-003	-1.10215E-004	1.74421E-002	2.06120E-002	-9.15561E-004	-1.19174E-003	1.97204E-002	-1.30894E-003
	77	77	1.10076E+000	3.06708E-002	0.00000E+000	3.37613E-002	3.05997E-001	3.80950E-002	4.51466E+001	11	...........	6.35672E-002	-3.57181E-003	5.66364E-001	6.69220E-001	-2.98589E-002	-3.86440E-002	6.40089E-001	-4.25725E-002	1.94966E-003	-1.09550E-004	1.73709E-002	2.05255E-002	-9.15797E-004	-1.18524E-003	1.96320E-002	-1.30573E-003
	78	78	1.10078E+000	3.08006E-002	0.00000E+000	3.39048E-002	3.07290E-001	3.82372E-002	4.63204E+001	11	...........	6.38294E-002	-3.53931E-003	5.66175E-001	6.69200E-001	-2.98471E-002	-3.86136E-002	6.40127E-001	-4.25524E-002	1.96598E-003	-1.09013E-004	1.74385E-002	2.06118E-002	-9.19308E-004	-1.18932E-003	1.97163E-002	-1.31064E-003
	79	79	1.10086E+000	3.06435E-002	0.00000E+000	3.37341E-002	3.05728E-001	3.82565E-002	4.67458E+001	11	...........	6.38364E-002	-3.66042E-003	5.66010E-001	6.69173E-001	-2.98282E-002	-3.85921E-002	6.40066E-001	-4.26410E-002	1.95617E-003	-1.12168E-004	1.73445E-002	2.05058E-002	-9.14040E-004	-1.18260E-003	1.96138E-002	-1.30667E-003
	80	80	1.10076E+000	3.04437E-002	0.00000E+000	3.35113E-002	3.03741E-001	3.80458E-002	4.60052E+001	11	...........	6.34985E-002	-3.55069E-003	5.65804E-001	6.68948E-001	-2.99089E-002	-3.86219E-002	6.40139E-001	-4.25689E-002	1.93313E-003	-1.08096E-004	1.72252E-002	2.03653E-002	-9.10538E-004	-1.17580E-003	1.94882E-002	-1.29596E-003
	81	81	1.10078E+000	3.05508E-002	0.00000E+000	3.36298E-002	3.04806E-001	3.81305E-002	4.45768E+001	11	...........	6.36350E-002	-3.53583E-003	5.65881E-001	6.68792E-001	-2.98351E-002	-3.86260E-002	6.40201E-001	-4.25660E-002	1.94410E-003	-1.08022E-004	1.72881E-002	2.04321E-002	-9.11487E-004	-1.18005E-003	1.95586E-002	-1.30042E-003
	82	82	1.10085E+000	3.04209E-002	0.00000E+000	3.34890E-002	3.03517E-001	3.81592E-002	4.57084E+001	11	...........	6.36942E-002	-3.59764E-003	5.65841E-001	6.68935E-001	-2.99011E-002	-3.86286E-002	6.40289E-001	-4.25201E-002	1.93763E-003	-1.09443E-004	1.72134E-002	2.03496E-002	-9.09619E-004	-1.17512E-003	1.94782E-002	-1.29350E-003
	83	83	1.10076E+000	3.02838E-002	0.00000E+000	3.33353E-002	3.02153E-001	3.82067E-002	4.57622E+001	11	...........	6.37811E-002	-3.60375E-003	5.65802E-001	6.69037E-001	-2.98865E-002	-3.86362E-002	6.40259E-001	-4.25735E-002	1.93153E-003	-1.09135E-004	1.71346E-002	2.02610E-002	-9.05077E-004	-1.17005E-003	1.93895E-002	-1.28929E-003
	84	84	1.10078E+000	3.03232E-002	0.00000E+000	3.33792E-002	3.02543E-001	3.79217E-002	4.68804E+001	11	...........	6.33040E-002	-3.58764E-003	5.65709E-001	6.69183E-001	-2.98406E-002	-3.86281E-002	6.40031E-001	-4.25732E-002	1.91958E-003	-1.08789E-004	1.71541E-002	2.02918E-002	-9.04860E-004	-1.17133E-003	1.94078E-002	-1.29095E-003
	85	85	1.10085E+000	3.01852E-002	0.00000E+000	3.32295E-002	3.01172E-001	3.80883E-002	4.33599E+001	11	...........	6.35642E-002	-3.56361E-003	5.65938E-001	6.69081E-001	-2.99217E-002	-3.86669E-002	6.40105E-001	-4.25149E-002	1.91870E-003	-1.07568E-004	1.70830E-002	2.01964E-002	-9.03191E-004	-1.16717E-003	1.93217E-002	-1.28332E-003
	86	86	1.10077E+000	3.00647E-002	0.00000E+000	3.30943E-002	2.99975E-001	3.81865E-002	4.59865E+001	11	...........	6.37354E-002	-3.61653E-003	5.65801E-001	6.69183E-001	-2.98500E-002	-3.86926E-002	6.40185E-001	-4.25215E-002	1.91619E-003	-1.08730E-004	1.70106E-002	2.01188E-002	-8.97432E-004	-1.16328E-003	1.92470E-002	-1.27840E-003
	87	87	1.10078E+000	3.01693E-002	0.00000E+000	3.32098E-002	3.01015E-001	3.81518E-002	4.53963E+001	11	...........	6.36821E-002	-3.56153E-003	5.65876E-001	6.69309E-001	-2.98621E-002	-3.86499E-002	6.40297E-001	-4.25424E-002	1.92124E-003	-1.07449E-004	1.70721E-002	2.01926E-002	-9.00917E-004	-1.16604E-003	1.93173E-002	-1.28347E-003
	88	88	1.10085E+000	2.99727E-002	0.00000E+000	3.29955E-002	2.99065E-001	3.78898E-002	4.58920E+001	11	...........	6.32454E-002	-3.49736E-003	5.65815E-001	6.69531E-001	-2.99062E-002	-3.86400E-002	6.40315E-001	-4.26389E-002	1.89563E-003	-1.04825E-004	1.69590E-002	2.00676E-002	-8.96370E-004	-1.15814E-003	1.91919E-002	-1.27800E-003
	89	89	1.10077E+000	2.98432E-002	0.00000E+000	3.28504E-002	2.97781E-001	3.81247E-002	4.63158E+001	11	...........	6.36526E-002	-3.54653E-003	5.65873E-001	6.69642E-001	-2.98107E-002	-3.86610E-002	6.40267E-001	-4.25871E-002	1.89960E-003	-1.05840E-004	1.68875E-002	1.99842E-002	-8.89646E-004	-1.15377E-003	1.91076E-002	-1.27093E-003
	90	90	1.10078E+000	2.99491E-002	0.00000E+000	3.29674E-002	2.98832E-001	3.80103E-002	4.52954E+001	11	...........	6.34347E-002	-3.58111E-003	5.65836E-001	6.69558E-001	-2.98831E-002	-3.86489E-002	6.40120E-001	-4.24474E-002	1.89981E-003	-1.07251E-004	1.69463E-002	2.00527E-002	-8.94971E-004	-1.15750E-003	1.91710E-002	-1.27126E-003
	91	91	1.10085E+000	2.97907E-002	0.00000E+000	3.27951E-002	2.97253E-001	3.78626E-002	4.42938E+001	11	...........	6.31796E-002	-3.41125E-003	5.65851E-001	6.69564E-001	-2.98933E-002	-3.86404E-002	6.40059E-001	-4.24576E-002	1.88216E-003	-1.01624E-004	1.68571E-002	1.99468E-002	-8.90543E-004	-1.15112E-003	1.90678E-002	-1.26484E-003
	92	92	1.10077E+000	2.96265E-002	0.00000E+000	3.26120E-002	2.95625E-001	3.80187E-002	4.50915E+001	11	...........	6.34519E-002	-3.49500E-003	5.65937E-001	6.69535E-001	-2.97929E-002	-3.86312E-002	6.40084E-001	-4.24237E-002	1.87986E-003	-1.03545E-004	1.67668E-002	1.98360E-002	-8.82660E-004	-1.14451E-003	1.89635E-002	-1.25687E-003
	93	93	1.10078E+000	2.97825E-002	0.00000E+000	3.27840E-002	2.97173E-001	3.82721E-002	4.58846E+001	11	...........	6.38850E-002	-3.53917E-003	5.66029E-001	6.69335E-001	-2.98821E-002	-3.86429E-002	6.40226E-001	-4.25619E-002	1.90266E-003	-1.05405E-004	1.68578E-002	1.99345E-002	-8.89963E-004	-1.15088E-003	1.90675E-002	-1.26760E-003
	94	94	1.10085E+000	2.96185E-002	0.00000E+000	3.26055E-002	2.95543E-001	3.79182E-002	4.53462E+001	11	...........	6.32815E-002	-3.66264E-003	5.66099E-001	6.69216E-001	-2.98525E-002	-3.86742E-002	6.40119E-001	-4.25567E-002	1.87430E-003	-1.08482E-004	1.67670E-002	1.98212E-002	-8.84185E-004	-1.14547E-003	1.89593E-002	-1.26046E-003
	95	95	1.10078E+000	2.94241E-002	0.00000E+000	3.23893E-002	2.93611E-001	3.80497E-002	4.51084E+001	11	...........	6.35037E-002	-3.71347E-003	5.66299E-001	6.69186E-001	-2.97651E-002	-3.86389E-002	6.40170E-001	-4.25501E-002	1.86854E-003	-1.09265E-004	1.66628E-002	1.96902E-002	-8.75811E-004	-1.13691E-003	1.88364E-002	-1.25200E-003
	96	96	1.10078E+000	2.95370E-002	0.00000E+000	3.25137E-002	2.94732E-001	3.79550E-002	4.40018E+001	11	...........	6.33421E-002	-3.67319E-003	5.66468E-001	6.69184E-001	-2.98465E-002	-3.86281E-002	6.40261E-001	-4.26154E-002	1.87093E-003	-1.08495E-004	1.67317E-002	1.97657E-002	-8.81576E-004	-1.14096E-003	1.89114E-002	-1.25873E-003
	97	97	1.10085E+000	2.94440E-002	0.00000E+000	3.24134E-002	2.93807E-001	3.79513E-002	4.61017E+001	11	...........	6.33304E-002	-3.56403E-003	5.66511E-001	6.69352E-001	-2.97811E-002	-3.86356E-002	6.40197E-001	-4.25429E-002	1.86470E-003	-1.04939E-004	1.66804E-002	1.97084E-002	-8.76876E-004	-1.13759E-003	1.88500E-002	-1.25263E-003
	98	98	1.10077E+000	2.92216E-002	0.00000E+000	3.21663E-002	2.91594E-001	3.79372E-002	4.57891E+001	11	...........	6.33360E-002	-3.65819E-003	5.66709E-001	6.69383E-001	-2.97418E-002	-3.86176E-002	6.40275E-001	-4.25749E-002	1.85078E-003	-1.06898E-004	1.65601E-002	1.95604E-002	-8.69102E-004	-1.12847E-003	1.87098E-002	-1.24410E-003
	99	99	1.10078E+000	2.93807E-002	0.00000E+000	3.23417E-002	2.93179E-001	3.80272E-002	4.55955E+001	11	...........	6.34626E-002	-3.61722E-003	5.66931E-001	6.69258E-001	-2.97979E-002	-3.86467E-002	6.40150E-001	-4.25535E-002	1.86458E-003	-1.06277E-004	1.66568E-002	1.96633E-002	-8.75484E-004	-1.13547E-003	1.88081E-002	-1.25025E-003
	100	100	1.10085E+000	2.92500E-002	0.00000E+000	3.21998E-002	2.91881E-001	3.78313E-002	4.62266E+001	11	...........	6.31490E-002	-3.53250E-003	5.66894E-001	6.69391E-001	-2.96949E-002	-3.86589E-002	6.40095E-001	-4.25111E-002	1.84711E-003	-1.03326E-004	1.65817E-002	1.95797E-002	-8.68575E-004	-1.13077E-003	1.87228E-002	-1.24345E-003
	101	101	1.10078E+000	2.90247E-002	0.00000E+000	3.19498E-002	2.89640E-001	3.79825E-002	4.39979E+001	11	...........	6.33954E-002	-3.49861E-003	5.66722E-001	6.69393E-001	-2.97351E-002	-3.86494E-002	6.40142E-001	-4.24576E-002	1.84003E-003	-1.01546E-004	1.64489E-002	1.94289E-002	-8.63054E-004	-1.12179E-003	1.85799E-002	-1.23232E-003
	102	102	1.10078E+000	2.91810E-002	0.00000E+000	3.21218E-002	2.91191E-001	3.79572E-002	4.61307E+001	11	...........	6.33512E-002	-3.58319E-003	5.66646E-001	6.69306E-001	-2.97607E-002	-3.86607E-002	6.40109E-001	-4.24368E-002	1.84865E-003	-1.04561E-004	1.65353E-002	1.95310E-002	-8.68446E-004	-1.12816E-003	1.86790E-002	-1.23835E-003
	103	103	1.10084E+000	2.90620E-002	0.00000E+000	3.19928E-002	2.90011E-001	3.77587E-002	4.53788E+001	11	...........	6.29985E-002	-3.61472E-003	5.66788E-001	6.69264E-001	-2.96887E-002	-3.86661E-002	6.40076E-001	-4.25282E-002	1.83086E-003	-1.05051E-004	1.64720E-002	1.94502E-002	-8.62815E-004	-1.12372E-003	1.86019E-002	-1.23596E-003
	104	104	1.10078E+000	2.88596E-002	0.00000E+000	3.17681E-002	2.87999E-001	3.80529E-002	4.65335E+001	11	...........	6.35167E-002	-3.61389E-003	5.66753E-001	6.69308E-001	-2.98000E-002	-3.86803E-002	6.40150E-001	-4.24272E-002	1.83307E-003	-1.04295E-004	1.63563E-002	1.93160E-002	-8.60017E-004	-1.11630E-003	1.84745E-002	-1.22443E-003
	105	105	1.10078E+000	2.89774E-002	0.00000E+000	3.18977E-002	2.89169E-001	3.78902E-002	4.53708E+001	11	...........	6.32147E-002	-3.64875E-003	5.66936E-001	6.69360E-001	-2.97603E-002	-3.86487E-002	6.40294E-001	-4.24126E-002	1.83180E-003	-1.05731E-004	1.64283E-002	1.93963E-002	-8.62375E-004	-1.11994E-003	1.85541E-002	-1.22901E-003
	106	106	1.10084E+000	2.88847E-002	0.00000E+000	3.17975E-002	2.88247E-001	3.77885E-002	4.60137E+001	11	...........	6.30604E-002	-3.67083E-003	5.66923E-001	6.69376E-001	-2.97729E-002	-3.86443E-002	6.40233E-001	-4.25289E-002	1.82148E-003	-1.06031E-004	1.63754E-002	1.93347E-002	-8.59982E-004	-1.11623E-003	1.84929E-002	-1.22843E-003
	107	107	1.10078E+000	2.86717E-002	0.00000E+000	3.15613E-002	2.86133E-001	3.77047E-002	4.61319E+001	11	...........	6.29153E-002	-3.70444E-003	5.66937E-001	6.69426E-001	-2.97907E-002	-3.86437E-002	6.40136E-001	-4.25551E-002	1.80389E-003	-1.06213E-004	1.62550E-002	1.91936E-002	-8.54149E-004	-1.10798E-003	1.83538E-002	-1.22013E-003
	108	108	1.10078E+000	2.87957E-002	0.00000E+000	3.16976E-002	2.87367E-001	3.80488E-002	4.64437E+001	11	...........	6.35051E-002	-3.58125E-003	5.67115E-001	6.69436E-001	-2.96967E-002	-3.86490E-002	6.40155E-001	-4.24760E-002	1.82867E-003	-1.03124E-004	1.63304E-002	1.92769E-002	-8.55135E-004	-1.11292E-003	1.84337E-002	-1.22312E-003
	109	109	1.10084E+000	2.86915E-002	0.00000E+000	3.15848E-002	2.86333E-001	3.78463E-002	4.52227E+001	11	...........	6.31742E-002	-3.62486E-003	5.67085E-001	6.69352E-001	-2.97771E-002	-3.86549E-002	6.40230E-001	-4.24247E-002	1.81256E-003	-1.04003E-004	1.62705E-002	1.92047E-002	-8.54349E-004	-1.10907E-003	1.83692E-002	-1.21723E-003
	110	110	1.10078E+000	2.84690E-002	0.00000E+000	3.13383E-002	2.84123E-001	3.75867E-002	4.41572E+001	11	...........	6.27267E-002	-3.55417E-003	5.67057E-001	6.69308E-001	-2.97233E-002	-3.86512E-002	6.40195E-001	-4.25765E-002	1.78577E-003	-1.01184E-004	1.61436E-002	1.90546E-002	-8.46195E-004	-1.10036E-003	1.82257E-002	-1.21211E-003
	111	111	1.10078E+000	2.85908E-002	0.00000E+000	3.14721E-002	2.85335E-001	3.79181E-002	4.69346E+001	11	...........	6.33029E-002	-3.73264E-003	5.67082E-001	6.69432E-001	-2.97017E-002	-3.86571E-002	6.40229E-001	-4.25651E-002	1.80988E-003	-1.06719E-004	1.62133E-002	1.91396E-002	-8.49195E-004	-1.10524E-003	1.83047E-002	-1.21697E-003
	112	112	1.10084E+000	2.85106E-002	0.00000E+000	3.13857E-002	2.84537E-001	3.79057E-002	4.62242E+001	11	...........	6.32635E-002	-3.67861E-003	5.67133E-001	6.69400E-001	-2.97610E-002	-3.86686E-002	6.40208E-001	-4.26274E-002	1.80368E-003	-1.04880E-004	1.61693E-002	1.90850E-002	-8.48504E-004	-1.10247E-003	1.82527E-002	-1.21533E-003
	113	113	1.10078E+000	2.82806E-002	0.00000E+000	3.11309E-002	2.82248E-001	3.76684E-002	4.55476E+001	11	...........	6.28631E-002	-3.73764E-003	5.67025E-001	6.69307E-001	-2.97044E-002	-3.86461E-002	6.40288E-001	-4.25781E-002	1.77781E-003	-1.05703E-004	1.60358E-002	1.89284E-002	-8.40061E-004	-1.09294E-003	1.81078E-002	-1.20414E-003
	114	113.895	1.10084E+000	2.84167E-002	0.00000E+000	3.12821E-002	2.83601E-001	3.78545E-002	4.58975E+001	11	...........	6.31806E-002	-3.64541E-003	5.66904E-001	6.69249E-001	-2.97866E-002	-3.86369E-002	6.40346E-001	-4.26300E-002	1.79538E-003	-1.03590E-004	1.61095E-002	1.90178E-002	-8.46437E-004	-1.09793E-003	1.81965E-002	-1.21140E-003
STARTTIMEOFFSET	QUANT	762879.8	Start Time Offset (s)
