EXPLAIN
TAG	PWR800_CHARGE
TITLE	LABEL	PWR Charge	Test Identifier
DATE	LABEL	10/13/2022	Date
TIME	LABEL	9:17:56	Time
NOTES	NOTES	1	Notes...
	
PSTAT	PSTAT	REF3000-21114	Potentiostat
CAPACITY	QUANT	5.30000E-002	Capacity (A-hr)
CELLTYPE	SELECTOR	1	Cell Type
WORKINGCONNECTION	SELECTOR	0	Working Connection
MAXCHARGETIME	VARIABLEANDUNITS	7.20000E+003	s	2.00000E+000	hour(s)	Max Charge Time
CHARGEMODE	MULTIPARAM	0	1.00000E-001	Charge Mode	Constant Current	Amp(s)
CHARGECURRENT	QUANT	0.1	Charge Current (A)
VOLTAGEFINISH	TWOPARAM	T	2.50000E-002	7.20000E+003	Voltage Finish	I (A) <	Max Time(s)
SAMPLETIME	QUANT	1.00000E+000	Sample Period (s)
CHARGESTOPAT1	MULTIPARAM	2	1.10000E+000	Stop At 1	|Voltage| > Limit	V
CHARGESTOPAT2	MULTIPARAM	0	0.00000E+000	Stop At 2	None	N/A
AESELECTOR	AESELECTOR	0x1	T	Set Limits	AE Channels
AESBHCSELECTOR	TOGGLE	F	Save Both Half Cells
IRCOMP	TOGGLE	F	IR Measure
EOC	QUANT	0.1668286	Open Circuit (V)
SEQUENCER	TOGGLE	TRUE	Run as Sequence
PSTATMODEL	IQUANT	5	Pstat Model
PSTATSECTION	LABEL	REF3000-21114	Pstat Section
PSTATSERIALNO	LABEL	21114	Pstat Serial Number
CTRLMODE	IQUANT	0	Control Mode
ELECTROMETER	IQUANT	0	RE=0 or CS=1
IESTAB	IQUANT	0	I/E Stability
CASPEED	IQUANT	4	Control Amp Speed
CONVENTION	IQUANT	1	Current Convention
ICHRANGE	IQUANT	2	Ich Range
ICHRANGEMODE	TOGGLE	T	Ich Auto Range
ICHOFFSETENABLE	TOGGLE	F	Ich Offset Enable
ICHOFFSET	QUANT	0	Ich Offset (V)
ICHFILTER	IQUANT	1	Ich Filter
VCHRANGE	IQUANT	3	Vch Range
VCHRANGEMODE	TOGGLE	T	Vch Auto Range
VCHOFFSETENABLE	TOGGLE	F	Vch Offset Enable
VCHOFFSET	QUANT	0	Vch Offset (V)
VCHFILTER	IQUANT	1	Vch Filter
ACHRANGE	IQUANT	2	Ach Range
ACHOFFSETENABLE	TOGGLE	F	Ach Offset Enable
ACHOFFSET	QUANT	0	Ach Offset (V)
ACHFILTER	IQUANT	1	Ach Filter
IERANGELOWERLIMIT	IQUANT	9	I/E Range Lower Limit
IERANGEMODE	TOGGLE	F	I/E AutoRange
IERANGE	IQUANT	9	I/E Range
POSFEEDENABLE	TOGGLE	F	Positive Feedback IR Comp
POSFEEDRESISTANCE	QUANT	0	Positive Feedback Resistance (ohm)
ACHSELECT	IQUANT	1	Ach Select
SENSECABLEID	IQUANT	13	Sense Cable ID
PWRCABLEID	IQUANT	13	Power Cable ID
DCCALDATE	LABEL		DC Calibration Date
ACCALDATE	LABEL		AC Calibration Date
THERMOSELECT	IQUANT	1	Thermo Select
FRAMEWORKVERSION	LABEL	7.8.6	Framework Version
INSTRUMENTVERSION	LABEL	4.50	Instrument Version
COMPLIANCEVOLTAGE	IQUANT	0	Compliance Voltage
CURVE	TABLE	189
	Pt	T	Vf	Im	Vu	Pwr	Sig	Ach	Temp	IERange	Over	Vf1	Vf2	Vf3	Vf4	Vf5	Vf6	Vf7	Vf8	Pwr1	Pwr2	Pwr3	Pwr4	Pwr5	Pwr6	Pwr7	Pwr8
	#	s	V	A	V	W	V	V	deg C	#	bits	V	V	V	V	V	V	V	V	W	W	W	W	W	W	W	W
	0	1	4.49923E-001	9.98505E-002	0.00000E+000	4.49251E-002	9.94000E-001	4.31376E-002	4.13001E+001	11	...........	7.15414E-002	-5.26250E-003	5.96607E-001	5.60134E-001	-2.79176E-002	-3.88494E-002	6.94879E-001	-4.40347E-002	7.14344E-003	-5.25463E-004	5.95715E-002	5.59297E-002	-2.78759E-003	-3.87914E-003	6.93840E-002	-4.39689E-003
	1	2	5.99211E-001	9.98508E-002	0.00000E+000	5.98316E-002	9.94000E-001	4.33042E-002	4.29008E+001	11	...........	7.17950E-002	-5.25042E-003	5.96681E-001	5.60274E-001	-2.79204E-002	-3.88367E-002	6.94999E-001	-4.39854E-002	7.16879E-003	-5.24258E-004	5.95790E-002	5.59438E-002	-2.78788E-003	-3.87787E-003	6.93962E-002	-4.39198E-003
	2	3	8.83701E-001	9.98516E-002	0.00000E+000	8.82389E-002	9.94000E-001	4.41828E-002	4.85765E+001	11	...........	7.32200E-002	-5.39750E-003	5.96788E-001	5.60400E-001	-2.79261E-002	-3.88458E-002	6.95096E-001	-4.39361E-002	7.31113E-003	-5.38949E-004	5.95903E-002	5.59568E-002	-2.78847E-003	-3.87882E-003	6.94064E-002	-4.38709E-003
	3	3.08167	1.09084E+000	9.98534E-002	0.00000E+000	1.08924E-001	9.94000E-001	4.46296E-002	5.31982E+001	11	...........	7.39269E-002	-5.39286E-003	5.96912E-001	5.60508E-001	-2.79014E-002	-3.89252E-002	6.95019E-001	-4.39048E-002	7.38185E-003	-5.38495E-004	5.96036E-002	5.59687E-002	-2.78605E-003	-3.88681E-003	6.94000E-002	-4.38404E-003
	4	4	1.10060E+000	7.34821E-002	0.00000E+000	8.08742E-002	7.31799E-001	4.39970E-002	5.23935E+001	11	...........	7.30029E-002	-5.30702E-003	5.96985E-001	5.60483E-001	-2.79058E-002	-3.88678E-002	6.94979E-001	-4.39454E-002	5.36441E-003	-3.89971E-004	4.38677E-002	4.11855E-002	-2.05058E-003	-2.85609E-003	5.10685E-002	-3.22920E-003
	5	5	1.10034E+000	6.04294E-002	0.00000E+000	6.64930E-002	6.02002E-001	4.38922E-002	5.13969E+001	11	...........	7.28510E-002	-5.18333E-003	5.96928E-001	5.60467E-001	-2.79082E-002	-3.88546E-002	6.94877E-001	-4.39203E-002	4.40234E-003	-3.13226E-004	3.60720E-002	3.38687E-002	-1.68648E-003	-2.34796E-003	4.19910E-002	-2.65408E-003
	6	6	1.10032E+000	5.48572E-002	0.00000E+000	6.03606E-002	5.46596E-001	4.38675E-002	5.06220E+001	11	...........	7.28132E-002	-5.25361E-003	5.96960E-001	5.60383E-001	-2.79146E-002	-3.88328E-002	6.94802E-001	-4.39690E-002	3.99433E-003	-2.88199E-004	3.27476E-002	3.07411E-002	-1.53132E-003	-2.13026E-003	3.81149E-002	-2.41202E-003
	7	7	1.10020E+000	5.21923E-002	0.00000E+000	5.74221E-002	5.20096E-001	4.38608E-002	5.00562E+001	11	...........	7.27933E-002	-5.18319E-003	5.96967E-001	5.60288E-001	-2.79369E-002	-3.88457E-002	6.94864E-001	-4.39411E-002	3.79925E-003	-2.70523E-004	3.11571E-002	2.92427E-002	-1.45809E-003	-2.02745E-003	3.62666E-002	-2.29339E-003
	8	8	1.10028E+000	5.02005E-002	0.00000E+000	5.52348E-002	5.00286E-001	4.38444E-002	4.95648E+001	11	...........	7.27508E-002	-5.21444E-003	5.96991E-001	5.60351E-001	-2.79294E-002	-3.88712E-002	6.94913E-001	-4.39503E-002	3.65213E-003	-2.61768E-004	2.99692E-002	2.81299E-002	-1.40207E-003	-1.95136E-003	3.48850E-002	-2.20633E-003
	9	9	1.10030E+000	4.81898E-002	0.00000E+000	5.30234E-002	4.80302E-001	4.37940E-002	4.91606E+001	11	...........	7.27029E-002	-5.23542E-003	5.96972E-001	5.60300E-001	-2.79331E-002	-3.88946E-002	6.94853E-001	-4.39481E-002	3.50354E-003	-2.52293E-004	2.87679E-002	2.70007E-002	-1.34609E-003	-1.87432E-003	3.34848E-002	-2.11785E-003
	10	10	1.10019E+000	4.73887E-002	0.00000E+000	5.21365E-002	4.72340E-001	4.37690E-002	4.88661E+001	11	...........	7.26596E-002	-5.19000E-003	5.96901E-001	5.60262E-001	-2.79321E-002	-3.88806E-002	6.94796E-001	-4.39832E-002	3.44325E-003	-2.45948E-004	2.82864E-002	2.65501E-002	-1.32367E-003	-1.84250E-003	3.29255E-002	-2.08431E-003
	11	11	1.10027E+000	4.66447E-002	0.00000E+000	5.13217E-002	4.64940E-001	4.37382E-002	4.86545E+001	11	...........	7.26258E-002	-5.19917E-003	5.96919E-001	5.60197E-001	-2.79307E-002	-3.88710E-002	6.94734E-001	-4.39733E-002	3.38761E-003	-2.42514E-004	2.78431E-002	2.61302E-002	-1.30282E-003	-1.81313E-003	3.24057E-002	-2.05112E-003
	12	12	1.10030E+000	4.55299E-002	0.00000E+000	5.00965E-002	4.53857E-001	4.37218E-002	4.84768E+001	11	...........	7.25756E-002	-5.09389E-003	5.96831E-001	5.60165E-001	-2.79393E-002	-3.88536E-002	6.94597E-001	-4.38478E-002	3.30436E-003	-2.31924E-004	2.71736E-002	2.55042E-002	-1.27207E-003	-1.76900E-003	3.16249E-002	-1.99638E-003
	13	13	1.10018E+000	4.53509E-002	0.00000E+000	4.98944E-002	4.52081E-001	4.36720E-002	4.83587E+001	11	...........	7.24976E-002	-5.10833E-003	5.96895E-001	5.60262E-001	-2.79356E-002	-3.88487E-002	6.94713E-001	-4.39281E-002	3.28783E-003	-2.31668E-004	2.70697E-002	2.54084E-002	-1.26690E-003	-1.76183E-003	3.15059E-002	-1.99218E-003
	14	14	1.10026E+000	4.51274E-002	0.00000E+000	4.96518E-002	4.49856E-001	4.36612E-002	4.82514E+001	11	...........	7.24689E-002	-5.11111E-003	5.96733E-001	5.60252E-001	-2.79396E-002	-3.88176E-002	6.94675E-001	-4.40154E-002	3.27033E-003	-2.30651E-004	2.69290E-002	2.52827E-002	-1.26084E-003	-1.75174E-003	3.13489E-002	-1.98630E-003
	15	15	1.10030E+000	4.44085E-002	0.00000E+000	4.88627E-002	4.42710E-001	4.36231E-002	4.81521E+001	11	...........	7.23962E-002	-5.15417E-003	5.96749E-001	5.60303E-001	-2.79458E-002	-3.88187E-002	6.94704E-001	-4.39785E-002	3.21501E-003	-2.28889E-004	2.65008E-002	2.48822E-002	-1.24103E-003	-1.72388E-003	3.08508E-002	-1.95302E-003
	16	16	1.10018E+000	4.44394E-002	0.00000E+000	4.88914E-002	4.43014E-001	4.35908E-002	4.80735E+001	11	...........	7.23232E-002	-5.01319E-003	5.96726E-001	5.60311E-001	-2.79585E-002	-3.88285E-002	6.94635E-001	-4.39408E-002	3.21400E-003	-2.22783E-004	2.65181E-002	2.48999E-002	-1.24246E-003	-1.72551E-003	3.08691E-002	-1.95270E-003
	17	17	1.10025E+000	4.43607E-002	0.00000E+000	4.88080E-002	4.42232E-001	4.35366E-002	4.80063E+001	11	...........	7.22697E-002	-4.94264E-003	5.96703E-001	5.60524E-001	-2.79276E-002	-3.88103E-002	6.94643E-001	-4.40146E-002	3.20593E-003	-2.19259E-004	2.64702E-002	2.48652E-002	-1.23889E-003	-1.72165E-003	3.08149E-002	-1.95252E-003
	18	18	1.10030E+000	4.37538E-002	0.00000E+000	4.81424E-002	4.36199E-001	4.34955E-002	4.79326E+001	11	...........	7.22097E-002	-4.94653E-003	5.96784E-001	5.60475E-001	-2.79239E-002	-3.88274E-002	6.94686E-001	-4.40471E-002	3.15945E-003	-2.16429E-004	2.61115E-002	2.45229E-002	-1.22177E-003	-1.69884E-003	3.03951E-002	-1.92723E-003
	19	19	1.10018E+000	4.38646E-002	0.00000E+000	4.82590E-002	4.37294E-001	4.34567E-002	4.79002E+001	11	...........	7.21424E-002	-4.97278E-003	5.96729E-001	5.60382E-001	-2.79310E-002	-3.88056E-002	6.94558E-001	-4.41118E-002	3.16449E-003	-2.18129E-004	2.61753E-002	2.45809E-002	-1.22518E-003	-1.70219E-003	3.04665E-002	-1.93495E-003
	20	20	1.10025E+000	4.38573E-002	0.00000E+000	4.82539E-002	4.37227E-001	4.32852E-002	4.78755E+001	11	...........	7.20822E-002	-5.11639E-003	5.96821E-001	5.60193E-001	-2.79332E-002	-3.87978E-002	6.94739E-001	-4.41036E-002	3.16133E-003	-2.24391E-004	2.61749E-002	2.45685E-002	-1.22507E-003	-1.70157E-003	3.04694E-002	-1.93426E-003
	21	21	1.10031E+000	4.32844E-002	0.00000E+000	4.76261E-002	4.31531E-001	4.31484E-002	4.78272E+001	11	...........	7.19953E-002	-5.12528E-003	5.97018E-001	5.60122E-001	-2.79314E-002	-3.88176E-002	6.94697E-001	-4.41571E-002	3.11627E-003	-2.21845E-004	2.58416E-002	2.42446E-002	-1.20899E-003	-1.68020E-003	3.00695E-002	-1.91131E-003
	22	22	1.10018E+000	4.33798E-002	0.00000E+000	4.77256E-002	4.32479E-001	4.31115E-002	4.78034E+001	11	...........	7.19414E-002	-5.09181E-003	5.97049E-001	5.60178E-001	-2.79208E-002	-3.88115E-002	6.94696E-001	-4.41258E-002	3.12080E-003	-2.20881E-004	2.58999E-002	2.43004E-002	-1.21120E-003	-1.68364E-003	3.01358E-002	-1.91417E-003
	23	23	1.10025E+000	4.34219E-002	0.00000E+000	4.77748E-002	4.32894E-001	4.30769E-002	4.77778E+001	11	...........	7.18983E-002	-5.07417E-003	5.97002E-001	5.60209E-001	-2.79276E-002	-3.87832E-002	6.94752E-001	-4.42075E-002	3.12196E-003	-2.20330E-004	2.59230E-002	2.43253E-002	-1.21267E-003	-1.68404E-003	3.01675E-002	-1.91957E-003
	24	24	1.10031E+000	4.29107E-002	0.00000E+000	4.72150E-002	4.27816E-001	4.30488E-002	4.77384E+001	11	...........	7.18326E-002	-5.03500E-003	5.97089E-001	5.60268E-001	-2.79407E-002	-3.87894E-002	6.94690E-001	-4.41890E-002	3.08239E-003	-2.16055E-004	2.56215E-002	2.40415E-002	-1.19895E-003	-1.66448E-003	2.98096E-002	-1.89618E-003
	25	25	1.10018E+000	4.29746E-002	0.00000E+000	4.72798E-002	4.28451E-001	4.29907E-002	4.77000E+001	11	...........	7.17474E-002	-5.05014E-003	5.97081E-001	5.60286E-001	-2.79647E-002	-3.87961E-002	6.94805E-001	-4.40126E-002	3.08331E-003	-2.17028E-004	2.56593E-002	2.40781E-002	-1.20177E-003	-1.66725E-003	2.98590E-002	-1.89142E-003
	26	26	1.10024E+000	4.29898E-002	0.00000E+000	4.72993E-002	4.28604E-001	4.29600E-002	4.76735E+001	11	...........	7.16975E-002	-5.04181E-003	5.97122E-001	5.60266E-001	-2.79646E-002	-3.87918E-002	6.94775E-001	-4.40397E-002	3.08226E-003	-2.16746E-004	2.56702E-002	2.40857E-002	-1.20219E-003	-1.66765E-003	2.98682E-002	-1.89326E-003
	27	27	1.10031E+000	4.25082E-002	0.00000E+000	4.67722E-002	4.23814E-001	4.29211E-002	4.76033E+001	11	...........	7.16182E-002	-5.11431E-003	5.97173E-001	5.60254E-001	-2.79807E-002	-3.87960E-002	6.94895E-001	-4.39987E-002	3.04436E-003	-2.17400E-004	2.53847E-002	2.38154E-002	-1.18941E-003	-1.64915E-003	2.95387E-002	-1.87031E-003
	28	28	1.10018E+000	4.25602E-002	0.00000E+000	4.68239E-002	4.24329E-001	4.28782E-002	4.76148E+001	11	...........	7.15635E-002	-5.07611E-003	5.97263E-001	5.60182E-001	-2.79624E-002	-3.87750E-002	6.95057E-001	-4.40331E-002	3.04576E-003	-2.16040E-004	2.54196E-002	2.38415E-002	-1.19008E-003	-1.65027E-003	2.95818E-002	-1.87406E-003
	29	29	1.10024E+000	4.26437E-002	0.00000E+000	4.69183E-002	4.25155E-001	4.28630E-002	4.75860E+001	11	...........	7.15218E-002	-5.10431E-003	5.97271E-001	5.60154E-001	-2.79660E-002	-3.87837E-002	6.95136E-001	-4.41754E-002	3.04995E-003	-2.17666E-004	2.54698E-002	2.38870E-002	-1.19257E-003	-1.65388E-003	2.96431E-002	-1.88380E-003
	30	30	1.10031E+000	4.21582E-002	0.00000E+000	4.63873E-002	4.20333E-001	4.28347E-002	4.75622E+001	11	...........	7.14881E-002	-5.03292E-003	5.97359E-001	5.60020E-001	-2.79556E-002	-3.87750E-002	6.94899E-001	-4.40278E-002	3.01381E-003	-2.12179E-004	2.51836E-002	2.36095E-002	-1.17856E-003	-1.63468E-003	2.92957E-002	-1.85613E-003
	31	31	1.10018E+000	4.21974E-002	0.00000E+000	4.64247E-002	4.20720E-001	4.27869E-002	4.75403E+001	11	...........	7.14140E-002	-5.18972E-003	5.97387E-001	5.60099E-001	-2.79585E-002	-3.87814E-002	6.94832E-001	-4.40754E-002	3.01348E-003	-2.18993E-004	2.52082E-002	2.36347E-002	-1.17977E-003	-1.63647E-003	2.93201E-002	-1.85987E-003
	32	32	1.10024E+000	4.22889E-002	0.00000E+000	4.65279E-002	4.21630E-001	4.27415E-002	4.75425E+001	11	...........	7.13483E-002	-5.21042E-003	5.97303E-001	5.60277E-001	-2.79601E-002	-3.87883E-002	6.94822E-001	-4.40140E-002	3.01724E-003	-2.20343E-004	2.52593E-002	2.36935E-002	-1.18240E-003	-1.64032E-003	2.93833E-002	-1.86131E-003
	33	33	1.10032E+000	4.18356E-002	0.00000E+000	4.60324E-002	4.17122E-001	4.27097E-002	4.75241E+001	11	...........	7.12772E-002	-5.19153E-003	5.97152E-001	5.60266E-001	-2.79739E-002	-3.87731E-002	6.94841E-001	-4.40026E-002	2.98193E-003	-2.17191E-004	2.49822E-002	2.34391E-002	-1.17031E-003	-1.62210E-003	2.90691E-002	-1.84088E-003
	34	34	1.10018E+000	4.18691E-002	0.00000E+000	4.60635E-002	4.17455E-001	4.26764E-002	4.75048E+001	11	...........	7.12376E-002	-5.20806E-003	5.97103E-001	5.60237E-001	-2.79990E-002	-3.87674E-002	6.94785E-001	-4.41165E-002	2.98266E-003	-2.18057E-004	2.50002E-002	2.34566E-002	-1.17229E-003	-1.62315E-003	2.90900E-002	-1.84712E-003
	35	35	1.10024E+000	4.19433E-002	0.00000E+000	4.61476E-002	4.18193E-001	4.26603E-002	4.74959E+001	11	...........	7.11876E-002	-5.25778E-003	5.97165E-001	5.60203E-001	-2.79996E-002	-3.88071E-002	6.94866E-001	-4.40411E-002	2.98584E-003	-2.20529E-004	2.50471E-002	2.34968E-002	-1.17439E-003	-1.62770E-003	2.91450E-002	-1.84723E-003
	36	36	1.10032E+000	4.14710E-002	0.00000E+000	4.56313E-002	4.13501E-001	4.26103E-002	4.75103E+001	11	...........	7.11117E-002	-5.13764E-003	5.97374E-001	5.60218E-001	-2.79976E-002	-3.88037E-002	6.94954E-001	-4.40144E-002	2.94908E-003	-2.13063E-004	2.47737E-002	2.32328E-002	-1.16109E-003	-1.60923E-003	2.88205E-002	-1.82533E-003
	37	37	1.10018E+000	4.15065E-002	0.00000E+000	4.56647E-002	4.13852E-001	4.25904E-002	4.74964E+001	11	...........	7.10599E-002	-5.23569E-003	5.97417E-001	5.60313E-001	-2.79865E-002	-3.88040E-002	6.95090E-001	-4.39601E-002	2.94945E-003	-2.17316E-004	2.47967E-002	2.32566E-002	-1.16162E-003	-1.61062E-003	2.88508E-002	-1.82463E-003
	38	38	1.10024E+000	4.16042E-002	0.00000E+000	4.57744E-002	4.14819E-001	4.25525E-002	4.74941E+001	11	...........	7.10028E-002	-5.30361E-003	5.97337E-001	5.60345E-001	-2.79708E-002	-3.88099E-002	6.95004E-001	-4.40574E-002	2.95401E-003	-2.20652E-004	2.48517E-002	2.33127E-002	-1.16370E-003	-1.61465E-003	2.89151E-002	-1.83297E-003
	39	39	1.10032E+000	4.11299E-002	0.00000E+000	4.52560E-002	4.10106E-001	4.25215E-002	4.74738E+001	11	...........	7.09586E-002	-5.21847E-003	5.97289E-001	5.60383E-001	-2.79778E-002	-3.88154E-002	6.94987E-001	-4.41736E-002	2.91852E-003	-2.14635E-004	2.45664E-002	2.30485E-002	-1.15072E-003	-1.59647E-003	2.85847E-002	-1.81685E-003
	40	40	1.10018E+000	4.10422E-002	0.00000E+000	4.51539E-002	4.09233E-001	4.24724E-002	4.74644E+001	11	...........	7.08785E-002	-5.17611E-003	5.97397E-001	5.60316E-001	-2.79881E-002	-3.88096E-002	6.94946E-001	-4.41179E-002	2.90901E-003	-2.12439E-004	2.45185E-002	2.29966E-002	-1.14869E-003	-1.59283E-003	2.85221E-002	-1.81070E-003
	41	41	1.10023E+000	4.11506E-002	0.00000E+000	4.52753E-002	4.10314E-001	4.24491E-002	4.74456E+001	11	...........	7.08421E-002	-5.12111E-003	5.97473E-001	5.60451E-001	-2.79957E-002	-3.88247E-002	6.94977E-001	-4.40594E-002	2.91519E-003	-2.10737E-004	2.45864E-002	2.30629E-002	-1.15204E-003	-1.59766E-003	2.85987E-002	-1.81307E-003
	42	42	1.10032E+000	4.07415E-002	0.00000E+000	4.48287E-002	4.06247E-001	4.24144E-002	4.74642E+001	11	...........	7.07908E-002	-5.14819E-003	5.97489E-001	5.60533E-001	-2.79924E-002	-3.88212E-002	6.94916E-001	-4.38815E-002	2.88413E-003	-2.09745E-004	2.43426E-002	2.28370E-002	-1.14045E-003	-1.58164E-003	2.83119E-002	-1.78780E-003
	43	43	1.10018E+000	4.07289E-002	0.00000E+000	4.48092E-002	4.06122E-001	4.23715E-002	4.74665E+001	11	...........	7.07275E-002	-5.11306E-003	5.97485E-001	5.60540E-001	-2.79828E-002	-3.88279E-002	6.94955E-001	-4.39329E-002	2.88066E-003	-2.08249E-004	2.43349E-002	2.28302E-002	-1.13971E-003	-1.58142E-003	2.83048E-002	-1.78934E-003
	44	44	1.10023E+000	4.08394E-002	0.00000E+000	4.49329E-002	4.07216E-001	4.23502E-002	4.74850E+001	11	...........	7.06905E-002	-5.23111E-003	5.97370E-001	5.60591E-001	-2.79643E-002	-3.88219E-002	6.94931E-001	-4.39958E-002	2.88696E-003	-2.13635E-004	2.43962E-002	2.28942E-002	-1.14205E-003	-1.58547E-003	2.83806E-002	-1.79676E-003
	45	45	1.10032E+000	4.04105E-002	0.00000E+000	4.44645E-002	4.02952E-001	4.23233E-002	4.74779E+001	11	...........	7.06313E-002	-5.22208E-003	5.97156E-001	5.60642E-001	-2.79565E-002	-3.88162E-002	6.94836E-001	-4.39846E-002	2.85425E-003	-2.11027E-004	2.41314E-002	2.26558E-002	-1.12974E-003	-1.56858E-003	2.80787E-002	-1.77744E-003
	46	46	1.10018E+000	4.03620E-002	0.00000E+000	4.44055E-002	4.02467E-001	4.22742E-002	4.74782E+001	11	...........	7.05715E-002	-5.09514E-003	5.97213E-001	5.60597E-001	-2.79807E-002	-3.87899E-002	6.94819E-001	-4.39965E-002	2.84840E-003	-2.05650E-004	2.41047E-002	2.26268E-002	-1.12936E-003	-1.56563E-003	2.80442E-002	-1.77579E-003
	47	47	1.10023E+000	4.04955E-002	0.00000E+000	4.45544E-002	4.03800E-001	4.22507E-002	4.74904E+001	11	...........	7.05214E-002	-5.22764E-003	5.97058E-001	5.60605E-001	-2.79886E-002	-3.87783E-002	6.94871E-001	-4.39460E-002	2.85580E-003	-2.11696E-004	2.41782E-002	2.27019E-002	-1.13341E-003	-1.57035E-003	2.81391E-002	-1.77961E-003
	48	48	1.10032E+000	4.01401E-002	0.00000E+000	4.41669E-002	4.00266E-001	4.22226E-002	4.74843E+001	11	...........	7.04531E-002	-5.15806E-003	5.97161E-001	5.60478E-001	-2.79967E-002	-3.87832E-002	6.94988E-001	-4.39601E-002	2.82799E-003	-2.07045E-004	2.39701E-002	2.24976E-002	-1.12379E-003	-1.55676E-003	2.78968E-002	-1.76456E-003
	49	49	1.10018E+000	4.00748E-002	0.00000E+000	4.40896E-002	3.99617E-001	4.21972E-002	4.75050E+001	11	...........	7.04013E-002	-5.14111E-003	5.97163E-001	5.60487E-001	-2.80053E-002	-3.87918E-002	6.94941E-001	-4.39503E-002	2.82132E-003	-2.06029E-004	2.39312E-002	2.24614E-002	-1.12231E-003	-1.55457E-003	2.78496E-002	-1.76130E-003
	50	50	1.10023E+000	4.01951E-002	0.00000E+000	4.42239E-002	4.00812E-001	4.21602E-002	4.75156E+001	11	...........	7.03550E-002	-5.15667E-003	5.97202E-001	5.60507E-001	-2.80193E-002	-3.87942E-002	6.94933E-001	-4.40108E-002	2.82793E-003	-2.07273E-004	2.40046E-002	2.25296E-002	-1.12624E-003	-1.55934E-003	2.79329E-002	-1.76902E-003
	51	51	1.10032E+000	3.98284E-002	0.00000E+000	4.38240E-002	3.97167E-001	4.21197E-002	4.75164E+001	11	...........	7.02885E-002	-5.15069E-003	5.97251E-001	5.60652E-001	-2.80189E-002	-3.87746E-002	6.94869E-001	-4.38775E-002	2.79948E-003	-2.05144E-004	2.37876E-002	2.23299E-002	-1.11595E-003	-1.54433E-003	2.76755E-002	-1.74757E-003
	52	52	1.10018E+000	3.97695E-002	0.00000E+000	4.37537E-002	3.96580E-001	4.20831E-002	4.75343E+001	11	...........	7.02357E-002	-5.16319E-003	5.97395E-001	5.60725E-001	-2.80315E-002	-3.87810E-002	6.94764E-001	-4.38979E-002	2.79324E-003	-2.05337E-004	2.37581E-002	2.22997E-002	-1.11480E-003	-1.54230E-003	2.76304E-002	-1.74580E-003
	53	53	1.10023E+000	3.98943E-002	0.00000E+000	4.38929E-002	3.97820E-001	4.20595E-002	4.75204E+001	11	...........	7.01960E-002	-5.23931E-003	5.97347E-001	5.60642E-001	-2.80126E-002	-3.87581E-002	6.94809E-001	-4.39226E-002	2.80042E-003	-2.09019E-004	2.38308E-002	2.23664E-002	-1.11755E-003	-1.54623E-003	2.77189E-002	-1.75226E-003
	54	54	1.10032E+000	3.95303E-002	0.00000E+000	4.34960E-002	3.94202E-001	4.20220E-002	4.75283E+001	11	...........	7.01253E-002	-5.23514E-003	5.97376E-001	5.60749E-001	-2.80018E-002	-3.87453E-002	6.94868E-001	-4.39887E-002	2.77207E-003	-2.06947E-004	2.36145E-002	2.21666E-002	-1.10692E-003	-1.53161E-003	2.74684E-002	-1.73889E-003
	55	55	1.10019E+000	3.94620E-002	0.00000E+000	4.34155E-002	3.93523E-001	4.19833E-002	4.74883E+001	11	...........	7.00739E-002	-5.19306E-003	5.97246E-001	5.60624E-001	-2.80050E-002	-3.87417E-002	6.94794E-001	-4.40175E-002	2.76526E-003	-2.04928E-004	2.35685E-002	2.21233E-002	-1.10513E-003	-1.52882E-003	2.74180E-002	-1.73702E-003
	56	56	1.10023E+000	3.95876E-002	0.00000E+000	4.35554E-002	3.94773E-001	4.19677E-002	4.74800E+001	11	...........	7.00272E-002	-5.15417E-003	5.97298E-001	5.60807E-001	-2.80004E-002	-3.87117E-002	6.94857E-001	-4.41529E-002	2.77221E-003	-2.04041E-004	2.36456E-002	2.22010E-002	-1.10847E-003	-1.53250E-003	2.75078E-002	-1.74791E-003
	57	57	1.10032E+000	3.92396E-002	0.00000E+000	4.31761E-002	3.91313E-001	4.19328E-002	4.74823E+001	11	...........	6.99824E-002	-5.12792E-003	5.97581E-001	5.60902E-001	-2.79756E-002	-3.87037E-002	6.94953E-001	-4.40556E-002	2.74608E-003	-2.01217E-004	2.34488E-002	2.20095E-002	-1.09775E-003	-1.51872E-003	2.72697E-002	-1.72872E-003
	58	58	1.10019E+000	3.91404E-002	0.00000E+000	4.30618E-002	3.90329E-001	4.18922E-002	4.74744E+001	11	...........	6.99258E-002	-5.10167E-003	5.97521E-001	5.60923E-001	-2.79779E-002	-3.86951E-002	6.94972E-001	-4.39422E-002	2.73693E-003	-1.99681E-004	2.33873E-002	2.19548E-002	-1.09507E-003	-1.51454E-003	2.72015E-002	-1.71992E-003
	59	59	1.10023E+000	3.92787E-002	0.00000E+000	4.32155E-002	3.91704E-001	4.18728E-002	4.74676E+001	11	...........	6.98675E-002	-5.16750E-003	5.97490E-001	5.60945E-001	-2.79849E-002	-3.87079E-002	6.94995E-001	-4.39917E-002	2.74431E-003	-2.02973E-004	2.34686E-002	2.20332E-002	-1.09921E-003	-1.52040E-003	2.72985E-002	-1.72794E-003
	60	60	1.10032E+000	3.89463E-002	0.00000E+000	4.28534E-002	3.88397E-001	4.18321E-002	4.74731E+001	11	...........	6.98179E-002	-5.06889E-003	5.97516E-001	5.60803E-001	-2.79815E-002	-3.87181E-002	6.94969E-001	-4.40906E-002	2.71915E-003	-1.97415E-004	2.32711E-002	2.18412E-002	-1.08978E-003	-1.50793E-003	2.70665E-002	-1.71717E-003
	61	61	1.10019E+000	3.88390E-002	0.00000E+000	4.27303E-002	3.87334E-001	4.17943E-002	4.74807E+001	11	...........	6.97462E-002	-5.03431E-003	5.97620E-001	5.60778E-001	-2.79983E-002	-3.87481E-002	6.94875E-001	-4.40585E-002	2.70888E-003	-1.95528E-004	2.32110E-002	2.17801E-002	-1.08743E-003	-1.50494E-003	2.69883E-002	-1.71119E-003
	62	62	1.10023E+000	3.90049E-002	0.00000E+000	4.29142E-002	3.88984E-001	4.17859E-002	4.60538E+001	11	...........	6.97421E-002	-5.10278E-003	5.97623E-001	5.60729E-001	-2.80007E-002	-3.87403E-002	6.94889E-001	-4.40925E-002	2.72028E-003	-1.99033E-004	2.33102E-002	2.18712E-002	-1.09216E-003	-1.51106E-003	2.71041E-002	-1.71982E-003
	63	63	1.10032E+000	3.85869E-002	0.00000E+000	4.24578E-002	3.84823E-001	4.15128E-002	4.64677E+001	11	...........	6.92792E-002	-5.06861E-003	5.97586E-001	5.60699E-001	-2.80015E-002	-3.87503E-002	6.94940E-001	-4.41900E-002	2.67326E-003	-1.95582E-004	2.30590E-002	2.16356E-002	-1.08049E-003	-1.49525E-003	2.68155E-002	-1.70515E-003
	64	64	1.10019E+000	3.85226E-002	0.00000E+000	4.23822E-002	3.84181E-001	4.17137E-002	4.71807E+001	11	...........	6.96108E-002	-5.13389E-003	5.97728E-001	5.60680E-001	-2.80147E-002	-3.87539E-002	6.94897E-001	-4.42026E-002	2.68159E-003	-1.97771E-004	2.30260E-002	2.15988E-002	-1.07920E-003	-1.49290E-003	2.67692E-002	-1.70280E-003
	65	65	1.10023E+000	3.86753E-002	0.00000E+000	4.25516E-002	3.85704E-001	4.16432E-002	4.73167E+001	11	...........	6.95007E-002	-5.15431E-003	5.97605E-001	5.60609E-001	-2.80082E-002	-3.87772E-002	6.94807E-001	-4.41242E-002	2.68796E-003	-1.99345E-004	2.31126E-002	2.16817E-002	-1.08323E-003	-1.49972E-003	2.68719E-002	-1.70652E-003
	66	66	1.10031E+000	3.83835E-002	0.00000E+000	4.22339E-002	3.82811E-001	4.16265E-002	4.72724E+001	11	...........	6.94736E-002	-5.16042E-003	5.97599E-001	5.60603E-001	-2.80050E-002	-3.87872E-002	6.94917E-001	-4.40440E-002	2.66664E-003	-1.98075E-004	2.29380E-002	2.15179E-002	-1.07493E-003	-1.48879E-003	2.66734E-002	-1.69057E-003
	67	67	1.10019E+000	3.82461E-002	0.00000E+000	4.20782E-002	3.81437E-001	4.16037E-002	4.73119E+001	11	...........	6.94517E-002	-5.16514E-003	5.97517E-001	5.60610E-001	-2.79967E-002	-3.87862E-002	6.94903E-001	-4.39672E-002	2.65626E-003	-1.97547E-004	2.28527E-002	2.14412E-002	-1.07076E-003	-1.48342E-003	2.65774E-002	-1.68158E-003
	68	68	1.10022E+000	3.84100E-002	0.00000E+000	4.22597E-002	3.83070E-001	4.16063E-002	4.73307E+001	11	...........	6.94346E-002	-5.24903E-003	5.97444E-001	5.60457E-001	-2.79867E-002	-3.87587E-002	6.94939E-001	-4.39522E-002	2.66699E-003	-2.01615E-004	2.29478E-002	2.15272E-002	-1.07497E-003	-1.48873E-003	2.66927E-002	-1.68821E-003
	69	69	1.10031E+000	3.80799E-002	0.00000E+000	4.18999E-002	3.79788E-001	4.15646E-002	4.73644E+001	11	...........	6.93682E-002	-5.27931E-003	5.97305E-001	5.60473E-001	-2.79968E-002	-3.87643E-002	6.94878E-001	-4.39957E-002	2.64154E-003	-2.01036E-004	2.27453E-002	2.13428E-002	-1.06612E-003	-1.47614E-003	2.64609E-002	-1.67535E-003
	70	70	1.10020E+000	3.79184E-002	0.00000E+000	4.17177E-002	3.78181E-001	4.15233E-002	4.73185E+001	11	...........	6.92974E-002	-5.16764E-003	5.97156E-001	5.60426E-001	-2.79992E-002	-3.87531E-002	6.94810E-001	-4.39364E-002	2.62765E-003	-1.95949E-004	2.26432E-002	2.12505E-002	-1.06168E-003	-1.46945E-003	2.63461E-002	-1.66600E-003
	71	71	1.10022E+000	3.81194E-002	0.00000E+000	4.19399E-002	3.80185E-001	4.15137E-002	4.73211E+001	11	...........	6.92846E-002	-5.25319E-003	5.97096E-001	5.60427E-001	-2.79853E-002	-3.87485E-002	6.94820E-001	-4.39457E-002	2.64109E-003	-2.00249E-004	2.27610E-002	2.13632E-002	-1.06678E-003	-1.47707E-003	2.64861E-002	-1.67518E-003
	72	72	1.10031E+000	3.78423E-002	0.00000E+000	4.16384E-002	3.77430E-001	4.15154E-002	4.73522E+001	11	...........	6.92878E-002	-5.26222E-003	5.97115E-001	5.60343E-001	-2.79771E-002	-3.87775E-002	6.94685E-001	-4.39213E-002	2.62201E-003	-1.99135E-004	2.25962E-002	2.12047E-002	-1.05872E-003	-1.46743E-003	2.62885E-002	-1.66208E-003
	73	73	1.10020E+000	3.76583E-002	0.00000E+000	4.14316E-002	3.75597E-001	4.14560E-002	4.73139E+001	11	...........	6.92054E-002	-5.23139E-003	5.97019E-001	5.60332E-001	-2.79785E-002	-3.87710E-002	6.94716E-001	-4.38943E-002	2.60616E-003	-1.97005E-004	2.24828E-002	2.11012E-002	-1.05362E-003	-1.46005E-003	2.61618E-002	-1.65299E-003
	74	74	1.10022E+000	3.78331E-002	0.00000E+000	4.16249E-002	3.77339E-001	4.14222E-002	4.72963E+001	11	...........	6.91244E-002	-5.16333E-003	5.97115E-001	5.60273E-001	-2.79646E-002	-3.87694E-002	6.94823E-001	-4.39454E-002	2.61519E-003	-1.95345E-004	2.25907E-002	2.11969E-002	-1.05799E-003	-1.46677E-003	2.62873E-002	-1.66259E-003
	75	75	1.10031E+000	3.75727E-002	0.00000E+000	4.13416E-002	3.74746E-001	4.14472E-002	4.73396E+001	11	...........	6.91746E-002	-5.14306E-003	5.97125E-001	5.60295E-001	-2.79687E-002	-3.87862E-002	6.94826E-001	-4.41194E-002	2.59907E-003	-1.93238E-004	2.24356E-002	2.10518E-002	-1.05086E-003	-1.45730E-003	2.61065E-002	-1.65769E-003
	76	76	1.10020E+000	3.73562E-002	0.00000E+000	4.10994E-002	3.72592E-001	4.14139E-002	4.73548E+001	11	...........	6.91235E-002	-5.19597E-003	5.97076E-001	5.60327E-001	-2.79676E-002	-3.87711E-002	6.94816E-001	-4.41015E-002	2.58219E-003	-1.94102E-004	2.23045E-002	2.09317E-002	-1.04476E-003	-1.44834E-003	2.59557E-002	-1.64746E-003
	77	77	1.10022E+000	3.75344E-002	0.00000E+000	4.12961E-002	3.74363E-001	4.13881E-002	4.73788E+001	11	...........	6.90605E-002	-5.11806E-003	5.97217E-001	5.60214E-001	-2.79329E-002	-3.88022E-002	6.94781E-001	-4.40019E-002	2.59214E-003	-1.92103E-004	2.24162E-002	2.10273E-002	-1.04844E-003	-1.45642E-003	2.60782E-002	-1.65159E-003
	78	78	1.10031E+000	3.72772E-002	0.00000E+000	4.10164E-002	3.71803E-001	4.13801E-002	4.73690E+001	11	...........	6.90414E-002	-5.06958E-003	5.97256E-001	5.60334E-001	-2.79160E-002	-3.88281E-002	6.94811E-001	-4.39815E-002	2.57367E-003	-1.88980E-004	2.22641E-002	2.08877E-002	-1.04063E-003	-1.44740E-003	2.59006E-002	-1.63951E-003
	79	79	1.10021E+000	3.70354E-002	0.00000E+000	4.07465E-002	3.69402E-001	4.13475E-002	4.73984E+001	11	...........	6.89939E-002	-5.06583E-003	5.97212E-001	5.60349E-001	-2.79264E-002	-3.88401E-002	6.94708E-001	-4.39808E-002	2.55521E-003	-1.87615E-004	2.21180E-002	2.07527E-002	-1.03426E-003	-1.43846E-003	2.57288E-002	-1.62885E-003
	80	80	1.10022E+000	3.72204E-002	0.00000E+000	4.09507E-002	3.71243E-001	4.13220E-002	4.74051E+001	11	...........	6.89642E-002	-5.06347E-003	5.97174E-001	5.60388E-001	-2.79603E-002	-3.88158E-002	6.94694E-001	-4.39186E-002	2.56687E-003	-1.88464E-004	2.22271E-002	2.08579E-002	-1.04069E-003	-1.44474E-003	2.58568E-002	-1.63467E-003
	81	81	1.10031E+000	3.70211E-002	0.00000E+000	4.07345E-002	3.69258E-001	4.12871E-002	4.74074E+001	11	...........	6.89036E-002	-5.15847E-003	5.97057E-001	5.60256E-001	-2.79704E-002	-3.88276E-002	6.94862E-001	-4.37604E-002	2.55088E-003	-1.90972E-004	2.21037E-002	2.07413E-002	-1.03549E-003	-1.43744E-003	2.57245E-002	-1.62006E-003
	82	82	1.10021E+000	3.67648E-002	0.00000E+000	4.04489E-002	3.66714E-001	4.12923E-002	4.73807E+001	11	...........	6.89094E-002	-5.13542E-003	5.97072E-001	5.60304E-001	-2.79614E-002	-3.88249E-002	6.94887E-001	-4.38918E-002	2.53344E-003	-1.88803E-004	2.19512E-002	2.05995E-002	-1.02800E-003	-1.42739E-003	2.55474E-002	-1.61367E-003
	83	83	1.10022E+000	3.69621E-002	0.00000E+000	4.06665E-002	3.68674E-001	4.12438E-002	4.73799E+001	11	...........	6.88294E-002	-5.10875E-003	5.97122E-001	5.60344E-001	-2.79540E-002	-3.88362E-002	6.94943E-001	-4.39519E-002	2.54408E-003	-1.88830E-004	2.20709E-002	2.07115E-002	-1.03324E-003	-1.43547E-003	2.56865E-002	-1.62456E-003
	84	84	1.10030E+000	3.67315E-002	0.00000E+000	4.04158E-002	3.66379E-001	4.12260E-002	4.73558E+001	11	...........	6.87997E-002	-5.12722E-003	5.97006E-001	5.60360E-001	-2.79485E-002	-3.88231E-002	6.94942E-001	-4.38550E-002	2.52712E-003	-1.88331E-004	2.19289E-002	2.05829E-002	-1.02659E-003	-1.42603E-003	2.55263E-002	-1.61086E-003
	85	85	1.10021E+000	3.64559E-002	0.00000E+000	4.01092E-002	3.63639E-001	4.12101E-002	4.73576E+001	11	...........	6.87804E-002	-5.15736E-003	5.96880E-001	5.60357E-001	-2.79439E-002	-3.88069E-002	6.94878E-001	-4.39029E-002	2.50745E-003	-1.88016E-004	2.17598E-002	2.04283E-002	-1.01872E-003	-1.41474E-003	2.53324E-002	-1.60052E-003
	86	86	1.10022E+000	3.66624E-002	0.00000E+000	4.03367E-002	3.65692E-001	4.11821E-002	4.73474E+001	11	...........	6.87187E-002	-5.19097E-003	5.96764E-001	5.60490E-001	-2.79322E-002	-3.88119E-002	6.94841E-001	-4.38772E-002	2.51940E-003	-1.90314E-004	2.18788E-002	2.05489E-002	-1.02406E-003	-1.42294E-003	2.54746E-002	-1.60865E-003
	87	87	1.10030E+000	3.64343E-002	0.00000E+000	4.00888E-002	3.63424E-001	4.11658E-002	4.73481E+001	11	...........	6.86906E-002	-5.06389E-003	5.96606E-001	5.60556E-001	-2.79604E-002	-3.88107E-002	6.94858E-001	-4.37519E-002	2.50269E-003	-1.84499E-004	2.17369E-002	2.04235E-002	-1.01872E-003	-1.41404E-003	2.53167E-002	-1.59407E-003
	88	88	1.10021E+000	3.61728E-002	0.00000E+000	3.97978E-002	3.60824E-001	4.11473E-002	4.73354E+001	11	...........	6.86624E-002	-5.01542E-003	5.96541E-001	5.60509E-001	-2.79726E-002	-3.88132E-002	6.94925E-001	-4.38451E-002	2.48371E-003	-1.81422E-004	2.15786E-002	2.02752E-002	-1.01185E-003	-1.40398E-003	2.51374E-002	-1.58600E-003
	89	89	1.10022E+000	3.63647E-002	0.00000E+000	4.00091E-002	3.62733E-001	4.10982E-002	4.73262E+001	11	...........	6.85987E-002	-5.09861E-003	5.96660E-001	5.60614E-001	-2.79758E-002	-3.88026E-002	6.94894E-001	-4.36642E-002	2.49458E-003	-1.85410E-004	2.16974E-002	2.03866E-002	-1.01733E-003	-1.41105E-003	2.52696E-002	-1.58784E-003
	90	90	1.10030E+000	3.61767E-002	0.00000E+000	3.98052E-002	3.60864E-001	4.10814E-002	4.73815E+001	11	...........	6.85733E-002	-5.16708E-003	5.96511E-001	5.60742E-001	-2.79546E-002	-3.87996E-002	6.94972E-001	-4.38010E-002	2.48076E-003	-1.86928E-004	2.15798E-002	2.02858E-002	-1.01130E-003	-1.40364E-003	2.51418E-002	-1.58458E-003
	91	91	1.10022E+000	3.59484E-002	0.00000E+000	3.95510E-002	3.58588E-001	4.10298E-002	4.73418E+001	11	...........	6.84983E-002	-5.17403E-003	5.96597E-001	5.60724E-001	-2.79442E-002	-3.87893E-002	6.94847E-001	-4.38926E-002	2.46241E-003	-1.85998E-004	2.14467E-002	2.01571E-002	-1.00455E-003	-1.39441E-003	2.49787E-002	-1.57787E-003
	92	92	1.10022E+000	3.61218E-002	0.00000E+000	3.97419E-002	3.60315E-001	4.10337E-002	4.73743E+001	11	...........	6.84796E-002	-5.12333E-003	5.96744E-001	5.60668E-001	-2.79583E-002	-3.87882E-002	6.94910E-001	-4.37344E-002	2.47361E-003	-1.85064E-004	2.15554E-002	2.02523E-002	-1.00991E-003	-1.40110E-003	2.51014E-002	-1.57977E-003
	93	93	1.10030E+000	3.59174E-002	0.00000E+000	3.95199E-002	3.58286E-001	4.09909E-002	4.73776E+001	11	...........	6.84157E-002	-5.16375E-003	5.96621E-001	5.60758E-001	-2.79704E-002	-3.87935E-002	6.94817E-001	-4.37725E-002	2.45732E-003	-1.85469E-004	2.14291E-002	2.01410E-002	-1.00463E-003	-1.39336E-003	2.49561E-002	-1.57220E-003
	94	94	1.10022E+000	3.56258E-002	0.00000E+000	3.91962E-002	3.55385E-001	4.09627E-002	4.73975E+001	11	...........	6.83658E-002	-5.23097E-003	5.96437E-001	5.60722E-001	-2.79617E-002	-3.88043E-002	6.94833E-001	-4.39196E-002	2.43559E-003	-1.86358E-004	2.12486E-002	1.99762E-002	-9.96158E-004	-1.38244E-003	2.47540E-002	-1.56467E-003
	95	95	1.10022E+000	3.57965E-002	0.00000E+000	3.93839E-002	3.57080E-001	4.09589E-002	4.73616E+001	11	...........	6.83543E-002	-5.24569E-003	5.96357E-001	5.60640E-001	-2.79662E-002	-3.88021E-002	6.94827E-001	-4.40019E-002	2.44684E-003	-1.87777E-004	2.13475E-002	2.00689E-002	-1.00109E-003	-1.38898E-003	2.48724E-002	-1.57511E-003
	96	96	1.10030E+000	3.56594E-002	0.00000E+000	3.92359E-002	3.55724E-001	4.09120E-002	4.73451E+001	11	...........	6.82710E-002	-5.23625E-003	5.96356E-001	5.60608E-001	-2.79856E-002	-3.88153E-002	6.94902E-001	-4.40376E-002	2.43450E-003	-1.86722E-004	2.12657E-002	1.99910E-002	-9.97949E-004	-1.38413E-003	2.47798E-002	-1.57036E-003
	97	97	1.10022E+000	3.53872E-002	0.00000E+000	3.89337E-002	3.53016E-001	4.08839E-002	4.73330E+001	11	...........	6.82358E-002	-5.21056E-003	5.96332E-001	5.60449E-001	-2.79506E-002	-3.88233E-002	6.94894E-001	-4.39858E-002	2.41467E-003	-1.84387E-004	2.11025E-002	1.98327E-002	-9.89090E-004	-1.37385E-003	2.45903E-002	-1.55653E-003
	98	98	1.10022E+000	3.55567E-002	0.00000E+000	3.91200E-002	3.54699E-001	4.08641E-002	4.73261E+001	11	...........	6.81943E-002	-5.13292E-003	5.96352E-001	5.60380E-001	-2.79465E-002	-3.88233E-002	6.94951E-001	-4.39219E-002	2.42476E-003	-1.82509E-004	2.12043E-002	1.99252E-002	-9.93685E-004	-1.38043E-003	2.47101E-002	-1.56172E-003
	99	99	1.10029E+000	3.54166E-002	0.00000E+000	3.89687E-002	3.53305E-001	4.08422E-002	4.73390E+001	11	...........	6.81657E-002	-5.26472E-003	5.96403E-001	5.60403E-001	-2.79394E-002	-3.88157E-002	6.94904E-001	-4.40556E-002	2.41420E-003	-1.86459E-004	2.11225E-002	1.98476E-002	-9.89520E-004	-1.37472E-003	2.46111E-002	-1.56030E-003
	100	100	1.10023E+000	3.51072E-002	0.00000E+000	3.86258E-002	3.50227E-001	4.08248E-002	4.73421E+001	11	...........	6.81101E-002	-5.31917E-003	5.96377E-001	5.60302E-001	-2.79260E-002	-3.88162E-002	6.94846E-001	-4.39510E-002	2.39116E-003	-1.86741E-004	2.09371E-002	1.96706E-002	-9.80402E-004	-1.36273E-003	2.43941E-002	-1.54300E-003
	101	101	1.10022E+000	3.53196E-002	0.00000E+000	3.88591E-002	3.52336E-001	4.07918E-002	4.73553E+001	11	...........	6.80682E-002	-5.21833E-003	5.96395E-001	5.60220E-001	-2.79296E-002	-3.88265E-002	6.94873E-001	-4.38082E-002	2.40414E-003	-1.84309E-004	2.10644E-002	1.97867E-002	-9.86461E-004	-1.37134E-003	2.45426E-002	-1.54729E-003
	102	102	1.10029E+000	3.51890E-002	0.00000E+000	3.87182E-002	3.51046E-001	4.07731E-002	4.73580E+001	11	...........	6.80435E-002	-5.21292E-003	5.96566E-001	5.60238E-001	-2.79324E-002	-3.88437E-002	6.94954E-001	-4.38147E-002	2.39438E-003	-1.83437E-004	2.09926E-002	1.97142E-002	-9.82912E-004	-1.36687E-003	2.44548E-002	-1.54180E-003
	103	103	1.10023E+000	3.48685E-002	0.00000E+000	3.83633E-002	3.47857E-001	4.07302E-002	4.73619E+001	11	...........	6.79853E-002	-5.15556E-003	5.96679E-001	5.60365E-001	-2.79504E-002	-3.88510E-002	6.94905E-001	-4.38269E-002	2.37054E-003	-1.79766E-004	2.08053E-002	1.95391E-002	-9.74589E-004	-1.35467E-003	2.42303E-002	-1.52818E-003
	104	104	1.10021E+000	3.50721E-002	0.00000E+000	3.85869E-002	3.49881E-001	4.07129E-002	4.73772E+001	11	...........	6.79562E-002	-5.14194E-003	5.96546E-001	5.60339E-001	-2.79735E-002	-3.88265E-002	6.94793E-001	-4.38149E-002	2.38337E-003	-1.80339E-004	2.09221E-002	1.96523E-002	-9.81090E-004	-1.36173E-003	2.43679E-002	-1.53668E-003
	105	105	1.10029E+000	3.49304E-002	0.00000E+000	3.84335E-002	3.48470E-001	4.06962E-002	4.73926E+001	11	...........	6.79087E-002	-5.16833E-003	5.96406E-001	5.60340E-001	-2.79614E-002	-3.88424E-002	6.94772E-001	-4.38083E-002	2.37208E-003	-1.80532E-004	2.08327E-002	1.95729E-002	-9.76701E-004	-1.35678E-003	2.42686E-002	-1.53024E-003
	106	106	1.10023E+000	3.46142E-002	0.00000E+000	3.80836E-002	3.45330E-001	4.06596E-002	4.73967E+001	11	...........	6.78642E-002	-5.12861E-003	5.96395E-001	5.60276E-001	-2.79749E-002	-3.88622E-002	6.94784E-001	-4.38647E-002	2.34906E-003	-1.77523E-004	2.06437E-002	1.93935E-002	-9.68327E-004	-1.34518E-003	2.40494E-002	-1.51834E-003
	107	107	1.10021E+000	3.47939E-002	0.00000E+000	3.82808E-002	3.47113E-001	4.06568E-002	4.73860E+001	11	...........	6.78485E-002	-5.21667E-003	5.96357E-001	5.60364E-001	-2.79715E-002	-3.88374E-002	6.94727E-001	-4.38413E-002	2.36071E-003	-1.81508E-004	2.07496E-002	1.94973E-002	-9.73239E-004	-1.35130E-003	2.41723E-002	-1.52541E-003
	108	108	1.10029E+000	3.46513E-002	0.00000E+000	3.81264E-002	3.45696E-001	4.06152E-002	4.73909E+001	11	...........	6.77901E-002	-5.23625E-003	5.96342E-001	5.60312E-001	-2.79660E-002	-3.88614E-002	6.94843E-001	-4.37546E-002	2.34902E-003	-1.81443E-004	2.06640E-002	1.94155E-002	-9.69057E-004	-1.34660E-003	2.40772E-002	-1.51615E-003
	109	109	1.10023E+000	3.43176E-002	0.00000E+000	3.77574E-002	3.42376E-001	4.05787E-002	4.73790E+001	11	...........	6.77232E-002	-5.19986E-003	5.96410E-001	5.60253E-001	-2.79694E-002	-3.88561E-002	6.94635E-001	-4.38556E-002	2.32410E-003	-1.78447E-004	2.04674E-002	1.92265E-002	-9.59844E-004	-1.33345E-003	2.38382E-002	-1.50502E-003
	110	110	1.10021E+000	3.45114E-002	0.00000E+000	3.79699E-002	3.44307E-001	4.05647E-002	4.73820E+001	11	...........	6.76976E-002	-5.19208E-003	5.96573E-001	5.60392E-001	-2.79737E-002	-3.88304E-002	6.94677E-001	-4.37461E-002	2.33634E-003	-1.79186E-004	2.05886E-002	1.93399E-002	-9.65412E-004	-1.34009E-003	2.39743E-002	-1.50974E-003
	111	111	1.10028E+000	3.43971E-002	0.00000E+000	3.78466E-002	3.43165E-001	4.05427E-002	4.73914E+001	11	...........	6.76524E-002	-5.18667E-003	5.96737E-001	5.60570E-001	-2.79792E-002	-3.88129E-002	6.94595E-001	-4.37940E-002	2.32705E-003	-1.78406E-004	2.05260E-002	1.92820E-002	-9.62403E-004	-1.33505E-003	2.38921E-002	-1.50639E-003
	112	112	1.10024E+000	3.40738E-002	0.00000E+000	3.74892E-002	3.39952E-001	4.05012E-002	4.73684E+001	11	...........	6.75882E-002	-5.15889E-003	5.96719E-001	5.60468E-001	-2.79682E-002	-3.87975E-002	6.94620E-001	-4.38582E-002	2.30298E-003	-1.75783E-004	2.03325E-002	1.90973E-002	-9.52982E-004	-1.32198E-003	2.36683E-002	-1.49441E-003
	113	113	1.10021E+000	3.42564E-002	0.00000E+000	3.76893E-002	3.41773E-001	4.04860E-002	4.73672E+001	11	...........	6.75768E-002	-5.09556E-003	5.96720E-001	5.60581E-001	-2.79461E-002	-3.87731E-002	6.94632E-001	-4.40331E-002	2.31494E-003	-1.74555E-004	2.04415E-002	1.92035E-002	-9.57334E-004	-1.32823E-003	2.37956E-002	-1.50841E-003
	114	114	1.10028E+000	3.41476E-002	0.00000E+000	3.75721E-002	3.40689E-001	4.04685E-002	4.74014E+001	11	...........	6.75405E-002	-5.07125E-003	5.96694E-001	5.60587E-001	-2.79210E-002	-3.87893E-002	6.94693E-001	-4.39550E-002	2.30635E-003	-1.73171E-004	2.03757E-002	1.91427E-002	-9.53435E-004	-1.32456E-003	2.37221E-002	-1.50096E-003
	115	115	1.10024E+000	3.37936E-002	0.00000E+000	3.71811E-002	3.37168E-001	4.04384E-002	4.74035E+001	11	...........	6.74940E-002	-5.20347E-003	5.96827E-001	5.60247E-001	-2.79106E-002	-3.88025E-002	6.94793E-001	-4.39603E-002	2.28087E-003	-1.75844E-004	2.01690E-002	1.89328E-002	-9.43199E-004	-1.31128E-003	2.34796E-002	-1.48558E-003
	116	116	1.10021E+000	3.40043E-002	0.00000E+000	3.74120E-002	3.39261E-001	4.04045E-002	4.74110E+001	11	...........	6.74374E-002	-5.20583E-003	5.96855E-001	5.60215E-001	-2.79051E-002	-3.88146E-002	6.94846E-001	-4.39887E-002	2.29316E-003	-1.77021E-004	2.02957E-002	1.90497E-002	-9.48896E-004	-1.31986E-003	2.36278E-002	-1.49581E-003
	117	117	1.10028E+000	3.39170E-002	0.00000E+000	3.73182E-002	3.38391E-001	4.03793E-002	4.74019E+001	11	...........	6.73978E-002	-5.17292E-003	5.96777E-001	5.60268E-001	-2.78925E-002	-3.88215E-002	6.94993E-001	-4.39904E-002	2.28593E-003	-1.75450E-004	2.02409E-002	1.90026E-002	-9.46029E-004	-1.31671E-003	2.35721E-002	-1.49202E-003
	118	118	1.10024E+000	3.35423E-002	0.00000E+000	3.69048E-002	3.34665E-001	4.03686E-002	4.73867E+001	11	...........	6.73528E-002	-5.15861E-003	5.96714E-001	5.60327E-001	-2.78624E-002	-3.88332E-002	6.95018E-001	-4.40361E-002	2.25917E-003	-1.73032E-004	2.00152E-002	1.87947E-002	-9.34569E-004	-1.30256E-003	2.33125E-002	-1.47707E-003
	119	119	1.10021E+000	3.37175E-002	0.00000E+000	3.70963E-002	3.36408E-001	4.03257E-002	4.73554E+001	11	...........	6.73196E-002	-5.13500E-003	5.96831E-001	5.60238E-001	-2.78521E-002	-3.88536E-002	6.94810E-001	-4.40378E-002	2.26985E-003	-1.73139E-004	2.01236E-002	1.88898E-002	-9.39103E-004	-1.31005E-003	2.34273E-002	-1.48484E-003
	120	120	1.10028E+000	3.36692E-002	0.00000E+000	3.70454E-002	3.35922E-001	4.03142E-002	4.73464E+001	11	...........	6.72683E-002	-5.09819E-003	5.96796E-001	5.60250E-001	-2.78442E-002	-3.88481E-002	6.94947E-001	-4.40167E-002	2.26487E-003	-1.71652E-004	2.00936E-002	1.88631E-002	-9.37490E-004	-1.30798E-003	2.33983E-002	-1.48200E-003
	121	121	1.10025E+000	3.34011E-002	0.00000E+000	3.67494E-002	3.33266E-001	4.02855E-002	4.73280E+001	11	...........	6.72214E-002	-5.14569E-003	5.96774E-001	5.60240E-001	-2.78576E-002	-3.88628E-002	6.94963E-001	-4.39672E-002	2.24527E-003	-1.71872E-004	1.99329E-002	1.87126E-002	-9.30476E-004	-1.29806E-003	2.32125E-002	-1.46855E-003
	122	122	1.10021E+000	3.36099E-002	0.00000E+000	3.69779E-002	3.35340E-001	4.02649E-002	4.72989E+001	11	...........	6.71893E-002	-5.24417E-003	5.96858E-001	5.60147E-001	-2.78558E-002	-3.88469E-002	6.95030E-001	-4.39431E-002	2.25822E-003	-1.76256E-004	2.00603E-002	1.88265E-002	-9.36231E-004	-1.30564E-003	2.33599E-002	-1.47692E-003
	123	123	1.10028E+000	3.35615E-002	0.00000E+000	3.69268E-002	3.34858E-001	4.02406E-002	4.73144E+001	11	...........	6.71549E-002	-5.20750E-003	5.96958E-001	5.60233E-001	-2.78610E-002	-3.88271E-002	6.94996E-001	-4.39439E-002	2.25381E-003	-1.74771E-004	2.00348E-002	1.88022E-002	-9.35055E-004	-1.30309E-003	2.33251E-002	-1.47482E-003
	124	124	1.10025E+000	3.32049E-002	0.00000E+000	3.65337E-002	3.31313E-001	4.01972E-002	4.73177E+001	11	...........	6.71082E-002	-5.15375E-003	5.96891E-001	5.60246E-001	-2.78560E-002	-3.88346E-002	6.94815E-001	-4.38561E-002	2.22832E-003	-1.71130E-004	1.98197E-002	1.86029E-002	-9.24953E-004	-1.28950E-003	2.30712E-002	-1.45624E-003
	125	125	1.10021E+000	3.33795E-002	0.00000E+000	3.67244E-002	3.33052E-001	4.01849E-002	4.73256E+001	11	...........	6.70680E-002	-5.13667E-003	5.96903E-001	5.60238E-001	-2.78804E-002	-3.88251E-002	6.94862E-001	-4.37687E-002	2.23870E-003	-1.71459E-004	1.99243E-002	1.87005E-002	-9.30634E-004	-1.29596E-003	2.31942E-002	-1.46098E-003
	126	126	1.10027E+000	3.33463E-002	0.00000E+000	3.66900E-002	3.32718E-001	4.01447E-002	4.73268E+001	11	...........	6.69997E-002	-5.06708E-003	5.96982E-001	5.60270E-001	-2.78910E-002	-3.88143E-002	6.94928E-001	-4.38646E-002	2.23419E-003	-1.68968E-004	1.99071E-002	1.86829E-002	-9.30060E-004	-1.29431E-003	2.31733E-002	-1.46272E-003
	127	127	1.10025E+000	3.29764E-002	0.00000E+000	3.62824E-002	3.29041E-001	4.01320E-002	4.73182E+001	11	...........	6.69931E-002	-5.03931E-003	5.96964E-001	5.60179E-001	-2.78912E-002	-3.88071E-002	6.94896E-001	-4.37422E-002	2.20919E-003	-1.66178E-004	1.96857E-002	1.84726E-002	-9.19752E-004	-1.27972E-003	2.29151E-002	-1.44246E-003
	128	128	1.10021E+000	3.31276E-002	0.00000E+000	3.64472E-002	3.30545E-001	4.01135E-002	4.73006E+001	11	...........	6.69293E-002	-5.17528E-003	5.96949E-001	5.60202E-001	-2.78843E-002	-3.87958E-002	6.94931E-001	-4.37762E-002	2.21721E-003	-1.71445E-004	1.97755E-002	1.85582E-002	-9.23740E-004	-1.28521E-003	2.30214E-002	-1.45020E-003
	129	129	1.10027E+000	3.31088E-002	0.00000E+000	3.64286E-002	3.30359E-001	4.00697E-002	4.72953E+001	11	...........	6.68822E-002	-5.24111E-003	5.96780E-001	5.60209E-001	-2.79028E-002	-3.87892E-002	6.95011E-001	-4.39103E-002	2.21439E-003	-1.73527E-004	1.97587E-002	1.85478E-002	-9.23827E-004	-1.28426E-003	2.30110E-002	-1.45382E-003
	130	130	1.10026E+000	3.27429E-002	0.00000E+000	3.60257E-002	3.26720E-001	4.00614E-002	4.73131E+001	11	...........	6.68703E-002	-5.30153E-003	5.96789E-001	5.60259E-001	-2.79082E-002	-3.88047E-002	6.95086E-001	-4.39518E-002	2.18953E-003	-1.73588E-004	1.95406E-002	1.83445E-002	-9.13796E-004	-1.27058E-003	2.27592E-002	-1.43911E-003
	131	131	1.10021E+000	3.28907E-002	0.00000E+000	3.61865E-002	3.28187E-001	4.00681E-002	4.72955E+001	11	...........	6.68607E-002	-5.25028E-003	5.96971E-001	5.60262E-001	-2.79142E-002	-3.87954E-002	6.95061E-001	-4.39975E-002	2.19909E-003	-1.72685E-004	1.96348E-002	1.84274E-002	-9.18116E-004	-1.27601E-003	2.28610E-002	-1.44711E-003
	132	132	1.10027E+000	3.28589E-002	0.00000E+000	3.61536E-002	3.27875E-001	3.99944E-002	4.72983E+001	11	...........	6.67531E-002	-5.22931E-003	5.97076E-001	5.60161E-001	-2.78978E-002	-3.88147E-002	6.94969E-001	-4.39375E-002	2.19344E-003	-1.71829E-004	1.96193E-002	1.84063E-002	-9.16692E-004	-1.27541E-003	2.28360E-002	-1.44374E-003
	133	133	1.10026E+000	3.24957E-002	0.00000E+000	3.57538E-002	3.24267E-001	3.99754E-002	4.73081E+001	11	...........	6.67190E-002	-5.11847E-003	5.97035E-001	5.60105E-001	-2.79185E-002	-3.88047E-002	6.94935E-001	-4.39790E-002	2.16808E-003	-1.66328E-004	1.94011E-002	1.82010E-002	-9.07231E-004	-1.26099E-003	2.25824E-002	-1.42913E-003
	134	134	1.10021E+000	3.26310E-002	0.00000E+000	3.59008E-002	3.25608E-001	3.99442E-002	4.73223E+001	11	...........	6.66910E-002	-4.97069E-003	5.96948E-001	5.60006E-001	-2.78960E-002	-3.87958E-002	6.94800E-001	-4.40151E-002	2.17619E-003	-1.62199E-004	1.94790E-002	1.82735E-002	-9.10273E-004	-1.26595E-003	2.26720E-002	-1.43626E-003
	135	135	1.10026E+000	3.26133E-002	0.00000E+000	3.58832E-002	3.25434E-001	3.99303E-002	4.73162E+001	11	...........	6.66500E-002	-5.11569E-003	5.96927E-001	5.60024E-001	-2.78964E-002	-3.87922E-002	6.94878E-001	-4.39587E-002	2.17368E-003	-1.66840E-004	1.94678E-002	1.82642E-002	-9.09794E-004	-1.26514E-003	2.26623E-002	-1.43364E-003
	136	136	1.10027E+000	3.22578E-002	0.00000E+000	3.54922E-002	3.21900E-001	3.99342E-002	4.72857E+001	11	...........	6.66561E-002	-5.17500E-003	5.97008E-001	5.60145E-001	-2.79086E-002	-3.88100E-002	6.94911E-001	-4.39553E-002	2.15018E-003	-1.66934E-004	1.92582E-002	1.80690E-002	-9.00271E-004	-1.25193E-003	2.24163E-002	-1.41790E-003
	137	137	1.10020E+000	3.23958E-002	0.00000E+000	3.56420E-002	3.23270E-001	3.98907E-002	4.72731E+001	11	...........	6.65706E-002	-5.12042E-003	5.97035E-001	5.59986E-001	-2.79447E-002	-3.88072E-002	6.94874E-001	-4.39728E-002	2.15661E-003	-1.65880E-004	1.93414E-002	1.81412E-002	-9.05292E-004	-1.25719E-003	2.25110E-002	-1.42453E-003
	138	138	1.10026E+000	3.23819E-002	0.00000E+000	3.56286E-002	3.23132E-001	3.98770E-002	4.72327E+001	11	...........	6.65526E-002	-5.13069E-003	5.97177E-001	5.60052E-001	-2.79239E-002	-3.88160E-002	6.94819E-001	-4.40574E-002	2.15510E-003	-1.66142E-004	1.93378E-002	1.81356E-002	-9.04230E-004	-1.25694E-003	2.24996E-002	-1.42666E-003
	139	139	1.10027E+000	3.20383E-002	0.00000E+000	3.52508E-002	3.19718E-001	3.98498E-002	4.72168E+001	11	...........	6.65187E-002	-5.17181E-003	5.97217E-001	5.60018E-001	-2.79044E-002	-3.87999E-002	6.94767E-001	-4.40833E-002	2.13115E-003	-1.65696E-004	1.91338E-002	1.79420E-002	-8.94012E-004	-1.24308E-003	2.22592E-002	-1.41236E-003
	140	140	1.10020E+000	3.21777E-002	0.00000E+000	3.54020E-002	3.21103E-001	3.98315E-002	4.72171E+001	11	...........	6.64743E-002	-5.15611E-003	5.97208E-001	5.59893E-001	-2.79160E-002	-3.87956E-002	6.94750E-001	-4.39887E-002	2.13899E-003	-1.65912E-004	1.92168E-002	1.80161E-002	-8.98272E-004	-1.24835E-003	2.23555E-002	-1.41546E-003
	141	141	1.10026E+000	3.21615E-002	0.00000E+000	3.53860E-002	3.20943E-001	3.98028E-002	4.71994E+001	11	...........	6.64156E-002	-5.10181E-003	5.97219E-001	5.59937E-001	-2.79372E-002	-3.87875E-002	6.94677E-001	-4.39408E-002	2.13603E-003	-1.64082E-004	1.92075E-002	1.80084E-002	-8.98504E-004	-1.24747E-003	2.23419E-002	-1.41320E-003
	142	142	1.10027E+000	3.17977E-002	0.00000E+000	3.49861E-002	3.17329E-001	3.97815E-002	4.71950E+001	11	...........	6.64064E-002	-5.10000E-003	5.97374E-001	5.60037E-001	-2.79333E-002	-3.87733E-002	6.94742E-001	-4.40089E-002	2.11157E-003	-1.62168E-004	1.89951E-002	1.78079E-002	-8.88216E-004	-1.23290E-003	2.20912E-002	-1.39938E-003
	143	143	1.10020E+000	3.19330E-002	0.00000E+000	3.51328E-002	3.18670E-001	3.97483E-002	4.72201E+001	11	...........	6.63600E-002	-5.16208E-003	5.97216E-001	5.60079E-001	-2.79364E-002	-3.87476E-002	6.94762E-001	-4.40601E-002	2.11907E-003	-1.64841E-004	1.90709E-002	1.78850E-002	-8.92093E-004	-1.23733E-003	2.21859E-002	-1.40697E-003
	144	144	1.10026E+000	3.19344E-002	0.00000E+000	3.51361E-002	3.18681E-001	3.97196E-002	4.72394E+001	11	...........	6.63042E-002	-5.27806E-003	5.97232E-001	5.60112E-001	-2.79453E-002	-3.87274E-002	6.94687E-001	-4.40519E-002	2.11738E-003	-1.68552E-004	1.90723E-002	1.78869E-002	-8.92416E-004	-1.23674E-003	2.21844E-002	-1.40677E-003
	145	145	1.10028E+000	3.15827E-002	0.00000E+000	3.47497E-002	3.15185E-001	3.97014E-002	4.72099E+001	11	...........	6.62644E-002	-5.24250E-003	5.97320E-001	5.60102E-001	-2.79410E-002	-3.87224E-002	6.94572E-001	-4.38708E-002	2.09281E-003	-1.65572E-004	1.88650E-002	1.76895E-002	-8.82451E-004	-1.22296E-003	2.19365E-002	-1.38556E-003
	146	146	1.10020E+000	3.17038E-002	0.00000E+000	3.48805E-002	3.16387E-001	3.96744E-002	4.72138E+001	11	...........	6.62212E-002	-5.05208E-003	5.97499E-001	5.60186E-001	-2.79253E-002	-3.87201E-002	6.94762E-001	-4.39271E-002	2.09946E-003	-1.60170E-004	1.89430E-002	1.77600E-002	-8.85337E-004	-1.22757E-003	2.20266E-002	-1.39265E-003
	147	147	1.10025E+000	3.17120E-002	0.00000E+000	3.48913E-002	3.16468E-001	3.96585E-002	4.71954E+001	11	...........	6.61901E-002	-5.21722E-003	5.97606E-001	5.60316E-001	-2.79301E-002	-3.87281E-002	6.94900E-001	-4.39647E-002	2.09902E-003	-1.65449E-004	1.89513E-002	1.77687E-002	-8.85720E-004	-1.22814E-003	2.20367E-002	-1.39421E-003
	148	148	1.10028E+000	3.13657E-002	0.00000E+000	3.45111E-002	3.13025E-001	3.96158E-002	4.72204E+001	11	...........	6.61315E-002	-5.13528E-003	5.97573E-001	5.60172E-001	-2.79431E-002	-3.87128E-002	6.94881E-001	-4.39571E-002	2.07426E-003	-1.61072E-004	1.87433E-002	1.75702E-002	-8.76455E-004	-1.21425E-003	2.17955E-002	-1.37875E-003
	149	149	1.10020E+000	3.14823E-002	0.00000E+000	3.46368E-002	3.14182E-001	3.96027E-002	4.72394E+001	11	...........	6.60896E-002	-5.11458E-003	5.97618E-001	5.60142E-001	-2.79583E-002	-3.87190E-002	6.94876E-001	-4.38769E-002	2.08065E-003	-1.61019E-004	1.88144E-002	1.76346E-002	-8.80192E-004	-1.21896E-003	2.18763E-002	-1.38135E-003
	150	150	1.10025E+000	3.15078E-002	0.00000E+000	3.46665E-002	3.14439E-001	3.95761E-002	4.72425E+001	11	...........	6.60617E-002	-5.04319E-003	5.97686E-001	5.60060E-001	-2.79725E-002	-3.87458E-002	6.94949E-001	-4.38986E-002	2.08146E-003	-1.58900E-004	1.88318E-002	1.76463E-002	-8.81352E-004	-1.22080E-003	2.18963E-002	-1.38315E-003
	151	151	1.10028E+000	3.11556E-002	0.00000E+000	3.42799E-002	3.10935E-001	3.95483E-002	4.72727E+001	11	...........	6.60100E-002	-5.04444E-003	5.97654E-001	5.60197E-001	-2.79656E-002	-3.87457E-002	6.94815E-001	-4.39167E-002	2.05658E-003	-1.57163E-004	1.86203E-002	1.74533E-002	-8.71284E-004	-1.20715E-003	2.16474E-002	-1.36825E-003
	152	152	1.10020E+000	3.12514E-002	0.00000E+000	3.43828E-002	3.11889E-001	3.95351E-002	4.72764E+001	11	...........	6.59819E-002	-4.98722E-003	5.97687E-001	5.60240E-001	-2.79775E-002	-3.87575E-002	6.94889E-001	-4.40496E-002	2.06203E-003	-1.55858E-004	1.86786E-002	1.75083E-002	-8.74337E-004	-1.21123E-003	2.17163E-002	-1.37661E-003
	153	153	1.10025E+000	3.12798E-002	0.00000E+000	3.44156E-002	3.12171E-001	3.95281E-002	4.72704E+001	11	...........	6.59868E-002	-5.02319E-003	5.97837E-001	5.60246E-001	-2.79911E-002	-3.87683E-002	6.94965E-001	-4.40689E-002	2.06405E-003	-1.57124E-004	1.87002E-002	1.75244E-002	-8.75556E-004	-1.21266E-003	2.17384E-002	-1.37847E-003
	154	154	1.10028E+000	3.09226E-002	0.00000E+000	3.40236E-002	3.08620E-001	3.95033E-002	4.72690E+001	11	...........	6.59312E-002	-4.96889E-003	5.97867E-001	5.60216E-001	-2.79993E-002	-3.87833E-002	6.94856E-001	-4.40272E-002	2.03876E-003	-1.53651E-004	1.84876E-002	1.73233E-002	-8.65810E-004	-1.19928E-003	2.14867E-002	-1.36143E-003
	155	155	1.10020E+000	3.10191E-002	0.00000E+000	3.41272E-002	3.09578E-001	3.94589E-002	4.72695E+001	11	...........	6.58694E-002	-5.02361E-003	5.98001E-001	5.60250E-001	-2.79862E-002	-3.87811E-002	6.94737E-001	-4.40479E-002	2.04321E-003	-1.55828E-004	1.85495E-002	1.73785E-002	-8.68109E-004	-1.20296E-003	2.15501E-002	-1.36633E-003
	156	156	1.10025E+000	3.10191E-002	0.00000E+000	3.41287E-002	3.09581E-001	3.94295E-002	4.72748E+001	11	...........	6.58078E-002	-5.06986E-003	5.98050E-001	5.60206E-001	-2.79668E-002	-3.87862E-002	6.94845E-001	-4.39189E-002	2.04130E-003	-1.57263E-004	1.85510E-002	1.73771E-002	-8.67505E-004	-1.20311E-003	2.15535E-002	-1.36232E-003
	157	157	1.10028E+000	3.07011E-002	0.00000E+000	3.37799E-002	3.06420E-001	3.93989E-002	4.72735E+001	11	...........	6.57631E-002	-5.06944E-003	5.98039E-001	5.60368E-001	-2.79804E-002	-3.88122E-002	6.94974E-001	-4.39149E-002	2.01900E-003	-1.55637E-004	1.83605E-002	1.72039E-002	-8.59029E-004	-1.19158E-003	2.13365E-002	-1.34823E-003
	158	158	1.10020E+000	3.08074E-002	0.00000E+000	3.38943E-002	3.07477E-001	3.93863E-002	4.72835E+001	11	...........	6.57400E-002	-5.06000E-003	5.98101E-001	5.60354E-001	-2.79893E-002	-3.88046E-002	6.94955E-001	-4.39701E-002	2.02528E-003	-1.55885E-004	1.84259E-002	1.72630E-002	-8.62277E-004	-1.19547E-003	2.14097E-002	-1.35461E-003
	159	159	1.10025E+000	3.08248E-002	0.00000E+000	3.39149E-002	3.07650E-001	3.93596E-002	4.73103E+001	11	...........	6.56808E-002	-5.00069E-003	5.98074E-001	5.60585E-001	-2.79767E-002	-3.87883E-002	6.94984E-001	-4.40578E-002	2.02460E-003	-1.54145E-004	1.84355E-002	1.72799E-002	-8.62375E-004	-1.19564E-003	2.14227E-002	-1.35807E-003
	160	160	1.10029E+000	3.04854E-002	0.00000E+000	3.35427E-002	3.04277E-001	3.93375E-002	4.73321E+001	11	...........	6.56507E-002	-4.99458E-003	5.98083E-001	5.60745E-001	-2.79743E-002	-3.88050E-002	6.95016E-001	-4.39483E-002	2.00139E-003	-1.52262E-004	1.82328E-002	1.70945E-002	-8.52807E-004	-1.18299E-003	2.11878E-002	-1.33978E-003
	161	161	1.10020E+000	3.05692E-002	0.00000E+000	3.36322E-002	3.05109E-001	3.93222E-002	4.73314E+001	11	...........	6.56125E-002	-4.90778E-003	5.98200E-001	5.60674E-001	-2.79650E-002	-3.88103E-002	6.94965E-001	-4.39883E-002	2.00572E-003	-1.50027E-004	1.82865E-002	1.71394E-002	-8.54867E-004	-1.18640E-003	2.12445E-002	-1.34469E-003
	162	162	1.10025E+000	3.05829E-002	0.00000E+000	3.36487E-002	3.05247E-001	3.92940E-002	4.73208E+001	11	...........	6.55921E-002	-4.94375E-003	5.98249E-001	5.60533E-001	-2.79539E-002	-3.87882E-002	6.94965E-001	-4.38821E-002	2.00600E-003	-1.51194E-004	1.82962E-002	1.71427E-002	-8.54911E-004	-1.18626E-003	2.12540E-002	-1.34204E-003
	163	163	1.10029E+000	3.02386E-002	0.00000E+000	3.32712E-002	3.01823E-001	3.92702E-002	4.73072E+001	11	...........	6.55453E-002	-4.96403E-003	5.98252E-001	5.60702E-001	-2.79499E-002	-3.87915E-002	6.94822E-001	-4.39261E-002	1.98200E-003	-1.50105E-004	1.80903E-002	1.69548E-002	-8.45164E-004	-1.17300E-003	2.10104E-002	-1.32826E-003
	164	164	1.10020E+000	3.02770E-002	0.00000E+000	3.33108E-002	3.02202E-001	3.92614E-002	4.73307E+001	11	...........	6.55231E-002	-4.99167E-003	5.98128E-001	5.60805E-001	-2.79347E-002	-3.88076E-002	6.94828E-001	-4.40942E-002	1.98384E-003	-1.51133E-004	1.81095E-002	1.69795E-002	-8.45781E-004	-1.17498E-003	2.10373E-002	-1.33504E-003
	165	165	1.10024E+000	3.03048E-002	0.00000E+000	3.33427E-002	3.02478E-001	3.92362E-002	4.73510E+001	11	...........	6.54901E-002	-4.99319E-003	5.98292E-001	5.60903E-001	-2.79546E-002	-3.87915E-002	6.94710E-001	-4.40671E-002	1.98467E-003	-1.51318E-004	1.81312E-002	1.69981E-002	-8.47159E-004	-1.17557E-003	2.10531E-002	-1.33545E-003
	166	166	1.10029E+000	2.99557E-002	0.00000E+000	3.29600E-002	2.99008E-001	3.92150E-002	4.73755E+001	11	...........	6.54471E-002	-5.05847E-003	5.98368E-001	5.60713E-001	-2.79462E-002	-3.87582E-002	6.94701E-001	-4.40687E-002	1.96052E-003	-1.51530E-004	1.79246E-002	1.67966E-002	-8.37151E-004	-1.16103E-003	2.08103E-002	-1.32011E-003
	167	167	1.10020E+000	2.99953E-002	0.00000E+000	3.30008E-002	2.99403E-001	3.91780E-002	4.73612E+001	11	...........	6.54004E-002	-5.11653E-003	5.98513E-001	5.60657E-001	-2.79496E-002	-3.87550E-002	6.94756E-001	-4.41768E-002	1.96171E-003	-1.53472E-004	1.79526E-002	1.68171E-002	-8.38356E-004	-1.16247E-003	2.08394E-002	-1.32510E-003
	168	168	1.10024E+000	3.00650E-002	0.00000E+000	3.30788E-002	3.00095E-001	3.91707E-002	4.73312E+001	11	...........	6.53901E-002	-5.22222E-003	5.98391E-001	5.60596E-001	-2.79393E-002	-3.87519E-002	6.94888E-001	-4.41214E-002	1.96596E-003	-1.57006E-004	1.79906E-002	1.68543E-002	-8.39996E-004	-1.16508E-003	2.08918E-002	-1.32651E-003
	169	169	1.10029E+000	2.97515E-002	0.00000E+000	3.27353E-002	2.96980E-001	3.91588E-002	4.73076E+001	11	...........	6.53731E-002	-5.22625E-003	5.98452E-001	5.60307E-001	-2.79354E-002	-3.87318E-002	6.94923E-001	-4.39843E-002	1.94495E-003	-1.55489E-004	1.78049E-002	1.66700E-002	-8.31121E-004	-1.15233E-003	2.06750E-002	-1.30860E-003
	170	170	1.10020E+000	2.97891E-002	0.00000E+000	3.27739E-002	2.97352E-001	3.91345E-002	4.73004E+001	11	...........	6.53226E-002	-5.07472E-003	5.98607E-001	5.60221E-001	-2.79558E-002	-3.87276E-002	6.94924E-001	-4.39153E-002	1.94590E-003	-1.51171E-004	1.78319E-002	1.66885E-002	-8.32779E-004	-1.15366E-003	2.07012E-002	-1.30820E-003
	171	171	1.10024E+000	2.98716E-002	0.00000E+000	3.28660E-002	2.98172E-001	3.91021E-002	4.73351E+001	11	...........	6.52626E-002	-5.06486E-003	5.98660E-001	5.60170E-001	-2.79615E-002	-3.87376E-002	6.94790E-001	-4.38393E-002	1.94950E-003	-1.51295E-004	1.78829E-002	1.67332E-002	-8.35255E-004	-1.15715E-003	2.07545E-002	-1.30955E-003
	172	172	1.10029E+000	2.95534E-002	0.00000E+000	3.25174E-002	2.95012E-001	3.90972E-002	4.73329E+001	11	...........	6.52683E-002	-5.17181E-003	5.98684E-001	5.60197E-001	-2.79686E-002	-3.87611E-002	6.94782E-001	-4.39250E-002	1.92890E-003	-1.52844E-004	1.76931E-002	1.65557E-002	-8.26567E-004	-1.14552E-003	2.05332E-002	-1.29813E-003
	173	173	1.10020E+000	2.95827E-002	0.00000E+000	3.25468E-002	2.95304E-001	3.90673E-002	4.73683E+001	11	...........	6.51979E-002	-5.24208E-003	5.98681E-001	5.60202E-001	-2.79461E-002	-3.87737E-002	6.94826E-001	-4.39054E-002	1.92873E-003	-1.55075E-004	1.77106E-002	1.65723E-002	-8.26721E-004	-1.14703E-003	2.05548E-002	-1.29884E-003
	174	174	1.10024E+000	2.96534E-002	0.00000E+000	3.26258E-002	2.96006E-001	3.90614E-002	4.73810E+001	11	...........	6.51712E-002	-5.14319E-003	5.98528E-001	5.60161E-001	-2.79272E-002	-3.87822E-002	6.94898E-001	-4.38096E-002	1.93255E-003	-1.52513E-004	1.77484E-002	1.66107E-002	-8.28136E-004	-1.15002E-003	2.06061E-002	-1.29910E-003
	175	175	1.10029E+000	2.93368E-002	0.00000E+000	3.22791E-002	2.92859E-001	3.90252E-002	4.73953E+001	11	...........	6.51317E-002	-5.14444E-003	5.98579E-001	5.60096E-001	-2.78983E-002	-3.88104E-002	6.94886E-001	-4.38743E-002	1.91076E-003	-1.50922E-004	1.75604E-002	1.64314E-002	-8.18449E-004	-1.13857E-003	2.03857E-002	-1.28713E-003
	176	176	1.10020E+000	2.93419E-002	0.00000E+000	3.22819E-002	2.92912E-001	3.89922E-002	4.73919E+001	11	...........	6.50906E-002	-5.16583E-003	5.98670E-001	5.60024E-001	-2.78886E-002	-3.88176E-002	6.94929E-001	-4.38731E-002	1.90988E-003	-1.51575E-004	1.75661E-002	1.64321E-002	-8.18303E-004	-1.13898E-003	2.03905E-002	-1.28732E-003
	177	177	1.10024E+000	2.94119E-002	0.00000E+000	3.23601E-002	2.93605E-001	3.89812E-002	4.74221E+001	11	...........	6.50532E-002	-5.10139E-003	5.98547E-001	5.60078E-001	-2.78575E-002	-3.88172E-002	6.94977E-001	-4.39789E-002	1.91334E-003	-1.50042E-004	1.76044E-002	1.64730E-002	-8.19342E-004	-1.14169E-003	2.04406E-002	-1.29350E-003
	178	178	1.10029E+000	2.91388E-002	0.00000E+000	3.20613E-002	2.90896E-001	3.89522E-002	4.74412E+001	11	...........	6.50242E-002	-5.15528E-003	5.98480E-001	5.59979E-001	-2.78525E-002	-3.87969E-002	6.94836E-001	-4.40276E-002	1.89473E-003	-1.50219E-004	1.74390E-002	1.63171E-002	-8.11589E-004	-1.13050E-003	2.02467E-002	-1.28291E-003
	179	179	1.10020E+000	2.91430E-002	0.00000E+000	3.20631E-002	2.90930E-001	3.89458E-002	4.74564E+001	11	...........	6.49878E-002	-5.06236E-003	5.98462E-001	5.59931E-001	-2.78239E-002	-3.87862E-002	6.94784E-001	-4.39329E-002	1.89394E-003	-1.47532E-004	1.74410E-002	1.63180E-002	-8.10871E-004	-1.13035E-003	2.02481E-002	-1.28034E-003
	180	180	1.10024E+000	2.92321E-002	0.00000E+000	3.21623E-002	2.91820E-001	3.89282E-002	4.74787E+001	11	...........	6.49561E-002	-4.86556E-003	5.98590E-001	5.59836E-001	-2.78203E-002	-3.88112E-002	6.94758E-001	-4.38872E-002	1.89881E-003	-1.42231E-004	1.74981E-002	1.63652E-002	-8.13246E-004	-1.13454E-003	2.03093E-002	-1.28292E-003
	181	181	1.10029E+000	2.89494E-002	0.00000E+000	3.18528E-002	2.89009E-001	3.89050E-002	4.74699E+001	11	...........	6.49218E-002	-4.97986E-003	5.98430E-001	5.59770E-001	-2.78306E-002	-3.88215E-002	6.94750E-001	-4.39271E-002	1.87945E-003	-1.44164E-004	1.73242E-002	1.62050E-002	-8.05677E-004	-1.12386E-003	2.01126E-002	-1.27166E-003
	182	182	1.10020E+000	2.89318E-002	0.00000E+000	3.18308E-002	2.88834E-001	3.88944E-002	4.74363E+001	11	...........	6.49000E-002	-5.14472E-003	5.98339E-001	5.59842E-001	-2.78342E-002	-3.88339E-002	6.94610E-001	-4.39062E-002	1.87768E-003	-1.48846E-004	1.73111E-002	1.61972E-002	-8.05293E-004	-1.12354E-003	2.00963E-002	-1.27029E-003
	183	183	1.10024E+000	2.90312E-002	0.00000E+000	3.19412E-002	2.89821E-001	3.88663E-002	4.74309E+001	11	...........	6.48612E-002	-5.09667E-003	5.98312E-001	5.59895E-001	-2.78315E-002	-3.88362E-002	6.94706E-001	-4.40046E-002	1.88300E-003	-1.47962E-004	1.73697E-002	1.62544E-002	-8.07983E-004	-1.12746E-003	2.01682E-002	-1.27751E-003
	184	184	1.10030E+000	2.87887E-002	0.00000E+000	3.16760E-002	2.87414E-001	3.88453E-002	4.74392E+001	11	...........	6.48308E-002	-5.17069E-003	5.98465E-001	5.59866E-001	-2.78392E-002	-3.88214E-002	6.94687E-001	-4.39581E-002	1.86639E-003	-1.48857E-004	1.72290E-002	1.61178E-002	-8.01452E-004	-1.11762E-003	1.99991E-002	-1.26549E-003
	185	185	1.10020E+000	2.87558E-002	0.00000E+000	3.16372E-002	2.87089E-001	3.88135E-002	4.74356E+001	11	...........	6.48032E-002	-5.22875E-003	5.98424E-001	5.59851E-001	-2.78486E-002	-3.88356E-002	6.94548E-001	-4.39447E-002	1.86347E-003	-1.50357E-004	1.72082E-002	1.60990E-002	-8.00810E-004	-1.11675E-003	1.99723E-002	-1.26367E-003
	186	186	1.10024E+000	2.88705E-002	0.00000E+000	3.17644E-002	2.88227E-001	3.87992E-002	4.74460E+001	11	...........	6.47574E-002	-5.22403E-003	5.98288E-001	5.59787E-001	-2.78619E-002	-3.88351E-002	6.94588E-001	-4.40236E-002	1.86958E-003	-1.50820E-004	1.72729E-002	1.61613E-002	-8.04388E-004	-1.12119E-003	2.00531E-002	-1.27098E-003
	187	187	1.10029E+000	2.86803E-002	0.00000E+000	3.15568E-002	2.86338E-001	3.87767E-002	4.74243E+001	11	...........	6.47239E-002	-5.23792E-003	5.98396E-001	5.59807E-001	-2.78711E-002	-3.88553E-002	6.94641E-001	-4.40699E-002	1.85630E-003	-1.50225E-004	1.71622E-002	1.60554E-002	-7.99351E-004	-1.11438E-003	1.99225E-002	-1.26394E-003
	188	187.94	1.10025E+000	2.86993E-002	0.00000E+000	3.15763E-002	2.86523E-001	3.87589E-002	4.74171E+001	11	...........	6.47024E-002	-5.17923E-003	5.98387E-001	5.59821E-001	-2.78688E-002	-3.88580E-002	6.94488E-001	-4.40024E-002	1.85692E-003	-1.48640E-004	1.71733E-002	1.60665E-002	-7.99816E-004	-1.11520E-003	1.99313E-002	-1.26284E-003
STARTTIMEOFFSET	QUANT	565671.3	Start Time Offset (s)
