EXPLAIN
TAG	PWR800_CHARGE
TITLE	LABEL	PWR Charge	Test Identifier
DATE	LABEL	10/13/2022	Date
TIME	LABEL	15:59:57	Time
NOTES	NOTES	1	Notes...
	
PSTAT	PSTAT	REF3000-21114	Potentiostat
CAPACITY	QUANT	5.30000E-002	Capacity (A-hr)
CELLTYPE	SELECTOR	1	Cell Type
WORKINGCONNECTION	SELECTOR	0	Working Connection
MAXCHARGETIME	VARIABLEANDUNITS	7.20000E+003	s	2.00000E+000	hour(s)	Max Charge Time
CHARGEMODE	MULTIPARAM	0	1.00000E-001	Charge Mode	Constant Current	Amp(s)
CHARGECURRENT	QUANT	0.1	Charge Current (A)
VOLTAGEFINISH	TWOPARAM	T	2.50000E-002	7.20000E+003	Voltage Finish	I (A) <	Max Time(s)
SAMPLETIME	QUANT	1.00000E+000	Sample Period (s)
CHARGESTOPAT1	MULTIPARAM	2	1.10000E+000	Stop At 1	|Voltage| > Limit	V
CHARGESTOPAT2	MULTIPARAM	0	0.00000E+000	Stop At 2	None	N/A
AESELECTOR	AESELECTOR	0x1	T	Set Limits	AE Channels
AESBHCSELECTOR	TOGGLE	F	Save Both Half Cells
IRCOMP	TOGGLE	F	IR Measure
EOC	QUANT	0.2079852	Open Circuit (V)
SEQUENCER	TOGGLE	TRUE	Run as Sequence
PSTATMODEL	IQUANT	5	Pstat Model
PSTATSECTION	LABEL	REF3000-21114	Pstat Section
PSTATSERIALNO	LABEL	21114	Pstat Serial Number
CTRLMODE	IQUANT	0	Control Mode
ELECTROMETER	IQUANT	0	RE=0 or CS=1
IESTAB	IQUANT	0	I/E Stability
CASPEED	IQUANT	4	Control Amp Speed
CONVENTION	IQUANT	1	Current Convention
ICHRANGE	IQUANT	2	Ich Range
ICHRANGEMODE	TOGGLE	T	Ich Auto Range
ICHOFFSETENABLE	TOGGLE	F	Ich Offset Enable
ICHOFFSET	QUANT	0	Ich Offset (V)
ICHFILTER	IQUANT	1	Ich Filter
VCHRANGE	IQUANT	3	Vch Range
VCHRANGEMODE	TOGGLE	T	Vch Auto Range
VCHOFFSETENABLE	TOGGLE	F	Vch Offset Enable
VCHOFFSET	QUANT	0	Vch Offset (V)
VCHFILTER	IQUANT	1	Vch Filter
ACHRANGE	IQUANT	2	Ach Range
ACHOFFSETENABLE	TOGGLE	F	Ach Offset Enable
ACHOFFSET	QUANT	0	Ach Offset (V)
ACHFILTER	IQUANT	1	Ach Filter
IERANGELOWERLIMIT	IQUANT	9	I/E Range Lower Limit
IERANGEMODE	TOGGLE	F	I/E AutoRange
IERANGE	IQUANT	9	I/E Range
POSFEEDENABLE	TOGGLE	F	Positive Feedback IR Comp
POSFEEDRESISTANCE	QUANT	0	Positive Feedback Resistance (ohm)
ACHSELECT	IQUANT	1	Ach Select
SENSECABLEID	IQUANT	13	Sense Cable ID
PWRCABLEID	IQUANT	13	Power Cable ID
DCCALDATE	LABEL		DC Calibration Date
ACCALDATE	LABEL		AC Calibration Date
THERMOSELECT	IQUANT	1	Thermo Select
FRAMEWORKVERSION	LABEL	7.8.6	Framework Version
INSTRUMENTVERSION	LABEL	4.50	Instrument Version
COMPLIANCEVOLTAGE	IQUANT	0	Compliance Voltage
CURVE	TABLE	210
	Pt	T	Vf	Im	Vu	Pwr	Sig	Ach	Temp	IERange	Over	Vf1	Vf2	Vf3	Vf4	Vf5	Vf6	Vf7	Vf8	Pwr1	Pwr2	Pwr3	Pwr4	Pwr5	Pwr6	Pwr7	Pwr8
	#	s	V	A	V	W	V	V	deg C	#	bits	V	V	V	V	V	V	V	V	W	W	W	W	W	W	W	W
	0	1	4.78525E-001	9.98492E-002	0.00000E+000	4.77803E-002	9.94000E-001	4.31605E-002	4.28734E+001	11	...........	7.15901E-002	-5.48181E-003	6.01642E-001	5.44546E-001	-2.77321E-002	-3.87489E-002	6.94410E-001	-4.39681E-002	7.14822E-003	-5.47354E-004	6.00735E-002	5.43725E-002	-2.76903E-003	-3.86905E-003	6.93363E-002	-4.39018E-003
	1	2	6.21710E-001	9.98501E-002	0.00000E+000	6.20778E-002	9.94000E-001	4.32547E-002	4.42473E+001	11	...........	7.17714E-002	-5.56736E-003	6.01676E-001	5.44628E-001	-2.77385E-002	-3.87869E-002	6.94435E-001	-4.39531E-002	7.16638E-003	-5.55901E-004	6.00774E-002	5.43812E-002	-2.76969E-003	-3.87288E-003	6.93394E-002	-4.38872E-003
	2	3	8.59479E-001	9.98503E-002	0.00000E+000	8.58192E-002	9.94000E-001	4.39164E-002	4.72503E+001	11	...........	7.28808E-002	-5.58861E-003	6.01918E-001	5.44361E-001	-2.77369E-002	-3.87922E-002	6.94405E-001	-4.40717E-002	7.27717E-003	-5.58024E-004	6.01017E-002	5.43545E-002	-2.76954E-003	-3.87341E-003	6.93365E-002	-4.40057E-003
	3	3.12667	1.07088E+000	9.98507E-002	0.00000E+000	1.06929E-001	9.94000E-001	4.42368E-002	5.30882E+001	11	...........	7.34046E-002	-5.55921E-003	6.02141E-001	5.44280E-001	-2.78224E-002	-3.87456E-002	6.94388E-001	-4.40702E-002	7.32950E-003	-5.55091E-004	6.01243E-002	5.43467E-002	-2.77808E-003	-3.86878E-003	6.93352E-002	-4.40044E-003
	4	4	1.10045E+000	7.52369E-002	0.00000E+000	8.27942E-002	7.49229E-001	4.39883E-002	5.28958E+001	11	...........	7.29625E-002	-5.59208E-003	6.02154E-001	5.44281E-001	-2.77303E-002	-3.87794E-002	6.94484E-001	-4.40596E-002	5.48947E-003	-4.20731E-004	4.53042E-002	4.09501E-002	-2.08634E-003	-2.91765E-003	5.22508E-002	-3.31491E-003
	5	5	1.10017E+000	6.00596E-002	0.00000E+000	6.60757E-002	5.98294E-001	4.39271E-002	5.22388E+001	11	...........	7.28557E-002	-5.42222E-003	6.02163E-001	5.44296E-001	-2.77218E-002	-3.87439E-002	6.94383E-001	-4.39967E-002	4.37568E-003	-3.25656E-004	3.61657E-002	3.26902E-002	-1.66496E-003	-2.32694E-003	4.17043E-002	-2.64242E-003
	6	6	1.09997E+000	5.54592E-002	0.00000E+000	6.10036E-002	5.52547E-001	4.38079E-002	5.16468E+001	11	...........	7.26619E-002	-5.28694E-003	6.02084E-001	5.44181E-001	-2.76818E-002	-3.87500E-002	6.94307E-001	-4.40375E-002	4.02977E-003	-2.93210E-004	3.33911E-002	3.01798E-002	-1.53521E-003	-2.14904E-003	3.85057E-002	-2.44228E-003
	7	7	1.10005E+000	5.28466E-002	0.00000E+000	5.81341E-002	5.26568E-001	4.38058E-002	5.07866E+001	11	...........	7.26437E-002	-5.17806E-003	6.02065E-001	5.44039E-001	-2.76914E-002	-3.87532E-002	6.94378E-001	-4.39651E-002	3.83898E-003	-2.73643E-004	3.18171E-002	2.87506E-002	-1.46340E-003	-2.04797E-003	3.66955E-002	-2.32341E-003
	8	8	1.10011E+000	5.07044E-002	0.00000E+000	5.57803E-002	5.05259E-001	4.38148E-002	5.09755E+001	11	...........	7.26533E-002	-5.11944E-003	6.01968E-001	5.44131E-001	-2.77096E-002	-3.87267E-002	6.94365E-001	-4.38535E-002	3.68384E-003	-2.59578E-004	3.05224E-002	2.75898E-002	-1.40500E-003	-1.96361E-003	3.52073E-002	-2.22356E-003
	9	9	1.09995E+000	4.98984E-002	0.00000E+000	5.48857E-002	4.97247E-001	4.37836E-002	5.09446E+001	11	...........	7.26365E-002	-5.15181E-003	6.01911E-001	5.44158E-001	-2.77179E-002	-3.87078E-002	6.94373E-001	-4.38601E-002	3.62445E-003	-2.57067E-004	3.00344E-002	2.71526E-002	-1.38308E-003	-1.93146E-003	3.46481E-002	-2.18855E-003
	10	10	1.10003E+000	4.92877E-002	0.00000E+000	5.42180E-002	4.91175E-001	4.37369E-002	5.07309E+001	11	...........	7.25693E-002	-5.14153E-003	6.01926E-001	5.44067E-001	-2.77026E-002	-3.87225E-002	6.94394E-001	-4.39000E-002	3.57678E-003	-2.53414E-004	2.96675E-002	2.68159E-002	-1.36540E-003	-1.90854E-003	3.42251E-002	-2.16373E-003
	11	11	1.10010E+000	4.83075E-002	0.00000E+000	5.31431E-002	4.81432E-001	4.37807E-002	5.05974E+001	11	...........	7.26139E-002	-5.23292E-003	6.01983E-001	5.43918E-001	-2.77107E-002	-3.87204E-002	6.94371E-001	-4.39557E-002	3.50779E-003	-2.52789E-004	2.90803E-002	2.62753E-002	-1.33863E-003	-1.87049E-003	3.35433E-002	-2.12339E-003
	12	12	1.09995E+000	4.81139E-002	0.00000E+000	5.29228E-002	4.79505E-001	4.37110E-002	4.85358E+001	11	...........	7.25225E-002	-5.29292E-003	6.02036E-001	5.44031E-001	-2.77147E-002	-3.87024E-002	6.94407E-001	-4.39807E-002	3.48934E-003	-2.54663E-004	2.89663E-002	2.61755E-002	-1.33346E-003	-1.86212E-003	3.34107E-002	-2.11608E-003
	13	13	1.10002E+000	4.79181E-002	0.00000E+000	5.27109E-002	4.77560E-001	4.35512E-002	4.98707E+001	11	...........	7.22232E-002	-5.24222E-003	6.01927E-001	5.44049E-001	-2.76885E-002	-3.86887E-002	6.94531E-001	-4.40754E-002	3.46080E-003	-2.51197E-004	2.88432E-002	2.60698E-002	-1.32678E-003	-1.85389E-003	3.32806E-002	-2.11201E-003
	14	14	1.10010E+000	4.72692E-002	0.00000E+000	5.20008E-002	4.71111E-001	4.37512E-002	5.02467E+001	11	...........	7.25636E-002	-5.33792E-003	6.01965E-001	5.44058E-001	-2.76862E-002	-3.86960E-002	6.94448E-001	-4.41490E-002	3.43002E-003	-2.52319E-004	2.84544E-002	2.57172E-002	-1.30871E-003	-1.82913E-003	3.28260E-002	-2.08689E-003
	15	15	1.09995E+000	4.72585E-002	0.00000E+000	5.19817E-002	4.71007E-001	4.36898E-002	5.01966E+001	11	...........	7.24617E-002	-5.35278E-003	6.02026E-001	5.44080E-001	-2.77186E-002	-3.87024E-002	6.94432E-001	-4.41633E-002	3.42443E-003	-2.52964E-004	2.84508E-002	2.57124E-002	-1.30994E-003	-1.82901E-003	3.28178E-002	-2.08709E-003
	16	16	1.10002E+000	4.72270E-002	0.00000E+000	5.19506E-002	4.70695E-001	4.36147E-002	5.01668E+001	11	...........	7.23644E-002	-5.33458E-003	6.02050E-001	5.44082E-001	-2.77404E-002	-3.87287E-002	6.94361E-001	-4.40840E-002	3.41756E-003	-2.51937E-004	2.84331E-002	2.56954E-002	-1.31010E-003	-1.82904E-003	3.27926E-002	-2.08196E-003
	17	17	1.10010E+000	4.66277E-002	0.00000E+000	5.12952E-002	4.64731E-001	4.35937E-002	5.01590E+001	11	...........	7.23119E-002	-5.36056E-003	6.01959E-001	5.44022E-001	-2.77353E-002	-3.87485E-002	6.94418E-001	-4.40571E-002	3.37174E-003	-2.49950E-004	2.80680E-002	2.53665E-002	-1.29323E-003	-1.80675E-003	3.23791E-002	-2.05428E-003
	18	18	1.09994E+000	4.66569E-002	0.00000E+000	5.13200E-002	4.65018E-001	4.35872E-002	5.01417E+001	11	...........	7.23103E-002	-5.29125E-003	6.02016E-001	5.43933E-001	-2.77362E-002	-3.87407E-002	6.94500E-001	-4.39978E-002	3.37378E-003	-2.46873E-004	2.80882E-002	2.53782E-002	-1.29409E-003	-1.80752E-003	3.24032E-002	-2.05280E-003
	19	19	1.10001E+000	4.66945E-002	0.00000E+000	5.13647E-002	4.65395E-001	4.35229E-002	5.01320E+001	11	...........	7.21935E-002	-5.40472E-003	6.02095E-001	5.43824E-001	-2.77267E-002	-3.87454E-002	6.94514E-001	-4.41706E-002	3.37104E-003	-2.52371E-004	2.81145E-002	2.53936E-002	-1.29468E-003	-1.80920E-003	3.24300E-002	-2.06252E-003
	20	20	1.10011E+000	4.61138E-002	0.00000E+000	5.07301E-002	4.59625E-001	4.33514E-002	5.00927E+001	11	...........	7.21712E-002	-5.39486E-003	6.02307E-001	5.43841E-001	-2.76981E-002	-3.86987E-002	6.94623E-001	-4.41158E-002	3.32809E-003	-2.48778E-004	2.77747E-002	2.50786E-002	-1.27726E-003	-1.78455E-003	3.20317E-002	-2.03435E-003
	21	21	1.09994E+000	4.61095E-002	0.00000E+000	5.07179E-002	4.59579E-001	4.31908E-002	5.01019E+001	11	...........	7.20772E-002	-5.38625E-003	6.02451E-001	5.43907E-001	-2.77100E-002	-3.86647E-002	6.94627E-001	-4.40536E-002	3.32345E-003	-2.48357E-004	2.77787E-002	2.50793E-002	-1.27769E-003	-1.78281E-003	3.20289E-002	-2.03129E-003
	22	22	1.10001E+000	4.62542E-002	0.00000E+000	5.08801E-002	4.61022E-001	4.31686E-002	5.01217E+001	11	...........	7.20471E-002	-5.27792E-003	6.02352E-001	5.43958E-001	-2.77206E-002	-3.86651E-002	6.94488E-001	-4.40551E-002	3.33248E-003	-2.44126E-004	2.78613E-002	2.51603E-002	-1.28219E-003	-1.78843E-003	3.21230E-002	-2.03774E-003
	23	23	1.10011E+000	4.56832E-002	0.00000E+000	5.02565E-002	4.55345E-001	4.31293E-002	5.00845E+001	11	...........	7.19953E-002	-5.17403E-003	6.02326E-001	5.43993E-001	-2.77249E-002	-3.86882E-002	6.94458E-001	-4.40860E-002	3.28898E-003	-2.36366E-004	2.75162E-002	2.48514E-002	-1.26656E-003	-1.76740E-003	3.17251E-002	-2.01399E-003
	24	24	1.09994E+000	4.57155E-002	0.00000E+000	5.02844E-002	4.55669E-001	4.30929E-002	5.00873E+001	11	...........	7.19136E-002	-5.17236E-003	6.02403E-001	5.44074E-001	-2.77372E-002	-3.86771E-002	6.94520E-001	-4.40303E-002	3.28757E-003	-2.36457E-004	2.75391E-002	2.48726E-002	-1.26802E-003	-1.76814E-003	3.17503E-002	-2.01287E-003
	25	25	1.10001E+000	4.57658E-002	0.00000E+000	5.03428E-002	4.56163E-001	4.30497E-002	4.93393E+001	11	...........	7.18453E-002	-5.38472E-003	6.02410E-001	5.44208E-001	-2.77583E-002	-3.86814E-002	6.94503E-001	-4.40276E-002	3.28806E-003	-2.46436E-004	2.75698E-002	2.49061E-002	-1.27038E-003	-1.77028E-003	3.17845E-002	-2.01496E-003
	26	26	1.10011E+000	4.52260E-002	0.00000E+000	4.97536E-002	4.50797E-001	4.29201E-002	4.85226E+001	11	...........	7.16276E-002	-5.33125E-003	6.02369E-001	5.44242E-001	-2.77797E-002	-3.86871E-002	6.94725E-001	-4.40847E-002	3.23943E-003	-2.41111E-004	2.72428E-002	2.46139E-002	-1.25637E-003	-1.74966E-003	3.14196E-002	-1.99378E-003
	27	27	1.09994E+000	4.52681E-002	0.00000E+000	4.97923E-002	4.51217E-001	4.29764E-002	4.96699E+001	11	...........	7.17011E-002	-5.17153E-003	6.02246E-001	5.44230E-001	-2.77740E-002	-3.86778E-002	6.94612E-001	-4.40940E-002	3.24577E-003	-2.34105E-004	2.72625E-002	2.46363E-002	-1.25728E-003	-1.75087E-003	3.14438E-002	-1.99605E-003
	28	28	1.10001E+000	4.53843E-002	0.00000E+000	4.99231E-002	4.52374E-001	4.29617E-002	4.99289E+001	11	...........	7.16842E-002	-5.19153E-003	6.02127E-001	5.44343E-001	-2.77806E-002	-3.86796E-002	6.94653E-001	-4.41185E-002	3.25334E-003	-2.35614E-004	2.73271E-002	2.47046E-002	-1.26080E-003	-1.75545E-003	3.15263E-002	-2.00229E-003
	29	29	1.10011E+000	4.49497E-002	0.00000E+000	4.94496E-002	4.48046E-001	4.29042E-002	4.99061E+001	11	...........	7.15739E-002	-5.27583E-003	6.02019E-001	5.44423E-001	-2.77969E-002	-3.86742E-002	6.94629E-001	-4.40614E-002	3.21722E-003	-2.37147E-004	2.70606E-002	2.44716E-002	-1.24946E-003	-1.73839E-003	3.12234E-002	-1.98055E-003
	30	30	1.09994E+000	4.49175E-002	0.00000E+000	4.94067E-002	4.47725E-001	4.28887E-002	4.99159E+001	11	...........	7.15453E-002	-5.26139E-003	6.01941E-001	5.44662E-001	-2.77935E-002	-3.86779E-002	6.94594E-001	-4.40378E-002	3.21363E-003	-2.36328E-004	2.70377E-002	2.44648E-002	-1.24841E-003	-1.73731E-003	3.11994E-002	-1.97807E-003
	31	31	1.10001E+000	4.49869E-002	0.00000E+000	4.94859E-002	4.48415E-001	4.28349E-002	4.98890E+001	11	...........	7.14404E-002	-5.43736E-003	6.02053E-001	5.44672E-001	-2.77954E-002	-3.86932E-002	6.94487E-001	-4.39336E-002	3.21389E-003	-2.44610E-004	2.70845E-002	2.45031E-002	-1.25043E-003	-1.74069E-003	3.12429E-002	-1.97644E-003
	32	32	1.10011E+000	4.45306E-002	0.00000E+000	4.89886E-002	4.43877E-001	4.27982E-002	4.98623E+001	11	...........	7.13989E-002	-5.41500E-003	6.02114E-001	5.44597E-001	-2.77936E-002	-3.87058E-002	6.94472E-001	-4.38475E-002	3.17944E-003	-2.41133E-004	2.68125E-002	2.42512E-002	-1.23767E-003	-1.72359E-003	3.09253E-002	-1.95256E-003
	33	33	1.09994E+000	4.44516E-002	0.00000E+000	4.88943E-002	4.43087E-001	4.27774E-002	4.98621E+001	11	...........	7.13671E-002	-5.39500E-003	6.02074E-001	5.44673E-001	-2.77596E-002	-3.86929E-002	6.94580E-001	-4.38121E-002	3.17238E-003	-2.39816E-004	2.67631E-002	2.42116E-002	-1.23396E-003	-1.71996E-003	3.08752E-002	-1.94752E-003
	34	34	1.10000E+000	4.45898E-002	0.00000E+000	4.90489E-002	4.44463E-001	4.27215E-002	4.98709E+001	11	...........	7.12864E-002	-5.26347E-003	6.01985E-001	5.44641E-001	-2.77860E-002	-3.86862E-002	6.94593E-001	-4.38612E-002	3.17865E-003	-2.34697E-004	2.68424E-002	2.42854E-002	-1.23897E-003	-1.72501E-003	3.09718E-002	-1.95576E-003
	35	35	1.10011E+000	4.41754E-002	0.00000E+000	4.85979E-002	4.40349E-001	4.27253E-002	4.99156E+001	11	...........	7.12960E-002	-5.27208E-003	6.02001E-001	5.44729E-001	-2.78061E-002	-3.86794E-002	6.94531E-001	-4.39190E-002	3.14953E-003	-2.32896E-004	2.65936E-002	2.40636E-002	-1.22835E-003	-1.70868E-003	3.06812E-002	-1.94014E-003
	36	36	1.09995E+000	4.41113E-002	0.00000E+000	4.85200E-002	4.39707E-001	4.26834E-002	4.98473E+001	11	...........	7.12108E-002	-5.30861E-003	6.01869E-001	5.44782E-001	-2.78104E-002	-3.86790E-002	6.94414E-001	-4.38503E-002	3.14120E-003	-2.34170E-004	2.65492E-002	2.40310E-002	-1.22675E-003	-1.70618E-003	3.06315E-002	-1.93429E-003
	37	37	1.10000E+000	4.42687E-002	0.00000E+000	4.86956E-002	4.41275E-001	4.26363E-002	4.98399E+001	11	...........	7.11418E-002	-5.27319E-003	6.01835E-001	5.44735E-001	-2.78160E-002	-3.86999E-002	6.94486E-001	-4.39571E-002	3.14935E-003	-2.33437E-004	2.66425E-002	2.41147E-002	-1.23138E-003	-1.71319E-003	3.07440E-002	-1.94592E-003
	38	38	1.10011E+000	4.38082E-002	0.00000E+000	4.81940E-002	4.36697E-001	4.26291E-002	4.98661E+001	11	...........	7.11239E-002	-5.41625E-003	6.01953E-001	5.44749E-001	-2.78139E-002	-3.86861E-002	6.94456E-001	-4.39111E-002	3.11581E-003	-2.37276E-004	2.63705E-002	2.38645E-002	-1.21848E-003	-1.69477E-003	3.04229E-002	-1.92367E-003
	39	39	1.09995E+000	4.37370E-002	0.00000E+000	4.81083E-002	4.35991E-001	4.25522E-002	4.98572E+001	11	...........	7.10080E-002	-5.40208E-003	6.02086E-001	5.44686E-001	-2.77962E-002	-3.86840E-002	6.94469E-001	-4.40064E-002	3.10568E-003	-2.36271E-004	2.63334E-002	2.38229E-002	-1.21572E-003	-1.69192E-003	3.03740E-002	-1.92471E-003
	40	40	1.10000E+000	4.38833E-002	0.00000E+000	4.82717E-002	4.37444E-001	4.25783E-002	4.98498E+001	11	...........	7.10489E-002	-5.18556E-003	6.01980E-001	5.44671E-001	-2.77817E-002	-3.87012E-002	6.94457E-001	-4.39951E-002	3.11786E-003	-2.27559E-004	2.64169E-002	2.39020E-002	-1.21915E-003	-1.69834E-003	3.04751E-002	-1.93065E-003
	41	41	1.10011E+000	4.34955E-002	0.00000E+000	4.78499E-002	4.33583E-001	4.25298E-002	4.98960E+001	11	...........	7.09624E-002	-5.25236E-003	6.02044E-001	5.44639E-001	-2.77499E-002	-3.86968E-002	6.94463E-001	-4.40406E-002	3.08654E-003	-2.28454E-004	2.61862E-002	2.36893E-002	-1.20699E-003	-1.68314E-003	3.02060E-002	-1.91556E-003
	42	42	1.09995E+000	4.33771E-002	0.00000E+000	4.77125E-002	4.32407E-001	4.24838E-002	4.98697E+001	11	...........	7.08781E-002	-5.20972E-003	6.02079E-001	5.44605E-001	-2.77432E-002	-3.86940E-002	6.94541E-001	-4.39606E-002	3.07448E-003	-2.25983E-004	2.61164E-002	2.36234E-002	-1.20342E-003	-1.67843E-003	3.01272E-002	-1.90688E-003
	43	43	1.10000E+000	4.35270E-002	0.00000E+000	4.78796E-002	4.33897E-001	4.24927E-002	4.98788E+001	11	...........	7.08983E-002	-5.22056E-003	6.02094E-001	5.44506E-001	-2.77369E-002	-3.86907E-002	6.94497E-001	-4.39743E-002	3.08599E-003	-2.27235E-004	2.62073E-002	2.37007E-002	-1.20731E-003	-1.68409E-003	3.02294E-002	-1.91407E-003
	44	44	1.10011E+000	4.31422E-002	0.00000E+000	4.74613E-002	4.30071E-001	4.24386E-002	4.98485E+001	11	...........	7.08464E-002	-5.36583E-003	6.02046E-001	5.44514E-001	-2.77614E-002	-3.87062E-002	6.94645E-001	-4.40703E-002	3.05647E-003	-2.31494E-004	2.59736E-002	2.34915E-002	-1.19769E-003	-1.66987E-003	2.99685E-002	-1.90129E-003
	45	45	1.09995E+000	4.29415E-002	0.00000E+000	4.72336E-002	4.28073E-001	4.22834E-002	4.71762E+001	11	...........	7.05742E-002	-5.41056E-003	6.02038E-001	5.44494E-001	-2.77968E-002	-3.87136E-002	6.94535E-001	-4.38903E-002	3.03056E-003	-2.32337E-004	2.58524E-002	2.33814E-002	-1.19364E-003	-1.66242E-003	2.98244E-002	-1.88471E-003
	46	46	1.10000E+000	4.31912E-002	0.00000E+000	4.75101E-002	4.30555E-001	4.23402E-002	4.90791E+001	11	...........	7.06722E-002	-5.22431E-003	6.01893E-001	5.44468E-001	-2.78235E-002	-3.87337E-002	6.94548E-001	-4.38060E-002	3.05242E-003	-2.25644E-004	2.59965E-002	2.35162E-002	-1.20173E-003	-1.67296E-003	2.99983E-002	-1.89203E-003
	47	47	1.10011E+000	4.28226E-002	0.00000E+000	4.71096E-002	4.26888E-001	4.23337E-002	4.96399E+001	11	...........	7.06476E-002	-5.31222E-003	6.01899E-001	5.44538E-001	-2.78332E-002	-3.87394E-002	6.94571E-001	-4.39472E-002	3.02532E-003	-2.27483E-004	2.57749E-002	2.33185E-002	-1.19189E-003	-1.65892E-003	2.97434E-002	-1.88194E-003
	48	48	1.09995E+000	4.26599E-002	0.00000E+000	4.69239E-002	4.25280E-001	4.23748E-002	4.96750E+001	11	...........	7.07261E-002	-5.22694E-003	6.01993E-001	5.44412E-001	-2.78212E-002	-3.87374E-002	6.94649E-001	-4.40169E-002	3.01717E-003	-2.22981E-004	2.56810E-002	2.32246E-002	-1.18685E-003	-1.65253E-003	2.96337E-002	-1.87776E-003
	49	49	1.10000E+000	4.28260E-002	0.00000E+000	4.71085E-002	4.26931E-001	4.23472E-002	4.96416E+001	11	...........	7.06526E-002	-5.25472E-003	6.01891E-001	5.44156E-001	-2.78361E-002	-3.87268E-002	6.94651E-001	-4.39587E-002	3.02577E-003	-2.25039E-004	2.57766E-002	2.33040E-002	-1.19211E-003	-1.65851E-003	2.97491E-002	-1.88258E-003
	50	50	1.10011E+000	4.24194E-002	0.00000E+000	4.66661E-002	4.22885E-001	4.22585E-002	4.73084E+001	11	...........	7.05349E-002	-5.23819E-003	6.01923E-001	5.43998E-001	-2.77953E-002	-3.87447E-002	6.94696E-001	-4.39057E-002	2.99205E-003	-2.22201E-004	2.55332E-002	2.30761E-002	-1.17906E-003	-1.64353E-003	2.94686E-002	-1.86246E-003
	51	51	1.09995E+000	4.22959E-002	0.00000E+000	4.65235E-002	4.21657E-001	4.21211E-002	4.89441E+001	11	...........	7.02750E-002	-5.28889E-003	6.01984E-001	5.43992E-001	-2.78001E-002	-3.87485E-002	6.94646E-001	-4.39094E-002	2.97234E-003	-2.23698E-004	2.54614E-002	2.30086E-002	-1.17583E-003	-1.63890E-003	2.93807E-002	-1.85719E-003
	52	52	1.09999E+000	4.25357E-002	0.00000E+000	4.67891E-002	4.24037E-001	4.22692E-002	4.95230E+001	11	...........	7.05462E-002	-5.27319E-003	6.02142E-001	5.43811E-001	-2.78310E-002	-3.87558E-002	6.94508E-001	-4.40308E-002	3.00074E-003	-2.24299E-004	2.56126E-002	2.31314E-002	-1.18381E-003	-1.64851E-003	2.95414E-002	-1.87288E-003
	53	53	1.10011E+000	4.21802E-002	0.00000E+000	4.64027E-002	4.20504E-001	4.22617E-002	4.95680E+001	11	...........	7.05029E-002	-5.25389E-003	6.02240E-001	5.43830E-001	-2.78360E-002	-3.87522E-002	6.94436E-001	-4.39293E-002	2.97383E-003	-2.21610E-004	2.54026E-002	2.29389E-002	-1.17413E-003	-1.63458E-003	2.92914E-002	-1.85295E-003
	54	54	1.09996E+000	4.19845E-002	0.00000E+000	4.61812E-002	4.18557E-001	4.21653E-002	4.95493E+001	11	...........	7.03497E-002	-5.31847E-003	6.02286E-001	5.44066E-001	-2.78471E-002	-3.87793E-002	6.94419E-001	-4.39726E-002	2.95360E-003	-2.23294E-004	2.52867E-002	2.28424E-002	-1.16915E-003	-1.62813E-003	2.91548E-002	-1.84617E-003
	55	55	1.10000E+000	4.21565E-002	0.00000E+000	4.63720E-002	4.20267E-001	4.21373E-002	4.95721E+001	11	...........	7.03228E-002	-5.23236E-003	6.02290E-001	5.44216E-001	-2.77956E-002	-3.87635E-002	6.94489E-001	-4.38638E-002	2.96456E-003	-2.20578E-004	2.53905E-002	2.29422E-002	-1.17176E-003	-1.63413E-003	2.92772E-002	-1.84914E-003
	56	56	1.10011E+000	4.18160E-002	0.00000E+000	4.60021E-002	4.16886E-001	4.21665E-002	4.95091E+001	11	...........	7.03746E-002	-5.28583E-003	6.02377E-001	5.44214E-001	-2.77862E-002	-3.87671E-002	6.94536E-001	-4.38599E-002	2.94279E-003	-2.21033E-004	2.51890E-002	2.27569E-002	-1.16191E-003	-1.62109E-003	2.90428E-002	-1.83405E-003
	57	57	1.09996E+000	4.16333E-002	0.00000E+000	4.57949E-002	4.15068E-001	4.20596E-002	4.95280E+001	11	...........	7.01747E-002	-5.31111E-003	6.02437E-001	5.44284E-001	-2.77762E-002	-3.87590E-002	6.94555E-001	-4.39590E-002	2.92160E-003	-2.21119E-004	2.50814E-002	2.26603E-002	-1.15642E-003	-1.61366E-003	2.89166E-002	-1.83016E-003
	58	58	1.09999E+000	4.18504E-002	0.00000E+000	4.60352E-002	4.17225E-001	4.20604E-002	4.96198E+001	11	...........	7.01839E-002	-5.30972E-003	6.02331E-001	5.44432E-001	-2.77575E-002	-3.87639E-002	6.94475E-001	-4.40157E-002	2.93722E-003	-2.22214E-004	2.52078E-002	2.27847E-002	-1.16166E-003	-1.62228E-003	2.90641E-002	-1.84207E-003
	59	59	1.10010E+000	4.15179E-002	0.00000E+000	4.56740E-002	4.13920E-001	4.20690E-002	4.95957E+001	11	...........	7.01957E-002	-5.24722E-003	6.02113E-001	5.44527E-001	-2.77353E-002	-3.87621E-002	6.94493E-001	-4.39296E-002	2.91438E-003	-2.17854E-004	2.49984E-002	2.26076E-002	-1.15151E-003	-1.60932E-003	2.88339E-002	-1.82386E-003
	60	60	1.09996E+000	4.13345E-002	0.00000E+000	4.54665E-002	4.12093E-001	4.20057E-002	4.96665E+001	11	...........	7.00933E-002	-5.27667E-003	6.02245E-001	5.44599E-001	-2.77578E-002	-3.87494E-002	6.94363E-001	-4.38643E-002	2.89727E-003	-2.18108E-004	2.48935E-002	2.25107E-002	-1.14735E-003	-1.60169E-003	2.87012E-002	-1.81311E-003
	61	61	1.09999E+000	4.15379E-002	0.00000E+000	4.56915E-002	4.14116E-001	4.19746E-002	4.96482E+001	11	...........	7.00312E-002	-5.21681E-003	6.02166E-001	5.44620E-001	-2.77483E-002	-3.87536E-002	6.94338E-001	-4.38450E-002	2.90895E-003	-2.16695E-004	2.50127E-002	2.26224E-002	-1.15261E-003	-1.60974E-003	2.88414E-002	-1.82123E-003
	62	62	1.10010E+000	4.12606E-002	0.00000E+000	4.53908E-002	4.11355E-001	4.19596E-002	4.96243E+001	11	...........	7.00042E-002	-5.21819E-003	6.02153E-001	5.44663E-001	-2.77390E-002	-3.87540E-002	6.94497E-001	-4.39328E-002	2.88842E-003	-2.15306E-004	2.48452E-002	2.24731E-002	-1.14453E-003	-1.59902E-003	2.86554E-002	-1.81269E-003
	63	63	1.09997E+000	4.10214E-002	0.00000E+000	4.51222E-002	4.08975E-001	4.19410E-002	4.96697E+001	11	...........	6.99869E-002	-5.21056E-003	6.02286E-001	5.44621E-001	-2.77501E-002	-3.87671E-002	6.94525E-001	-4.41064E-002	2.87096E-003	-2.13744E-004	2.47066E-002	2.23411E-002	-1.13835E-003	-1.59028E-003	2.84904E-002	-1.80931E-003
	64	64	1.09999E+000	4.12434E-002	0.00000E+000	4.53674E-002	4.11183E-001	4.18875E-002	4.96824E+001	11	...........	6.98897E-002	-5.14014E-003	6.02259E-001	5.44828E-001	-2.77261E-002	-3.87343E-002	6.94519E-001	-4.41072E-002	2.88249E-003	-2.11997E-004	2.48392E-002	2.24706E-002	-1.14352E-003	-1.59753E-003	2.86443E-002	-1.81913E-003
	65	65	1.10010E+000	4.09935E-002	0.00000E+000	4.50969E-002	4.08699E-001	4.18720E-002	4.96927E+001	11	...........	6.98811E-002	-5.11125E-003	6.02364E-001	5.44818E-001	-2.77032E-002	-3.87229E-002	6.94453E-001	-4.40354E-002	2.86467E-003	-2.09528E-004	2.46930E-002	2.23340E-002	-1.13565E-003	-1.58739E-003	2.84681E-002	-1.80517E-003
	66	66	1.09997E+000	4.06872E-002	0.00000E+000	4.47548E-002	4.05652E-001	4.18370E-002	4.96614E+001	11	...........	6.98171E-002	-5.15014E-003	6.02355E-001	5.44596E-001	-2.77157E-002	-3.87132E-002	6.94442E-001	-4.38750E-002	2.84066E-003	-2.09545E-004	2.45082E-002	2.21581E-002	-1.12768E-003	-1.57513E-003	2.82549E-002	-1.78515E-003
	67	67	1.09999E+000	4.09248E-002	0.00000E+000	4.50170E-002	4.08020E-001	4.17941E-002	4.90359E+001	11	...........	6.97428E-002	-5.37333E-003	6.02399E-001	5.44544E-001	-2.77001E-002	-3.87083E-002	6.94499E-001	-4.39454E-002	2.85421E-003	-2.19903E-004	2.46531E-002	2.22854E-002	-1.13362E-003	-1.58413E-003	2.84223E-002	-1.79846E-003
	68	68	1.10010E+000	4.06126E-002	0.00000E+000	4.46778E-002	4.04915E-001	4.16302E-002	4.82832E+001	11	...........	6.94804E-002	-5.28514E-003	6.02504E-001	5.44747E-001	-2.76707E-002	-3.87360E-002	6.94624E-001	-4.40231E-002	2.82178E-003	-2.14643E-004	2.44693E-002	2.21236E-002	-1.12378E-003	-1.57317E-003	2.82105E-002	-1.78789E-003
	69	69	1.09997E+000	4.04492E-002	0.00000E+000	4.44931E-002	4.03289E-001	4.17785E-002	4.92655E+001	11	...........	6.97297E-002	-5.26583E-003	6.02507E-001	5.44722E-001	-2.76917E-002	-3.87394E-002	6.94552E-001	-4.41756E-002	2.82051E-003	-2.12999E-004	2.43709E-002	2.20336E-002	-1.12011E-003	-1.56698E-003	2.80941E-002	-1.78687E-003
	70	70	1.09999E+000	4.06172E-002	0.00000E+000	4.46785E-002	4.04961E-001	4.17517E-002	4.96308E+001	11	...........	6.96829E-002	-5.22917E-003	6.02438E-001	5.44634E-001	-2.77122E-002	-3.87164E-002	6.94605E-001	-4.41236E-002	2.83032E-003	-2.12394E-004	2.44693E-002	2.21215E-002	-1.12559E-003	-1.57255E-003	2.82129E-002	-1.79218E-003
	71	71	1.10009E+000	4.03688E-002	0.00000E+000	4.44095E-002	4.02489E-001	4.16604E-002	4.96499E+001	11	...........	6.95224E-002	-5.32458E-003	6.02317E-001	5.44678E-001	-2.77082E-002	-3.86924E-002	6.94528E-001	-4.42325E-002	2.80653E-003	-2.14947E-004	2.43148E-002	2.19880E-002	-1.11855E-003	-1.56196E-003	2.80372E-002	-1.78561E-003
	72	72	1.09998E+000	4.00738E-002	0.00000E+000	4.40803E-002	3.99563E-001	4.16302E-002	4.95872E+001	11	...........	6.94743E-002	-5.34708E-003	6.02340E-001	5.44693E-001	-2.77137E-002	-3.87111E-002	6.94495E-001	-4.42012E-002	2.78410E-003	-2.14278E-004	2.41381E-002	2.18279E-002	-1.11060E-003	-1.55130E-003	2.78311E-002	-1.77131E-003
	73	73	1.09999E+000	4.02975E-002	0.00000E+000	4.43269E-002	4.01785E-001	4.16337E-002	4.96496E+001	11	...........	6.95114E-002	-5.38097E-003	6.02452E-001	5.44742E-001	-2.77274E-002	-3.87310E-002	6.94561E-001	-4.39608E-002	2.80114E-003	-2.16840E-004	2.42773E-002	2.19518E-002	-1.11734E-003	-1.56076E-003	2.79891E-002	-1.77151E-003
	74	74	1.10009E+000	4.00877E-002	0.00000E+000	4.41001E-002	3.99695E-001	4.15809E-002	4.96398E+001	11	...........	6.94043E-002	-5.32736E-003	6.02427E-001	5.44747E-001	-2.77175E-002	-3.87154E-002	6.94484E-001	-4.39558E-002	2.78226E-003	-2.13561E-004	2.41499E-002	2.18376E-002	-1.11113E-003	-1.55201E-003	2.78402E-002	-1.76209E-003
	75	75	1.09998E+000	3.97930E-002	0.00000E+000	4.37715E-002	3.96769E-001	4.15992E-002	4.92218E+001	11	...........	6.94287E-002	-5.33208E-003	6.02455E-001	5.44922E-001	-2.76933E-002	-3.87085E-002	6.94474E-001	-4.39712E-002	2.76278E-003	-2.12179E-004	2.39735E-002	2.16841E-002	-1.10200E-003	-1.54032E-003	2.76352E-002	-1.74975E-003
	76	76	1.09999E+000	3.99609E-002	0.00000E+000	4.39565E-002	3.98437E-001	4.14467E-002	4.79047E+001	11	...........	6.91592E-002	-5.37625E-003	6.02476E-001	5.44969E-001	-2.76960E-002	-3.87131E-002	6.94505E-001	-4.39432E-002	2.76366E-003	-2.14840E-004	2.40755E-002	2.17774E-002	-1.10676E-003	-1.54701E-003	2.77530E-002	-1.75601E-003
	77	77	1.10009E+000	3.97919E-002	0.00000E+000	4.37746E-002	3.96758E-001	4.15017E-002	4.91624E+001	11	...........	6.92483E-002	-5.28611E-003	6.02432E-001	5.45014E-001	-2.76844E-002	-3.87037E-002	6.94518E-001	-4.38676E-002	2.75552E-003	-2.10345E-004	2.39719E-002	2.16872E-002	-1.10162E-003	-1.54010E-003	2.76362E-002	-1.74558E-003
	78	78	1.09998E+000	3.95158E-002	0.00000E+000	4.34667E-002	3.94011E-001	4.15538E-002	4.87629E+001	11	...........	6.93562E-002	-5.41236E-003	6.02371E-001	5.44884E-001	-2.77022E-002	-3.87156E-002	6.94427E-001	-4.39721E-002	2.74067E-003	-2.13874E-004	2.38032E-002	2.15315E-002	-1.09468E-003	-1.52988E-003	2.74408E-002	-1.73759E-003
	79	79	1.09999E+000	3.96807E-002	0.00000E+000	4.36483E-002	3.95658E-001	4.15017E-002	4.91162E+001	11	...........	6.92671E-002	-5.48611E-003	6.02283E-001	5.44776E-001	-2.77101E-002	-3.87142E-002	6.94504E-001	-4.39306E-002	2.74857E-003	-2.17693E-004	2.38990E-002	2.16171E-002	-1.09956E-003	-1.53621E-003	2.75584E-002	-1.74320E-003
	80	80	1.10009E+000	3.95052E-002	0.00000E+000	4.34591E-002	3.93911E-001	4.14529E-002	4.90897E+001	11	...........	6.91968E-002	-5.36431E-003	6.02104E-001	5.44809E-001	-2.77335E-002	-3.87172E-002	6.94633E-001	-4.39853E-002	2.73363E-003	-2.11918E-004	2.37862E-002	2.15228E-002	-1.09562E-003	-1.52953E-003	2.74416E-002	-1.73765E-003
	81	81	1.09999E+000	3.91706E-002	0.00000E+000	4.30871E-002	3.90583E-001	4.14492E-002	4.91106E+001	11	...........	6.91722E-002	-5.26111E-003	6.01832E-001	5.44922E-001	-2.77403E-002	-3.87268E-002	6.94615E-001	-4.40267E-002	2.70952E-003	-2.06081E-004	2.35741E-002	2.13449E-002	-1.08660E-003	-1.51695E-003	2.72085E-002	-1.72455E-003
	82	82	1.09999E+000	3.94260E-002	0.00000E+000	4.33680E-002	3.93120E-001	4.14722E-002	4.91151E+001	11	...........	6.91965E-002	-5.27167E-003	6.02052E-001	5.44981E-001	-2.77157E-002	-3.87178E-002	6.94735E-001	-4.41807E-002	2.72814E-003	-2.07841E-004	2.37365E-002	2.14864E-002	-1.09272E-003	-1.52649E-003	2.73906E-002	-1.74187E-003
	83	83	1.10008E+000	3.92326E-002	0.00000E+000	4.31592E-002	3.91197E-001	4.14272E-002	4.91587E+001	11	...........	6.91094E-002	-5.19111E-003	6.02142E-001	5.44998E-001	-2.77156E-002	-3.87154E-002	6.94748E-001	-4.41169E-002	2.71134E-003	-2.03661E-004	2.36236E-002	2.13817E-002	-1.08735E-003	-1.51891E-003	2.72568E-002	-1.73082E-003
	84	84	1.09999E+000	3.89159E-002	0.00000E+000	4.28071E-002	3.88047E-001	4.13899E-002	4.91260E+001	11	...........	6.90690E-002	-5.19194E-003	6.02031E-001	5.44910E-001	-2.76667E-002	-3.87074E-002	6.94567E-001	-4.42249E-002	2.68788E-003	-2.02049E-004	2.34286E-002	2.12056E-002	-1.07667E-003	-1.50633E-003	2.70297E-002	-1.72105E-003
	85	85	1.09999E+000	3.91136E-002	0.00000E+000	4.30244E-002	3.90015E-001	4.13748E-002	4.91213E+001	11	...........	6.90253E-002	-5.05417E-003	6.01811E-001	5.44783E-001	-2.76496E-002	-3.87289E-002	6.94654E-001	-4.40439E-002	2.69983E-003	-1.97687E-004	2.35390E-002	2.13084E-002	-1.08148E-003	-1.51483E-003	2.71704E-002	-1.72272E-003
	86	86	1.10008E+000	3.89405E-002	0.00000E+000	4.28377E-002	3.88289E-001	4.13261E-002	4.92281E+001	11	...........	6.89505E-002	-5.09583E-003	6.01627E-001	5.44802E-001	-2.76556E-002	-3.87610E-002	6.94652E-001	-4.40542E-002	2.68497E-003	-1.98434E-004	2.34277E-002	2.12149E-002	-1.07692E-003	-1.50937E-003	2.70501E-002	-1.71549E-003
	87	87	1.09999E+000	3.86076E-002	0.00000E+000	4.24682E-002	3.84981E-001	4.12832E-002	4.92066E+001	11	...........	6.88860E-002	-5.21625E-003	6.01684E-001	5.44839E-001	-2.76921E-002	-3.87601E-002	6.94604E-001	-4.40618E-002	2.65952E-003	-2.01387E-004	2.32296E-002	2.10350E-002	-1.06913E-003	-1.49644E-003	2.68170E-002	-1.70112E-003
	88	88	1.09998E+000	3.88346E-002	0.00000E+000	4.27175E-002	3.87235E-001	4.12819E-002	4.92623E+001	11	...........	6.88828E-002	-5.29778E-003	6.01866E-001	5.44816E-001	-2.76604E-002	-3.87531E-002	6.94485E-001	-4.40153E-002	2.67504E-003	-2.05737E-004	2.33732E-002	2.11577E-002	-1.07418E-003	-1.50496E-003	2.69700E-002	-1.70932E-003
	89	89	1.10008E+000	3.86687E-002	0.00000E+000	4.25386E-002	3.85593E-001	4.12609E-002	4.92803E+001	11	...........	6.88535E-002	-5.40083E-003	6.01826E-001	5.44822E-001	-2.76346E-002	-3.87504E-002	6.94587E-001	-4.40556E-002	2.66248E-003	-2.08843E-004	2.32719E-002	2.10676E-002	-1.06859E-003	-1.49843E-003	2.68588E-002	-1.70357E-003
	90	90	1.10000E+000	3.83294E-002	0.00000E+000	4.21622E-002	3.82215E-001	4.12395E-002	4.92736E+001	11	...........	6.88015E-002	-5.42458E-003	6.01705E-001	5.44889E-001	-2.76468E-002	-3.87557E-002	6.94600E-001	-4.40661E-002	2.63712E-003	-2.07921E-004	2.30630E-002	2.08853E-002	-1.05968E-003	-1.48548E-003	2.66236E-002	-1.68903E-003
	91	91	1.09998E+000	3.85267E-002	0.00000E+000	4.23787E-002	3.84175E-001	4.11953E-002	4.92764E+001	11	...........	6.87242E-002	-5.43597E-003	6.01702E-001	5.44758E-001	-2.76762E-002	-3.87376E-002	6.94562E-001	-4.40908E-002	2.64772E-003	-2.09430E-004	2.31816E-002	2.09878E-002	-1.06627E-003	-1.49243E-003	2.67592E-002	-1.69867E-003
	92	92	1.10008E+000	3.83740E-002	0.00000E+000	4.22144E-002	3.82655E-001	4.11837E-002	4.92996E+001	11	...........	6.87021E-002	-5.43153E-003	6.01686E-001	5.44780E-001	-2.76961E-002	-3.87493E-002	6.94515E-001	-4.39921E-002	2.63638E-003	-2.08430E-004	2.30891E-002	2.09054E-002	-1.06281E-003	-1.48697E-003	2.66513E-002	-1.68815E-003
	93	93	1.10000E+000	3.79275E-002	0.00000E+000	4.17204E-002	3.78215E-001	4.11325E-002	4.93161E+001	11	...........	6.86325E-002	-5.30319E-003	6.01526E-001	5.44834E-001	-2.76994E-002	-3.87614E-002	6.94528E-001	-4.41046E-002	2.60306E-003	-2.01137E-004	2.28144E-002	2.06642E-002	-1.05057E-003	-1.47012E-003	2.63417E-002	-1.67278E-003
	94	94	1.09998E+000	3.81545E-002	0.00000E+000	4.19693E-002	3.80475E-001	4.11392E-002	4.92703E+001	11	...........	6.86471E-002	-5.27014E-003	6.01579E-001	5.44791E-001	-2.77192E-002	-3.87821E-002	6.94637E-001	-4.40307E-002	2.61920E-003	-2.01080E-004	2.29529E-002	2.07862E-002	-1.05761E-003	-1.47971E-003	2.65035E-002	-1.67997E-003
	95	95	1.10007E+000	3.80575E-002	0.00000E+000	4.18660E-002	3.79509E-001	4.10976E-002	4.93081E+001	11	...........	6.85733E-002	-5.18319E-003	6.01548E-001	5.44714E-001	-2.77399E-002	-3.87737E-002	6.94603E-001	-4.40972E-002	2.60973E-003	-1.97259E-004	2.28934E-002	2.07304E-002	-1.05571E-003	-1.47563E-003	2.64349E-002	-1.67823E-003
	96	96	1.10001E+000	3.76804E-002	0.00000E+000	4.14487E-002	3.75764E-001	4.10508E-002	4.92873E+001	11	...........	6.84899E-002	-5.22750E-003	6.01302E-001	5.44531E-001	-2.77635E-002	-3.87676E-002	6.94496E-001	-4.40056E-002	2.58073E-003	-1.96974E-004	2.26573E-002	2.05182E-002	-1.04614E-003	-1.46078E-003	2.61689E-002	-1.65815E-003
	97	97	1.09998E+000	3.79256E-002	0.00000E+000	4.17174E-002	3.78201E-001	4.10446E-002	4.92662E+001	11	...........	6.84933E-002	-5.25972E-003	6.01245E-001	5.44519E-001	-2.77517E-002	-3.87725E-002	6.94527E-001	-4.40461E-002	2.59765E-003	-1.99478E-004	2.28026E-002	2.06512E-002	-1.05250E-003	-1.47047E-003	2.63403E-002	-1.67047E-003
	98	98	1.10007E+000	3.78152E-002	0.00000E+000	4.15994E-002	3.77103E-001	4.10195E-002	4.92901E+001	11	...........	6.84451E-002	-5.19681E-003	6.01331E-001	5.44303E-001	-2.77083E-002	-3.87669E-002	6.94624E-001	-4.38565E-002	2.58826E-003	-1.96518E-004	2.27394E-002	2.05829E-002	-1.04780E-003	-1.46598E-003	2.62673E-002	-1.65844E-003
	99	99	1.10001E+000	3.74235E-002	0.00000E+000	4.11662E-002	3.73210E-001	4.09595E-002	4.92571E+001	11	...........	6.83497E-002	-5.13306E-003	6.01455E-001	5.44302E-001	-2.77107E-002	-3.87765E-002	6.94664E-001	-4.39142E-002	2.55789E-003	-1.92097E-004	2.25085E-002	2.03697E-002	-1.03703E-003	-1.45115E-003	2.59968E-002	-1.64342E-003
	100	100	1.09998E+000	3.76402E-002	0.00000E+000	4.14035E-002	3.75367E-001	4.09465E-002	4.92556E+001	11	...........	6.83271E-002	-5.33444E-003	6.01444E-001	5.44185E-001	-2.76881E-002	-3.87661E-002	6.94633E-001	-4.38803E-002	2.57184E-003	-2.00790E-004	2.26385E-002	2.04832E-002	-1.04218E-003	-1.45916E-003	2.61461E-002	-1.65166E-003
	101	101	1.10007E+000	3.75431E-002	0.00000E+000	4.12999E-002	3.74399E-001	4.09282E-002	4.92220E+001	11	...........	6.82950E-002	-5.45264E-003	6.01102E-001	5.44254E-001	-2.77310E-002	-3.87408E-002	6.94623E-001	-4.39010E-002	2.56400E-003	-2.04709E-004	2.25672E-002	2.04330E-002	-1.04111E-003	-1.45445E-003	2.60783E-002	-1.64818E-003
	102	102	1.10001E+000	3.71579E-002	0.00000E+000	4.08742E-002	3.70566E-001	4.08928E-002	4.92295E+001	11	...........	6.82296E-002	-5.31444E-003	6.01109E-001	5.44286E-001	-2.77414E-002	-3.87243E-002	6.94589E-001	-4.38690E-002	2.53527E-003	-1.97474E-004	2.23360E-002	2.02245E-002	-1.03081E-003	-1.43891E-003	2.58095E-002	-1.63008E-003
	103	103	1.09998E+000	3.73531E-002	0.00000E+000	4.10876E-002	3.72510E-001	4.08583E-002	4.92314E+001	11	...........	6.81814E-002	-5.34167E-003	6.01248E-001	5.44413E-001	-2.77233E-002	-3.87219E-002	6.94603E-001	-4.38776E-002	2.54678E-003	-1.99528E-004	2.24584E-002	2.03355E-002	-1.03555E-003	-1.44638E-003	2.59456E-002	-1.63896E-003
	104	104	1.10006E+000	3.72481E-002	0.00000E+000	4.09753E-002	3.71466E-001	4.08273E-002	4.92726E+001	11	...........	6.81385E-002	-5.36403E-003	6.01289E-001	5.44404E-001	-2.76943E-002	-3.87162E-002	6.94684E-001	-4.38911E-002	2.53803E-003	-1.99800E-004	2.23969E-002	2.02780E-002	-1.03156E-003	-1.44211E-003	2.58757E-002	-1.63486E-003
	105	105	1.10002E+000	3.68684E-002	0.00000E+000	4.05559E-002	3.67685E-001	4.07961E-002	4.92496E+001	11	...........	6.80931E-002	-5.24708E-003	6.01325E-001	5.44496E-001	-2.77053E-002	-3.87140E-002	6.94676E-001	-4.39186E-002	2.51048E-003	-1.93451E-004	2.21699E-002	2.00747E-002	-1.02145E-003	-1.42732E-003	2.56116E-002	-1.61921E-003
	106	106	1.09998E+000	3.70547E-002	0.00000E+000	4.07593E-002	3.69536E-001	4.08008E-002	4.85091E+001	11	...........	6.81011E-002	-5.11667E-003	6.01507E-001	5.44575E-001	-2.77132E-002	-3.87224E-002	6.94623E-001	-4.39872E-002	2.52347E-003	-1.89596E-004	2.22887E-002	2.01791E-002	-1.02690E-003	-1.43485E-003	2.57390E-002	-1.62993E-003
	107	107	1.10006E+000	3.68661E-002	0.00000E+000	4.05549E-002	3.67664E-001	4.04359E-002	4.66624E+001	11	...........	6.74656E-002	-5.18778E-003	6.01559E-001	5.44549E-001	-2.76819E-002	-3.86862E-002	6.94645E-001	-4.40312E-002	2.48719E-003	-1.91253E-004	2.21771E-002	2.00754E-002	-1.02052E-003	-1.42621E-003	2.56088E-002	-1.62326E-003
	108	108	1.10002E+000	3.66351E-002	0.00000E+000	4.02995E-002	3.65365E-001	4.08117E-002	4.90229E+001	11	...........	6.81061E-002	-5.23833E-003	6.01722E-001	5.44429E-001	-2.77097E-002	-3.87186E-002	6.94646E-001	-4.39912E-002	2.49508E-003	-1.91907E-004	2.20442E-002	1.99452E-002	-1.01515E-003	-1.41846E-003	2.54484E-002	-1.61163E-003
	109	109	1.09998E+000	3.68060E-002	0.00000E+000	4.04857E-002	3.67067E-001	4.06610E-002	4.94355E+001	11	...........	6.78611E-002	-5.37806E-003	6.01709E-001	5.44411E-001	-2.77058E-002	-3.86983E-002	6.94602E-001	-4.38679E-002	2.49770E-003	-1.97945E-004	2.21465E-002	2.00376E-002	-1.01974E-003	-1.42433E-003	2.55655E-002	-1.61460E-003
	110	110	1.10006E+000	3.67360E-002	0.00000E+000	4.04117E-002	3.66369E-001	4.06340E-002	4.93454E+001	11	...........	6.77962E-002	-5.32181E-003	6.01555E-001	5.44440E-001	-2.77350E-002	-3.87199E-002	6.94448E-001	-4.38906E-002	2.49056E-003	-1.95502E-004	2.20987E-002	2.00005E-002	-1.01887E-003	-1.42241E-003	2.55112E-002	-1.61236E-003
	111	111	1.10003E+000	3.63520E-002	0.00000E+000	3.99882E-002	3.62550E-001	4.06624E-002	4.94443E+001	11	...........	6.78442E-002	-5.45986E-003	6.01424E-001	5.44305E-001	-2.77278E-002	-3.87169E-002	6.94351E-001	-4.38322E-002	2.46627E-003	-1.98477E-004	2.18630E-002	1.97866E-002	-1.00796E-003	-1.40744E-003	2.52410E-002	-1.59339E-003
	112	112	1.09998E+000	3.65419E-002	0.00000E+000	4.01952E-002	3.64439E-001	4.05822E-002	4.94418E+001	11	...........	6.77301E-002	-5.24931E-003	6.01458E-001	5.44191E-001	-2.77422E-002	-3.86978E-002	6.94430E-001	-4.38756E-002	2.47499E-003	-1.91820E-004	2.19784E-002	1.98858E-002	-1.01375E-003	-1.41409E-003	2.53758E-002	-1.60330E-003
	113	113	1.10005E+000	3.64907E-002	0.00000E+000	4.01417E-002	3.63927E-001	4.06065E-002	4.93926E+001	11	...........	6.77697E-002	-5.26514E-003	6.01463E-001	5.44140E-001	-2.77422E-002	-3.87053E-002	6.94300E-001	-4.39821E-002	2.47296E-003	-1.92128E-004	2.19478E-002	1.98560E-002	-1.01233E-003	-1.41238E-003	2.53355E-002	-1.60494E-003
	114	114	1.10003E+000	3.60696E-002	0.00000E+000	3.96777E-002	3.59738E-001	4.05461E-002	4.94684E+001	11	...........	6.76626E-002	-5.18333E-003	6.01503E-001	5.44017E-001	-2.77319E-002	-3.87014E-002	6.94423E-001	-4.40860E-002	2.44056E-003	-1.86961E-004	2.16960E-002	1.96224E-002	-1.00028E-003	-1.39594E-003	2.50475E-002	-1.59016E-003
	115	115	1.09997E+000	3.62686E-002	0.00000E+000	3.98945E-002	3.61720E-001	4.05290E-002	4.94114E+001	11	...........	6.76281E-002	-5.27875E-003	6.01441E-001	5.44057E-001	-2.77568E-002	-3.87054E-002	6.94387E-001	-4.41692E-002	2.45277E-003	-1.91453E-004	2.18134E-002	1.97322E-002	-1.00670E-003	-1.40379E-003	2.51844E-002	-1.60195E-003
	116	116	1.10005E+000	3.61964E-002	0.00000E+000	3.98179E-002	3.61003E-001	4.05482E-002	4.94879E+001	11	...........	6.76692E-002	-5.28278E-003	6.01415E-001	5.43936E-001	-2.77776E-002	-3.87217E-002	6.94426E-001	-4.39501E-002	2.44938E-003	-1.91217E-004	2.17690E-002	1.96885E-002	-1.00545E-003	-1.40158E-003	2.51357E-002	-1.59083E-003
	117	117	1.10003E+000	3.58139E-002	0.00000E+000	3.93965E-002	3.57196E-001	4.04824E-002	4.94785E+001	11	...........	6.75469E-002	-5.22319E-003	6.01704E-001	5.43958E-001	-2.77775E-002	-3.87003E-002	6.94366E-001	-4.40082E-002	2.41912E-003	-1.87063E-004	2.15493E-002	1.94812E-002	-9.94819E-004	-1.38601E-003	2.48679E-002	-1.57610E-003
	118	118	1.09997E+000	3.59959E-002	0.00000E+000	3.95945E-002	3.59009E-001	4.04736E-002	4.94829E+001	11	...........	6.75462E-002	-5.17500E-003	6.01895E-001	5.43662E-001	-2.77625E-002	-3.86904E-002	6.94394E-001	-4.38429E-002	2.43139E-003	-1.86279E-004	2.16657E-002	1.95696E-002	-9.99336E-004	-1.39270E-003	2.49953E-002	-1.57816E-003
	119	119	1.10005E+000	3.59326E-002	0.00000E+000	3.95276E-002	3.58376E-001	4.04689E-002	4.89578E+001	11	...........	6.75287E-002	-5.20389E-003	6.01835E-001	5.43504E-001	-2.77403E-002	-3.87078E-002	6.94506E-001	-4.38504E-002	2.42648E-003	-1.86989E-004	2.16255E-002	1.95295E-002	-9.96779E-004	-1.39087E-003	2.49554E-002	-1.57566E-003
	120	120	1.10004E+000	3.55009E-002	0.00000E+000	3.90524E-002	3.54083E-001	4.02809E-002	4.79406E+001	11	...........	6.72107E-002	-5.25111E-003	6.01760E-001	5.43493E-001	-2.77181E-002	-3.87183E-002	6.94523E-001	-4.39343E-002	2.38604E-003	-1.86419E-004	2.13630E-002	1.92945E-002	-9.84017E-004	-1.37454E-003	2.46562E-002	-1.55971E-003
	121	121	1.09997E+000	3.57211E-002	0.00000E+000	3.92922E-002	3.56278E-001	4.02577E-002	4.92294E+001	11	...........	6.75654E-002	-5.28111E-003	6.01759E-001	5.43618E-001	-2.77054E-002	-3.86922E-002	6.94549E-001	-4.41732E-002	2.41351E-003	-1.88647E-004	2.14955E-002	1.94186E-002	-9.89668E-004	-1.38213E-003	2.48101E-002	-1.57792E-003
	122	122	1.10005E+000	3.56889E-002	0.00000E+000	3.92594E-002	3.55961E-001	4.03912E-002	4.94187E+001	11	...........	6.73803E-002	-5.25292E-003	6.01873E-001	5.43616E-001	-2.76975E-002	-3.87232E-002	6.94527E-001	-4.40256E-002	2.40472E-003	-1.87471E-004	2.14801E-002	1.94010E-002	-9.88492E-004	-1.38199E-003	2.47869E-002	-1.57122E-003
	123	123	1.10004E+000	3.52753E-002	0.00000E+000	3.88043E-002	3.51845E-001	4.03837E-002	4.93883E+001	11	...........	6.73950E-002	-5.33778E-003	6.01804E-001	5.43607E-001	-2.77210E-002	-3.87153E-002	6.94422E-001	-4.40612E-002	2.37738E-003	-1.88292E-004	2.12288E-002	1.91759E-002	-9.77865E-004	-1.36569E-003	2.44959E-002	-1.55427E-003
	124	124	1.09997E+000	3.54314E-002	0.00000E+000	3.89735E-002	3.53400E-001	4.03410E-002	4.94118E+001	11	...........	6.73196E-002	-5.21681E-003	6.01865E-001	5.43718E-001	-2.77449E-002	-3.87268E-002	6.94526E-001	-4.39624E-002	2.38523E-003	-1.84839E-004	2.13249E-002	1.92647E-002	-9.83039E-004	-1.37214E-003	2.46080E-002	-1.55765E-003
	125	125	1.10004E+000	3.54252E-002	0.00000E+000	3.89692E-002	3.53342E-001	4.03194E-002	4.94062E+001	11	...........	6.72767E-002	-5.28292E-003	6.01976E-001	5.43734E-001	-2.77267E-002	-3.87472E-002	6.94605E-001	-4.39894E-002	2.38329E-003	-1.87148E-004	2.13251E-002	1.92619E-002	-9.82222E-004	-1.37263E-003	2.46065E-002	-1.55833E-003
	126	126	1.10005E+000	3.50215E-002	0.00000E+000	3.85254E-002	3.49326E-001	4.03068E-002	4.94473E+001	11	...........	6.72468E-002	-5.15208E-003	6.02228E-001	5.43789E-001	-2.77208E-002	-3.87275E-002	6.94603E-001	-4.39792E-002	2.35508E-003	-1.80434E-004	2.10909E-002	1.90443E-002	-9.70825E-004	-1.35630E-003	2.43261E-002	-1.54022E-003
	127	127	1.09997E+000	3.51770E-002	0.00000E+000	3.86936E-002	3.50872E-001	4.02678E-002	4.94699E+001	11	...........	6.72062E-002	-5.11806E-003	6.02207E-001	5.43742E-001	-2.77425E-002	-3.87460E-002	6.94558E-001	-4.40026E-002	2.36411E-003	-1.80038E-004	2.11838E-002	1.91272E-002	-9.75897E-004	-1.36297E-003	2.44325E-002	-1.54788E-003
	128	128	1.10004E+000	3.51972E-002	0.00000E+000	3.87183E-002	3.51072E-001	4.02607E-002	4.94362E+001	11	...........	6.71946E-002	-5.22639E-003	6.02233E-001	5.43725E-001	-2.77264E-002	-3.87721E-002	6.94635E-001	-4.39678E-002	2.36506E-003	-1.83954E-004	2.11970E-002	1.91376E-002	-9.75892E-004	-1.36467E-003	2.44493E-002	-1.54754E-003
	129	129	1.10005E+000	3.47859E-002	0.00000E+000	3.82664E-002	3.46985E-001	4.02140E-002	4.94503E+001	11	...........	6.71157E-002	-5.32944E-003	6.02147E-001	5.43774E-001	-2.77126E-002	-3.87940E-002	6.94436E-001	-4.40433E-002	2.33468E-003	-1.85390E-004	2.09462E-002	1.89157E-002	-9.64009E-004	-1.34949E-003	2.41566E-002	-1.53209E-003
	130	130	1.09997E+000	3.49322E-002	0.00000E+000	3.84243E-002	3.48435E-001	4.02262E-002	4.94579E+001	11	...........	6.71153E-002	-5.39375E-003	6.02200E-001	5.43779E-001	-2.77049E-002	-3.87933E-002	6.94621E-001	-4.40815E-002	2.34448E-003	-1.88415E-004	2.10362E-002	1.89954E-002	-9.67791E-004	-1.35514E-003	2.42646E-002	-1.53986E-003
	131	131	1.10004E+000	3.49170E-002	0.00000E+000	3.84099E-002	3.48284E-001	4.01781E-002	4.94510E+001	11	...........	6.70439E-002	-5.24708E-003	6.02227E-001	5.43824E-001	-2.77046E-002	-3.87799E-002	6.94704E-001	-4.40144E-002	2.34097E-003	-1.83212E-004	2.10279E-002	1.89887E-002	-9.67360E-004	-1.35408E-003	2.42570E-002	-1.53685E-003
	132	132	1.10006E+000	3.45112E-002	0.00000E+000	3.79643E-002	3.44253E-001	4.01861E-002	4.94496E+001	11	...........	6.70636E-002	-5.21389E-003	6.02219E-001	5.43651E-001	-2.77146E-002	-3.87726E-002	6.94784E-001	-4.39839E-002	2.31445E-003	-1.79938E-004	2.07833E-002	1.87621E-002	-9.56464E-004	-1.33809E-003	2.39778E-002	-1.51794E-003
	133	133	1.09997E+000	3.46444E-002	0.00000E+000	3.81077E-002	3.45575E-001	4.01231E-002	4.94606E+001	11	...........	6.69403E-002	-5.20250E-003	6.02328E-001	5.43579E-001	-2.76956E-002	-3.87987E-002	6.94615E-001	-4.40287E-002	2.31911E-003	-1.80238E-004	2.08673E-002	1.88320E-002	-9.59497E-004	-1.34416E-003	2.40645E-002	-1.52535E-003
	134	134	1.10003E+000	3.46734E-002	0.00000E+000	3.81418E-002	3.45861E-001	4.01483E-002	4.94474E+001	11	...........	6.69894E-002	-5.21639E-003	6.02193E-001	5.43409E-001	-2.76883E-002	-3.88049E-002	6.94661E-001	-4.41022E-002	2.32275E-003	-1.80870E-004	2.08800E-002	1.88418E-002	-9.60047E-004	-1.34549E-003	2.40862E-002	-1.52917E-003
	135	135	1.10006E+000	3.42832E-002	0.00000E+000	3.77136E-002	3.41984E-001	4.00755E-002	4.94740E+001	11	...........	6.68807E-002	-5.32736E-003	6.02289E-001	5.43536E-001	-2.76640E-002	-3.87739E-002	6.94699E-001	-4.40306E-002	2.29288E-003	-1.82639E-004	2.06484E-002	1.86342E-002	-9.48412E-004	-1.32929E-003	2.38165E-002	-1.50951E-003
	136	136	1.09997E+000	3.43938E-002	0.00000E+000	3.78320E-002	3.43083E-001	4.00861E-002	4.93688E+001	11	...........	6.68935E-002	-5.34028E-003	6.02265E-001	5.43583E-001	-2.76567E-002	-3.87581E-002	6.94694E-001	-4.39683E-002	2.30072E-003	-1.83672E-004	2.07142E-002	1.86959E-002	-9.51217E-004	-1.33304E-003	2.38932E-002	-1.51224E-003
	137	137	1.10003E+000	3.44094E-002	0.00000E+000	3.78513E-002	3.43241E-001	4.00378E-002	4.94635E+001	11	...........	6.68222E-002	-5.30056E-003	6.02316E-001	5.43542E-001	-2.76878E-002	-3.87731E-002	6.94792E-001	-4.39508E-002	2.29931E-003	-1.82389E-004	2.07253E-002	1.87030E-002	-9.52719E-004	-1.33416E-003	2.39074E-002	-1.51232E-003
	138	138	1.10006E+000	3.40282E-002	0.00000E+000	3.74332E-002	3.39449E-001	4.00541E-002	4.94829E+001	11	...........	6.68653E-002	-5.27667E-003	6.02273E-001	5.43472E-001	-2.77096E-002	-3.87369E-002	6.94796E-001	-4.39579E-002	2.27530E-003	-1.79555E-004	2.04943E-002	1.84934E-002	-9.42907E-004	-1.31815E-003	2.36427E-002	-1.49581E-003
	139	139	1.09997E+000	3.41404E-002	0.00000E+000	3.75533E-002	3.40566E-001	4.00122E-002	4.94956E+001	11	...........	6.67833E-002	-5.31639E-003	6.02380E-001	5.43410E-001	-2.77168E-002	-3.87554E-002	6.94724E-001	-4.39119E-002	2.28001E-003	-1.81504E-004	2.05655E-002	1.85522E-002	-9.46262E-004	-1.32312E-003	2.37182E-002	-1.49917E-003
	140	140	1.10003E+000	3.41544E-002	0.00000E+000	3.75708E-002	3.40701E-001	4.00071E-002	4.94567E+001	11	...........	6.67719E-002	-5.26181E-003	6.02562E-001	5.43579E-001	-2.76928E-002	-3.87604E-002	6.94718E-001	-4.39182E-002	2.28056E-003	-1.79714E-004	2.05802E-002	1.85656E-002	-9.45831E-004	-1.32384E-003	2.37277E-002	-1.50000E-003
	141	141	1.10007E+000	3.37884E-002	0.00000E+000	3.71695E-002	3.37065E-001	3.99587E-002	4.95139E+001	11	...........	6.66899E-002	-5.22958E-003	6.02560E-001	5.43625E-001	-2.76487E-002	-3.87400E-002	6.94751E-001	-4.39585E-002	2.25335E-003	-1.76699E-004	2.03596E-002	1.83682E-002	-9.34208E-004	-1.30896E-003	2.34745E-002	-1.48529E-003
	142	142	1.09997E+000	3.38915E-002	0.00000E+000	3.72795E-002	3.38091E-001	3.99447E-002	4.95087E+001	11	...........	6.66701E-002	-5.24333E-003	6.02627E-001	5.43663E-001	-2.76303E-002	-3.87447E-002	6.94657E-001	-4.40621E-002	2.25955E-003	-1.77705E-004	2.04239E-002	1.84256E-002	-9.36432E-004	-1.31312E-003	2.35430E-002	-1.49333E-003
	143	143	1.10002E+000	3.39328E-002	0.00000E+000	3.73269E-002	3.38505E-001	3.99222E-002	4.95258E+001	11	...........	6.66326E-002	-5.10667E-003	6.02585E-001	5.43948E-001	-2.76300E-002	-3.87221E-002	6.94630E-001	-4.41418E-002	2.26103E-003	-1.73283E-004	2.04474E-002	1.84577E-002	-9.37563E-004	-1.31395E-003	2.35707E-002	-1.49785E-003
	144	144	1.10007E+000	3.35414E-002	0.00000E+000	3.68979E-002	3.34610E-001	3.98927E-002	4.95308E+001	11	...........	6.65881E-002	-5.18472E-003	6.02561E-001	5.43805E-001	-2.76503E-002	-3.86940E-002	6.94619E-001	-4.40531E-002	2.23346E-003	-1.73903E-004	2.02108E-002	1.82400E-002	-9.27430E-004	-1.29785E-003	2.32985E-002	-1.47760E-003
	145	145	1.09996E+000	3.36221E-002	0.00000E+000	3.69831E-002	3.35415E-001	3.98742E-002	4.82156E+001	11	...........	6.65428E-002	-5.27667E-003	6.02514E-001	5.43597E-001	-2.76528E-002	-3.86932E-002	6.94648E-001	-4.39035E-002	2.23731E-003	-1.77413E-004	2.02578E-002	1.82769E-002	-9.29744E-004	-1.30095E-003	2.33555E-002	-1.47613E-003
	146	146	1.10002E+000	3.36158E-002	0.00000E+000	3.69781E-002	3.35348E-001	3.96326E-002	4.82931E+001	11	...........	6.61381E-002	-5.13278E-003	6.02460E-001	5.43566E-001	-2.76760E-002	-3.86887E-002	6.94658E-001	-4.38707E-002	2.22328E-003	-1.72542E-004	2.02522E-002	1.82724E-002	-9.30349E-004	-1.30055E-003	2.33515E-002	-1.47475E-003
	147	147	1.10007E+000	3.33173E-002	0.00000E+000	3.66514E-002	3.32383E-001	3.99361E-002	4.92133E+001	11	...........	6.66550E-002	-5.07403E-003	6.02545E-001	5.43525E-001	-2.76499E-002	-3.86568E-002	6.94754E-001	-4.39508E-002	2.22076E-003	-1.69053E-004	2.00752E-002	1.81088E-002	-9.21218E-004	-1.28794E-003	2.31473E-002	-1.46432E-003
	148	148	1.09997E+000	3.33869E-002	0.00000E+000	3.67245E-002	3.33075E-001	3.98058E-002	4.91991E+001	11	...........	6.64064E-002	-5.17222E-003	6.02558E-001	5.43404E-001	-2.76522E-002	-3.86836E-002	6.94845E-001	-4.39254E-002	2.21710E-003	-1.72685E-004	2.01176E-002	1.81426E-002	-9.23222E-004	-1.29153E-003	2.31987E-002	-1.46653E-003
	149	149	1.10002E+000	3.34022E-002	0.00000E+000	3.67431E-002	3.33225E-001	3.97612E-002	4.84089E+001	11	...........	6.63221E-002	-5.12014E-003	6.02582E-001	5.43323E-001	-2.76811E-002	-3.86956E-002	6.94855E-001	-4.39989E-002	2.21530E-003	-1.71024E-004	2.01276E-002	1.81482E-002	-9.24610E-004	-1.29252E-003	2.32097E-002	-1.46966E-003
	150	150	1.10007E+000	3.30544E-002	0.00000E+000	3.63623E-002	3.29769E-001	3.96921E-002	4.89121E+001	11	...........	6.62090E-002	-5.19903E-003	6.02585E-001	5.43428E-001	-2.76815E-002	-3.87076E-002	6.94715E-001	-4.40124E-002	2.18850E-003	-1.71851E-004	1.99181E-002	1.79627E-002	-9.14996E-004	-1.27946E-003	2.29634E-002	-1.45480E-003
	151	151	1.09996E+000	3.31428E-002	0.00000E+000	3.64559E-002	3.30647E-001	3.97822E-002	4.90874E+001	11	...........	6.63851E-002	-5.26778E-003	6.02597E-001	5.43446E-001	-2.76981E-002	-3.87121E-002	6.94707E-001	-4.40206E-002	2.20019E-003	-1.74589E-004	1.99718E-002	1.80113E-002	-9.17992E-004	-1.28303E-003	2.30246E-002	-1.45897E-003
	152	152	1.10002E+000	3.31685E-002	0.00000E+000	3.64860E-002	3.30907E-001	3.97990E-002	4.91657E+001	11	...........	6.64300E-002	-5.22708E-003	6.02727E-001	5.43279E-001	-2.76606E-002	-3.87157E-002	6.94674E-001	-4.40489E-002	2.20338E-003	-1.73375E-004	1.99916E-002	1.80198E-002	-9.17460E-004	-1.28414E-003	2.30413E-002	-1.46104E-003
	153	153	1.10008E+000	3.28339E-002	0.00000E+000	3.61198E-002	3.27579E-001	3.97910E-002	4.91986E+001	11	...........	6.64022E-002	-5.29597E-003	6.02666E-001	5.43281E-001	-2.76392E-002	-3.87296E-002	6.94717E-001	-4.41286E-002	2.18024E-003	-1.73887E-004	1.97879E-002	1.78380E-002	-9.07501E-004	-1.27164E-003	2.28103E-002	-1.44891E-003
	154	154	1.09996E+000	3.28783E-002	0.00000E+000	3.61650E-002	3.28019E-001	3.97214E-002	4.91883E+001	11	...........	6.62760E-002	-5.32528E-003	6.02592E-001	5.43224E-001	-2.76578E-002	-3.87550E-002	6.94649E-001	-4.40887E-002	2.17904E-003	-1.75086E-004	1.98122E-002	1.78603E-002	-9.09342E-004	-1.27420E-003	2.28389E-002	-1.44956E-003
	155	155	1.10002E+000	3.29605E-002	0.00000E+000	3.62571E-002	3.28833E-001	3.97427E-002	4.92471E+001	11	...........	6.63156E-002	-5.33847E-003	6.02497E-001	5.43203E-001	-2.76814E-002	-3.87660E-002	6.94657E-001	-4.39518E-002	2.18579E-003	-1.75959E-004	1.98586E-002	1.79042E-002	-9.12392E-004	-1.27775E-003	2.28962E-002	-1.44867E-003
	156	156	1.10008E+000	3.26437E-002	0.00000E+000	3.59106E-002	3.25685E-001	3.96994E-002	4.92146E+001	11	...........	6.62400E-002	-5.24375E-003	6.02559E-001	5.43163E-001	-2.76674E-002	-3.87342E-002	6.94702E-001	-4.41040E-002	2.16232E-003	-1.71175E-004	1.96697E-002	1.77308E-002	-9.03164E-004	-1.26442E-003	2.26776E-002	-1.43972E-003
	157	157	1.09996E+000	3.26888E-002	0.00000E+000	3.59565E-002	3.26131E-001	3.97027E-002	4.92149E+001	11	...........	6.62493E-002	-5.25708E-003	6.02621E-001	5.43185E-001	-2.77176E-002	-3.87246E-002	6.94765E-001	-4.42196E-002	2.16561E-003	-1.71848E-004	1.96990E-002	1.77561E-002	-9.06056E-004	-1.26586E-003	2.27110E-002	-1.44549E-003
	158	158	1.10002E+000	3.27649E-002	0.00000E+000	3.60419E-002	3.26888E-001	3.96709E-002	4.92378E+001	11	...........	6.62054E-002	-5.31153E-003	6.02681E-001	5.43194E-001	-2.77407E-002	-3.87433E-002	6.94745E-001	-4.40650E-002	2.16921E-003	-1.74032E-004	1.97468E-002	1.77977E-002	-9.08921E-004	-1.26942E-003	2.27632E-002	-1.44379E-003
	159	159	1.10008E+000	3.23995E-002	0.00000E+000	3.56420E-002	3.23254E-001	3.96373E-002	4.92426E+001	11	...........	6.61244E-002	-5.25903E-003	6.02695E-001	5.43247E-001	-2.77285E-002	-3.87407E-002	6.94787E-001	-4.40862E-002	2.14240E-003	-1.70390E-004	1.95270E-002	1.76009E-002	-8.98388E-004	-1.25518E-003	2.25107E-002	-1.42837E-003
	160	160	1.09996E+000	3.24125E-002	0.00000E+000	3.56526E-002	3.23382E-001	3.95812E-002	4.74750E+001	11	...........	6.60335E-002	-5.30611E-003	6.02879E-001	5.43213E-001	-2.77481E-002	-3.87444E-002	6.94664E-001	-4.40708E-002	2.14031E-003	-1.71984E-004	1.95408E-002	1.76069E-002	-8.99383E-004	-1.25580E-003	2.25158E-002	-1.42844E-003
	161	161	1.10001E+000	3.25431E-002	0.00000E+000	3.57979E-002	3.24676E-001	3.96236E-002	4.89102E+001	11	...........	6.61275E-002	-5.39569E-003	6.02967E-001	5.43236E-001	-2.77507E-002	-3.87444E-002	6.94571E-001	-4.40981E-002	2.15200E-003	-1.75593E-004	1.96224E-002	1.76786E-002	-9.03094E-004	-1.26087E-003	2.26035E-002	-1.43509E-003
	162	162	1.10008E+000	3.22104E-002	0.00000E+000	3.54341E-002	3.21371E-001	3.96467E-002	4.91233E+001	11	...........	6.61482E-002	-5.39611E-003	6.03049E-001	5.43086E-001	-2.77322E-002	-3.87562E-002	6.94548E-001	-4.40201E-002	2.13066E-003	-1.73811E-004	1.94245E-002	1.74930E-002	-8.93267E-004	-1.24836E-003	2.23717E-002	-1.41791E-003
	163	163	1.09996E+000	3.22041E-002	0.00000E+000	3.54234E-002	3.21310E-001	3.95997E-002	4.91250E+001	11	...........	6.60682E-002	-5.30333E-003	6.03085E-001	5.43083E-001	-2.77444E-002	-3.87872E-002	6.94582E-001	-4.40886E-002	2.12767E-003	-1.70789E-004	1.94218E-002	1.74895E-002	-8.93485E-004	-1.24911E-003	2.23684E-002	-1.41983E-003
	164	164	1.10001E+000	3.22801E-002	0.00000E+000	3.55085E-002	3.22056E-001	3.95806E-002	4.90970E+001	11	...........	6.60542E-002	-5.26069E-003	6.03124E-001	5.43268E-001	-2.77056E-002	-3.88014E-002	6.94601E-001	-4.40572E-002	2.13223E-003	-1.69816E-004	1.94689E-002	1.75368E-002	-8.94338E-004	-1.25251E-003	2.24218E-002	-1.42217E-003
	165	165	1.10008E+000	3.19489E-002	0.00000E+000	3.51463E-002	3.18768E-001	3.95757E-002	4.91132E+001	11	...........	6.60501E-002	-5.23028E-003	6.03260E-001	5.43346E-001	-2.76879E-002	-3.87860E-002	6.94677E-001	-4.40807E-002	2.11023E-003	-1.67101E-004	1.92735E-002	1.73593E-002	-8.84597E-004	-1.23917E-003	2.21941E-002	-1.40833E-003
	166	166	1.09997E+000	3.18401E-002	0.00000E+000	3.50231E-002	3.17690E-001	3.95327E-002	4.91176E+001	11	...........	6.59764E-002	-5.07958E-003	6.03328E-001	5.43327E-001	-2.76660E-002	-3.87783E-002	6.94583E-001	-4.41106E-002	2.10070E-003	-1.61735E-004	1.92101E-002	1.72996E-002	-8.80889E-004	-1.23471E-003	2.21156E-002	-1.40449E-003
	167	167	1.10001E+000	3.18833E-002	0.00000E+000	3.50719E-002	3.18115E-001	3.95594E-002	4.91556E+001	11	...........	6.60054E-002	-5.19736E-003	6.03144E-001	5.43399E-001	-2.76894E-002	-3.87869E-002	6.94584E-001	-4.40881E-002	2.10447E-003	-1.65709E-004	1.92302E-002	1.73253E-002	-8.82830E-004	-1.23665E-003	2.21456E-002	-1.40567E-003
	168	168	1.10008E+000	3.15652E-002	0.00000E+000	3.47243E-002	3.14957E-001	3.95062E-002	4.91562E+001	11	...........	6.59260E-002	-5.28000E-003	6.03058E-001	5.43582E-001	-2.77222E-002	-3.87906E-002	6.94559E-001	-4.40069E-002	2.08097E-003	-1.66664E-004	1.90356E-002	1.71583E-002	-8.75058E-004	-1.22443E-003	2.19239E-002	-1.38909E-003
	169	169	1.09997E+000	3.15574E-002	0.00000E+000	3.47121E-002	3.14881E-001	3.94928E-002	4.91656E+001	11	...........	6.59132E-002	-5.31514E-003	6.03091E-001	5.43602E-001	-2.77379E-002	-3.87518E-002	6.94625E-001	-4.39511E-002	2.08005E-003	-1.67732E-004	1.90320E-002	1.71546E-002	-8.75336E-004	-1.22291E-003	2.19206E-002	-1.38698E-003
	170	170	1.10001E+000	3.16515E-002	0.00000E+000	3.48169E-002	3.15815E-001	3.94935E-002	4.92167E+001	11	...........	6.59008E-002	-5.22556E-003	6.03048E-001	5.43641E-001	-2.77319E-002	-3.87681E-002	6.94471E-001	-4.38932E-002	2.08586E-003	-1.65397E-004	1.90874E-002	1.72070E-002	-8.77757E-004	-1.22707E-003	2.19810E-002	-1.38928E-003
	171	171	1.10008E+000	3.13457E-002	0.00000E+000	3.44829E-002	3.12774E-001	3.94679E-002	4.91919E+001	11	...........	6.58493E-002	-5.27597E-003	6.02832E-001	5.43526E-001	-2.77336E-002	-3.87742E-002	6.94481E-001	-4.39103E-002	2.06409E-003	-1.65379E-004	1.88962E-002	1.70372E-002	-8.69330E-004	-1.21540E-003	2.17690E-002	-1.37640E-003
	172	172	1.09997E+000	3.13085E-002	0.00000E+000	3.44383E-002	3.12406E-001	3.94727E-002	4.91955E+001	11	...........	6.58642E-002	-5.29375E-003	6.02875E-001	5.43602E-001	-2.77354E-002	-3.87696E-002	6.94448E-001	-4.39774E-002	2.06211E-003	-1.65739E-004	1.88751E-002	1.70193E-002	-8.68353E-004	-1.21382E-003	2.17421E-002	-1.37686E-003
	173	173	1.10001E+000	3.14213E-002	0.00000E+000	3.45636E-002	3.13524E-001	3.94124E-002	4.92078E+001	11	...........	6.57589E-002	-5.21250E-003	6.02946E-001	5.43496E-001	-2.77107E-002	-3.87550E-002	6.94531E-001	-4.39011E-002	2.06623E-003	-1.63783E-004	1.89453E-002	1.70773E-002	-8.70705E-004	-1.21773E-003	2.18230E-002	-1.37943E-003
	174	174	1.10008E+000	3.11435E-002	0.00000E+000	3.42604E-002	3.10768E-001	3.94147E-002	4.92374E+001	11	...........	6.57711E-002	-5.21542E-003	6.02786E-001	5.43606E-001	-2.76885E-002	-3.87535E-002	6.94496E-001	-4.38960E-002	2.04834E-003	-1.62426E-004	1.87728E-002	1.69298E-002	-8.62315E-004	-1.20692E-003	2.16290E-002	-1.36707E-003
	175	175	1.09997E+000	3.11014E-002	0.00000E+000	3.42105E-002	3.10348E-001	3.93779E-002	4.92660E+001	11	...........	6.57199E-002	-5.23319E-003	6.02730E-001	5.43632E-001	-2.76789E-002	-3.87633E-002	6.94566E-001	-4.39676E-002	2.04398E-003	-1.62759E-004	1.87457E-002	1.69077E-002	-8.60851E-004	-1.20559E-003	2.16019E-002	-1.36745E-003
	176	176	1.10001E+000	3.12181E-002	0.00000E+000	3.43402E-002	3.11509E-001	3.93652E-002	4.92909E+001	11	...........	6.56943E-002	-5.38542E-003	6.02764E-001	5.43617E-001	-2.76931E-002	-3.87314E-002	6.94470E-001	-4.40617E-002	2.05085E-003	-1.68123E-004	1.88172E-002	1.69707E-002	-8.64526E-004	-1.20912E-003	2.16801E-002	-1.37552E-003
	177	177	1.10008E+000	3.09359E-002	0.00000E+000	3.40320E-002	3.08704E-001	3.93450E-002	4.92951E+001	11	...........	6.56639E-002	-5.23472E-003	6.02785E-001	5.43549E-001	-2.77229E-002	-3.87536E-002	6.94485E-001	-4.39943E-002	2.03137E-003	-1.61941E-004	1.86477E-002	1.68152E-002	-8.57632E-004	-1.19888E-003	2.14845E-002	-1.36100E-003
	178	178	1.09997E+000	3.08560E-002	0.00000E+000	3.39407E-002	3.07908E-001	3.92892E-002	4.92946E+001	11	...........	6.55833E-002	-5.28722E-003	6.02959E-001	5.43733E-001	-2.77143E-002	-3.87776E-002	6.94416E-001	-4.40314E-002	2.02364E-003	-1.63142E-004	1.86049E-002	1.67774E-002	-8.55152E-004	-1.19652E-003	2.14269E-002	-1.35863E-003
	179	179	1.10001E+000	3.09548E-002	0.00000E+000	3.40505E-002	3.08895E-001	3.92961E-002	4.82726E+001	11	...........	6.55754E-002	-5.35431E-003	6.02913E-001	5.43688E-001	-2.77050E-002	-3.87986E-002	6.94528E-001	-4.39637E-002	2.02987E-003	-1.65741E-004	1.86630E-002	1.68297E-002	-8.57603E-004	-1.20100E-003	2.14990E-002	-1.36089E-003
	180	180	1.10008E+000	3.06316E-002	0.00000E+000	3.36972E-002	3.05683E-001	3.90157E-002	4.74876E+001	11	...........	6.50999E-002	-5.28583E-003	6.02867E-001	5.43819E-001	-2.77040E-002	-3.87874E-002	6.94593E-001	-4.39556E-002	1.99411E-003	-1.61913E-004	1.84668E-002	1.66580E-002	-8.48618E-004	-1.18812E-003	2.12765E-002	-1.34643E-003
	181	181	1.09997E+000	3.06500E-002	0.00000E+000	3.37141E-002	3.05867E-001	3.93876E-002	4.90595E+001	11	...........	6.57374E-002	-5.18250E-003	6.02884E-001	5.43705E-001	-2.77024E-002	-3.87639E-002	6.94632E-001	-4.39718E-002	2.01485E-003	-1.58844E-004	1.84784E-002	1.66645E-002	-8.49078E-004	-1.18811E-003	2.12905E-002	-1.34774E-003
	182	182	1.10001E+000	3.07394E-002	0.00000E+000	3.38135E-002	3.06756E-001	3.92825E-002	4.93151E+001	11	...........	6.55469E-002	-5.19278E-003	6.02919E-001	5.43468E-001	-2.76921E-002	-3.87803E-002	6.94750E-001	-4.39142E-002	2.01487E-003	-1.59623E-004	1.85333E-002	1.67059E-002	-8.51237E-004	-1.19208E-003	2.13562E-002	-1.34989E-003
	183	183	1.10008E+000	3.04680E-002	0.00000E+000	3.35173E-002	3.04055E-001	3.91707E-002	4.93233E+001	11	...........	6.54915E-002	-5.21014E-003	6.02923E-001	5.43447E-001	-2.76724E-002	-3.87812E-002	6.94828E-001	-4.39547E-002	1.99540E-003	-1.58742E-004	1.83699E-002	1.65577E-002	-8.43121E-004	-1.18159E-003	2.11700E-002	-1.33921E-003
	184	184	1.09997E+000	3.03879E-002	0.00000E+000	3.34259E-002	3.03257E-001	3.92194E-002	4.92702E+001	11	...........	6.54629E-002	-5.30403E-003	6.03033E-001	5.43521E-001	-2.76675E-002	-3.87954E-002	6.94626E-001	-4.38790E-002	1.98928E-003	-1.61178E-004	1.83249E-002	1.65165E-002	-8.40758E-004	-1.17891E-003	2.11082E-002	-1.33339E-003
	185	185	1.10001E+000	3.04985E-002	0.00000E+000	3.35485E-002	3.04355E-001	3.92049E-002	4.88636E+001	11	...........	6.54044E-002	-5.31875E-003	6.03339E-001	5.43332E-001	-2.76606E-002	-3.87949E-002	6.94516E-001	-4.39168E-002	1.99474E-003	-1.62214E-004	1.84009E-002	1.65708E-002	-8.43605E-004	-1.18318E-003	2.11817E-002	-1.33940E-003
	186	186	1.10008E+000	3.02717E-002	0.00000E+000	3.33013E-002	3.02103E-001	3.90939E-002	4.89614E+001	11	...........	6.52418E-002	-5.20681E-003	6.03259E-001	5.43036E-001	-2.76714E-002	-3.87976E-002	6.94653E-001	-4.39610E-002	1.97498E-003	-1.57619E-004	1.82617E-002	1.64386E-002	-8.37660E-004	-1.17447E-003	2.10283E-002	-1.33077E-003
	187	187	1.09997E+000	3.01537E-002	0.00000E+000	3.31683E-002	3.00930E-001	3.92039E-002	4.94092E+001	11	...........	6.54226E-002	-5.28750E-003	6.03040E-001	5.42917E-001	-2.76783E-002	-3.87919E-002	6.94731E-001	-4.39675E-002	1.97274E-003	-1.59438E-004	1.81839E-002	1.63710E-002	-8.34604E-004	-1.16972E-003	2.09487E-002	-1.32578E-003
	188	188	1.10000E+000	3.02917E-002	0.00000E+000	3.33210E-002	3.02301E-001	3.91537E-002	4.95557E+001	11	...........	6.53582E-002	-5.38028E-003	6.03043E-001	5.42948E-001	-2.77275E-002	-3.87597E-002	6.94586E-001	-4.40172E-002	1.97981E-003	-1.62978E-004	1.82672E-002	1.64469E-002	-8.39914E-004	-1.17410E-003	2.10402E-002	-1.33336E-003
	189	189	1.10008E+000	3.00726E-002	0.00000E+000	3.30823E-002	3.00119E-001	3.90872E-002	4.95730E+001	11	...........	6.52289E-002	-5.42500E-003	6.02958E-001	5.43102E-001	-2.77206E-002	-3.87814E-002	6.94582E-001	-4.41607E-002	1.96160E-003	-1.63144E-004	1.81325E-002	1.63325E-002	-8.33629E-004	-1.16626E-003	2.08879E-002	-1.32803E-003
	190	190	1.09998E+000	2.99645E-002	0.00000E+000	3.29602E-002	2.99046E-001	3.90652E-002	4.95147E+001	11	...........	6.51864E-002	-5.24028E-003	6.02925E-001	5.43207E-001	-2.77265E-002	-3.87782E-002	6.94475E-001	-4.41175E-002	1.95328E-003	-1.57022E-004	1.80664E-002	1.62769E-002	-8.30812E-004	-1.16197E-003	2.08096E-002	-1.32196E-003
	191	191	1.10000E+000	3.00882E-002	0.00000E+000	3.30971E-002	3.00279E-001	3.90800E-002	4.95866E+001	11	...........	6.52317E-002	-5.22306E-003	6.02947E-001	5.43310E-001	-2.77551E-002	-3.87587E-002	6.94528E-001	-4.39443E-002	1.96271E-003	-1.57153E-004	1.81416E-002	1.63472E-002	-8.35103E-004	-1.16618E-003	2.08971E-002	-1.32221E-003
	192	192	1.10008E+000	2.98798E-002	0.00000E+000	3.28702E-002	2.98205E-001	3.90503E-002	4.90608E+001	11	...........	6.51699E-002	-5.24528E-003	6.03155E-001	5.43286E-001	-2.77167E-002	-3.87533E-002	6.94556E-001	-4.39954E-002	1.94726E-003	-1.56728E-004	1.80222E-002	1.62333E-002	-8.28169E-004	-1.15794E-003	2.07532E-002	-1.31457E-003
	193	193	1.09998E+000	2.96863E-002	0.00000E+000	3.26543E-002	2.96281E-001	3.88844E-002	4.79660E+001	11	...........	6.48869E-002	-5.28306E-003	6.03058E-001	5.43217E-001	-2.76843E-002	-3.87482E-002	6.94581E-001	-4.40451E-002	1.92626E-003	-1.56835E-004	1.79026E-002	1.61261E-002	-8.21845E-004	-1.15029E-003	2.06196E-002	-1.30754E-003
	194	194	1.10000E+000	2.98738E-002	0.00000E+000	3.28612E-002	2.98141E-001	3.90785E-002	4.92157E+001	11	...........	6.52072E-002	-5.24500E-003	6.02930E-001	5.43181E-001	-2.76793E-002	-3.87701E-002	6.94505E-001	-4.40607E-002	1.94799E-003	-1.56688E-004	1.80118E-002	1.62269E-002	-8.26886E-004	-1.15821E-003	2.07475E-002	-1.31626E-003
	195	195	1.10008E+000	2.96546E-002	0.00000E+000	3.26224E-002	2.95965E-001	3.90122E-002	4.94366E+001	11	...........	6.51075E-002	-5.32181E-003	6.02720E-001	5.43088E-001	-2.76794E-002	-3.87833E-002	6.94540E-001	-4.41900E-002	1.93074E-003	-1.57816E-004	1.78734E-002	1.61051E-002	-8.20824E-004	-1.15011E-003	2.05963E-002	-1.31044E-003
	196	196	1.09998E+000	2.95282E-002	0.00000E+000	3.24804E-002	2.94713E-001	3.89785E-002	4.94089E+001	11	...........	6.50537E-002	-5.19417E-003	6.02711E-001	5.42925E-001	-2.76860E-002	-3.87944E-002	6.94594E-001	-4.40633E-002	1.92092E-003	-1.53374E-004	1.77970E-002	1.60316E-002	-8.17517E-004	-1.14553E-003	2.05101E-002	-1.30111E-003
	197	197	1.10000E+000	2.96363E-002	0.00000E+000	3.26000E-002	2.95784E-001	3.89663E-002	4.94058E+001	11	...........	6.50297E-002	-5.25903E-003	6.02670E-001	5.42880E-001	-2.77224E-002	-3.88257E-002	6.94511E-001	-4.40024E-002	1.92724E-003	-1.55858E-004	1.78609E-002	1.60890E-002	-8.21589E-004	-1.15065E-003	2.05828E-002	-1.30407E-003
	198	198	1.10007E+000	2.94501E-002	0.00000E+000	3.23973E-002	2.93933E-001	3.89784E-002	4.93450E+001	11	...........	6.50493E-002	-5.13111E-003	6.02683E-001	5.42812E-001	-2.77258E-002	-3.88499E-002	6.94497E-001	-4.41374E-002	1.91571E-003	-1.51112E-004	1.77491E-002	1.59859E-002	-8.16528E-004	-1.14413E-003	2.04530E-002	-1.29985E-003
	199	199	1.09998E+000	2.92984E-002	0.00000E+000	3.22277E-002	2.92426E-001	3.89257E-002	4.93998E+001	11	...........	6.49632E-002	-5.26500E-003	6.02600E-001	5.42801E-001	-2.77011E-002	-3.88362E-002	6.94422E-001	-4.40446E-002	1.90332E-003	-1.54256E-004	1.76552E-002	1.59032E-002	-8.11598E-004	-1.13784E-003	2.03454E-002	-1.29044E-003
	200	200	1.10000E+000	2.94577E-002	0.00000E+000	3.24035E-002	2.94006E-001	3.89597E-002	4.94115E+001	11	...........	6.50107E-002	-5.19944E-003	6.02585E-001	5.42800E-001	-2.76731E-002	-3.88047E-002	6.94410E-001	-4.40186E-002	1.91507E-003	-1.53164E-004	1.77508E-002	1.59897E-002	-8.15186E-004	-1.14310E-003	2.04558E-002	-1.29669E-003
	201	201	1.10007E+000	2.92515E-002	0.00000E+000	3.21788E-002	2.91962E-001	3.89191E-002	4.94111E+001	11	...........	6.49565E-002	-5.14403E-003	6.02571E-001	5.42955E-001	-2.76714E-002	-3.87993E-002	6.94421E-001	-4.40829E-002	1.90007E-003	-1.50470E-004	1.76261E-002	1.58822E-002	-8.09429E-004	-1.13494E-003	2.03128E-002	-1.28949E-003
	202	202	1.09999E+000	2.90743E-002	0.00000E+000	3.19813E-002	2.90195E-001	3.88937E-002	4.92277E+001	11	...........	6.49046E-002	-5.22417E-003	6.02525E-001	5.43128E-001	-2.76503E-002	-3.87933E-002	6.94590E-001	-4.39656E-002	1.88705E-003	-1.51889E-004	1.75180E-002	1.57911E-002	-8.03912E-004	-1.12789E-003	2.01947E-002	-1.27827E-003
	203	203	1.10000E+000	2.92332E-002	0.00000E+000	3.21566E-002	2.91781E-001	3.89013E-002	4.93032E+001	11	...........	6.49242E-002	-5.19514E-003	6.02571E-001	5.43205E-001	-2.76457E-002	-3.87992E-002	6.94566E-001	-4.39965E-002	1.89794E-003	-1.51871E-004	1.76151E-002	1.58796E-002	-8.08173E-004	-1.13423E-003	2.03044E-002	-1.28616E-003
	204	204	1.10007E+000	2.90576E-002	0.00000E+000	3.19654E-002	2.90037E-001	3.88972E-002	4.93801E+001	11	...........	6.48896E-002	-5.28931E-003	6.02644E-001	5.43094E-001	-2.76315E-002	-3.87826E-002	6.94566E-001	-4.40142E-002	1.88553E-003	-1.53694E-004	1.75114E-002	1.57810E-002	-8.02905E-004	-1.12693E-003	2.01824E-002	-1.27894E-003
	205	205	1.09999E+000	2.89030E-002	0.00000E+000	3.17929E-002	2.88501E-001	3.88983E-002	4.93425E+001	11	...........	6.49003E-002	-5.31792E-003	6.02611E-001	5.42994E-001	-2.76706E-002	-3.87946E-002	6.94489E-001	-4.40286E-002	1.87581E-003	-1.53704E-004	1.74173E-002	1.56941E-002	-7.99762E-004	-1.12128E-003	2.00728E-002	-1.27256E-003
	206	206	1.10000E+000	2.90167E-002	0.00000E+000	3.19184E-002	2.89633E-001	3.88686E-002	4.71287E+001	11	...........	6.48594E-002	-5.18778E-003	6.02736E-001	5.42972E-001	-2.76925E-002	-3.88082E-002	6.94487E-001	-4.40904E-002	1.88201E-003	-1.50532E-004	1.74894E-002	1.57553E-002	-8.03545E-004	-1.12609E-003	2.01517E-002	-1.27936E-003
	207	207	1.10007E+000	2.87731E-002	0.00000E+000	3.16524E-002	2.87212E-001	3.86141E-002	4.83570E+001	11	...........	6.44369E-002	-5.18542E-003	6.02916E-001	5.42863E-001	-2.76944E-002	-3.87810E-002	6.94432E-001	-4.42751E-002	1.85405E-003	-1.49200E-004	1.73478E-002	1.56199E-002	-7.96855E-004	-1.11585E-003	1.99810E-002	-1.27393E-003
	208	208	1.09999E+000	2.86573E-002	0.00000E+000	3.15228E-002	2.86060E-001	3.88655E-002	4.92511E+001	11	...........	6.48585E-002	-5.36694E-003	6.02887E-001	5.42885E-001	-2.76889E-002	-3.87836E-002	6.94657E-001	-4.41596E-002	1.85867E-003	-1.53802E-004	1.72771E-002	1.55576E-002	-7.93489E-004	-1.11143E-003	1.99070E-002	-1.26549E-003
	209	208.325	1.10015E+000	2.89410E-002	0.00000E+000	3.18394E-002	2.88884E-001	3.88003E-002	4.94132E+001	11	...........	6.47594E-002	-5.41197E-003	6.02890E-001	5.42864E-001	-2.76350E-002	-3.88214E-002	6.94711E-001	-4.40679E-002	1.87420E-003	-1.56627E-004	1.74482E-002	1.57110E-002	-7.99785E-004	-1.12353E-003	2.01056E-002	-1.27537E-003
STARTTIMEOFFSET	QUANT	589785.7	Start Time Offset (s)
