EXPLAIN
TAG	PWR800_CHARGE
TITLE	LABEL	PWR Charge	Test Identifier
DATE	LABEL	10/15/2022	Date
TIME	LABEL	23:35:07	Time
NOTES	NOTES	1	Notes...
	
PSTAT	PSTAT	REF3000-21114	Potentiostat
CAPACITY	QUANT	5.30000E-002	Capacity (A-hr)
CELLTYPE	SELECTOR	1	Cell Type
WORKINGCONNECTION	SELECTOR	0	Working Connection
MAXCHARGETIME	VARIABLEANDUNITS	7.20000E+003	s	2.00000E+000	hour(s)	Max Charge Time
CHARGEMODE	MULTIPARAM	0	1.00000E-001	Charge Mode	Constant Current	Amp(s)
CHARGECURRENT	QUANT	0.1	Charge Current (A)
VOLTAGEFINISH	TWOPARAM	T	2.50000E-002	7.20000E+003	Voltage Finish	I (A) <	Max Time(s)
SAMPLETIME	QUANT	1.00000E+000	Sample Period (s)
CHARGESTOPAT1	MULTIPARAM	2	1.10000E+000	Stop At 1	|Voltage| > Limit	V
CHARGESTOPAT2	MULTIPARAM	0	0.00000E+000	Stop At 2	None	N/A
AESELECTOR	AESELECTOR	0x1	T	Set Limits	AE Channels
AESBHCSELECTOR	TOGGLE	F	Save Both Half Cells
IRCOMP	TOGGLE	F	IR Measure
EOC	QUANT	0.2781444	Open Circuit (V)
SEQUENCER	TOGGLE	TRUE	Run as Sequence
PSTATMODEL	IQUANT	5	Pstat Model
PSTATSECTION	LABEL	REF3000-21114	Pstat Section
PSTATSERIALNO	LABEL	21114	Pstat Serial Number
CTRLMODE	IQUANT	0	Control Mode
ELECTROMETER	IQUANT	0	RE=0 or CS=1
IESTAB	IQUANT	0	I/E Stability
CASPEED	IQUANT	4	Control Amp Speed
CONVENTION	IQUANT	1	Current Convention
ICHRANGE	IQUANT	2	Ich Range
ICHRANGEMODE	TOGGLE	T	Ich Auto Range
ICHOFFSETENABLE	TOGGLE	F	Ich Offset Enable
ICHOFFSET	QUANT	0	Ich Offset (V)
ICHFILTER	IQUANT	1	Ich Filter
VCHRANGE	IQUANT	3	Vch Range
VCHRANGEMODE	TOGGLE	T	Vch Auto Range
VCHOFFSETENABLE	TOGGLE	F	Vch Offset Enable
VCHOFFSET	QUANT	0	Vch Offset (V)
VCHFILTER	IQUANT	1	Vch Filter
ACHRANGE	IQUANT	2	Ach Range
ACHOFFSETENABLE	TOGGLE	F	Ach Offset Enable
ACHOFFSET	QUANT	0	Ach Offset (V)
ACHFILTER	IQUANT	1	Ach Filter
IERANGELOWERLIMIT	IQUANT	9	I/E Range Lower Limit
IERANGEMODE	TOGGLE	F	I/E AutoRange
IERANGE	IQUANT	9	I/E Range
POSFEEDENABLE	TOGGLE	F	Positive Feedback IR Comp
POSFEEDRESISTANCE	QUANT	0	Positive Feedback Resistance (ohm)
ACHSELECT	IQUANT	1	Ach Select
SENSECABLEID	IQUANT	13	Sense Cable ID
PWRCABLEID	IQUANT	13	Power Cable ID
DCCALDATE	LABEL		DC Calibration Date
ACCALDATE	LABEL		AC Calibration Date
THERMOSELECT	IQUANT	1	Thermo Select
FRAMEWORKVERSION	LABEL	7.8.6	Framework Version
INSTRUMENTVERSION	LABEL	4.50	Instrument Version
COMPLIANCEVOLTAGE	IQUANT	0	Compliance Voltage
CURVE	TABLE	83
	Pt	T	Vf	Im	Vu	Pwr	Sig	Ach	Temp	IERange	Over	Vf1	Vf2	Vf3	Vf4	Vf5	Vf6	Vf7	Vf8	Pwr1	Pwr2	Pwr3	Pwr4	Pwr5	Pwr6	Pwr7	Pwr8
	#	s	V	A	V	W	V	V	deg C	#	bits	V	V	V	V	V	V	V	V	W	W	W	W	W	W	W	W
	0	1	5.67003E-001	9.98668E-002	0.00000E+000	5.66248E-002	9.94000E-001	3.87122E-002	4.10286E+001	11	...........	6.41047E-002	-4.34681E-003	5.75030E-001	6.17547E-001	-2.88339E-002	-3.88487E-002	6.62248E-001	-4.31422E-002	6.40193E-003	-4.34102E-004	5.74264E-002	6.16724E-002	-2.87955E-003	-3.87970E-003	6.61366E-002	-4.30848E-003
	1	2	8.02378E-001	9.98669E-002	0.00000E+000	8.01310E-002	9.94000E-001	3.92755E-002	4.40762E+001	11	...........	6.50164E-002	-4.40347E-003	5.75139E-001	6.17313E-001	-2.88478E-002	-3.88283E-002	6.62370E-001	-4.31339E-002	6.49299E-003	-4.39761E-004	5.74373E-002	6.16492E-002	-2.88094E-003	-3.87767E-003	6.61488E-002	-4.30765E-003
	2	2.14333	1.06329E+000	9.98686E-002	0.00000E+000	1.06189E-001	9.94000E-001	4.01273E-002	4.76566E+001	11	...........	6.63614E-002	-4.46899E-003	5.75171E-001	6.17234E-001	-2.89922E-002	-3.88130E-002	6.62361E-001	-4.31424E-002	6.62742E-003	-4.46312E-004	5.74415E-002	6.16424E-002	-2.89542E-003	-3.87620E-003	6.61491E-002	-4.30858E-003
	3	3	1.10075E+000	6.53975E-002	0.00000E+000	7.19863E-002	6.51263E-001	3.90759E-002	4.97965E+001	11	...........	6.46496E-002	-4.41115E-003	5.75097E-001	6.17131E-001	-2.87664E-002	-3.88763E-002	6.62381E-001	-4.30809E-002	4.22792E-003	-2.88478E-004	3.76099E-002	4.03588E-002	-1.88125E-003	-2.54241E-003	4.33181E-002	-2.81738E-003
	4	4	1.10009E+000	4.80726E-002	0.00000E+000	5.28844E-002	4.79007E-001	3.93298E-002	4.89575E+001	11	...........	6.50760E-002	-4.39444E-003	5.75255E-001	6.17114E-001	-2.88310E-002	-3.88593E-002	6.62378E-001	-4.30226E-002	3.12837E-003	-2.11252E-004	2.76540E-002	2.96663E-002	-1.38598E-003	-1.86807E-003	3.18423E-002	-2.06821E-003
	5	5	1.10007E+000	4.30375E-002	0.00000E+000	4.73441E-002	4.28944E-001	3.90864E-002	4.72511E+001	11	...........	6.46512E-002	-4.29792E-003	5.75254E-001	6.17088E-001	-2.88349E-002	-3.88046E-002	6.62323E-001	-4.30760E-002	2.78243E-003	-1.84972E-004	2.47575E-002	2.65580E-002	-1.24098E-003	-1.67005E-003	2.85047E-002	-1.85388E-003
	6	6	1.10014E+000	4.01718E-002	0.00000E+000	4.41945E-002	4.00454E-001	3.91824E-002	4.80017E+001	11	...........	6.48478E-002	-4.20458E-003	5.75332E-001	6.17147E-001	-2.87957E-002	-3.88136E-002	6.62289E-001	-4.31057E-002	2.60505E-003	-1.68906E-004	2.31122E-002	2.47919E-002	-1.15678E-003	-1.55921E-003	2.66054E-002	-1.73163E-003
	7	7	1.10002E+000	3.82721E-002	0.00000E+000	4.21000E-002	3.81573E-001	3.91306E-002	4.72207E+001	11	...........	6.47637E-002	-4.26653E-003	5.75444E-001	6.17086E-001	-2.88447E-002	-3.88253E-002	6.62307E-001	-4.30346E-002	2.47865E-003	-1.63289E-004	2.20235E-002	2.36172E-002	-1.10395E-003	-1.48593E-003	2.53479E-002	-1.64702E-003
	8	8	1.10003E+000	3.72194E-002	0.00000E+000	4.09426E-002	3.71105E-001	3.90782E-002	4.75648E+001	11	...........	6.46662E-002	-4.26639E-003	5.75461E-001	6.17060E-001	-2.88415E-002	-3.88153E-002	6.62252E-001	-4.30074E-002	2.40684E-003	-1.58792E-004	2.14183E-002	2.29666E-002	-1.07346E-003	-1.44468E-003	2.46486E-002	-1.60071E-003
	9	9	1.10012E+000	3.61789E-002	0.00000E+000	3.98010E-002	3.60759E-001	3.91724E-002	4.65311E+001	11	...........	6.48626E-002	-4.32167E-003	5.75549E-001	6.17052E-001	-2.87990E-002	-3.88683E-002	6.62264E-001	-4.30346E-002	2.34666E-003	-1.56353E-004	2.08227E-002	2.23243E-002	-1.04192E-003	-1.40621E-003	2.39600E-002	-1.55694E-003
	10	10	1.10001E+000	3.53949E-002	0.00000E+000	3.89348E-002	3.52963E-001	3.89693E-002	4.61836E+001	11	...........	6.45053E-002	-4.32639E-003	5.75511E-001	6.16975E-001	-2.88143E-002	-3.88521E-002	6.62318E-001	-4.30594E-002	2.28316E-003	-1.53132E-004	2.03701E-002	2.18378E-002	-1.01988E-003	-1.37516E-003	2.34427E-002	-1.52408E-003
	11	11	1.10003E+000	3.51014E-002	0.00000E+000	3.86124E-002	3.50043E-001	3.90811E-002	4.66650E+001	11	...........	6.47115E-002	-4.36444E-003	5.75636E-001	6.16926E-001	-2.88369E-002	-3.88242E-002	6.62243E-001	-4.30533E-002	2.27146E-003	-1.53198E-004	2.02056E-002	2.16549E-002	-1.01222E-003	-1.36278E-003	2.32456E-002	-1.51123E-003
	12	12	1.10011E+000	3.45759E-002	0.00000E+000	3.80372E-002	3.44815E-001	3.90713E-002	4.62406E+001	11	...........	6.46515E-002	-4.30708E-003	5.75583E-001	6.16917E-001	-2.87935E-002	-3.88829E-002	6.62312E-001	-4.30542E-002	2.23538E-003	-1.48921E-004	1.99013E-002	2.13305E-002	-9.95560E-004	-1.34441E-003	2.29000E-002	-1.48864E-003
	13	13	1.10001E+000	3.41200E-002	0.00000E+000	3.75325E-002	3.40283E-001	3.90105E-002	4.60508E+001	11	...........	6.45842E-002	-4.34194E-003	5.75664E-001	6.16993E-001	-2.88179E-002	-3.88768E-002	6.62447E-001	-4.31021E-002	2.20361E-003	-1.48147E-004	1.96416E-002	2.10518E-002	-9.83267E-004	-1.32648E-003	2.26027E-002	-1.47064E-003
	14	14	1.10002E+000	3.40832E-002	0.00000E+000	3.74922E-002	3.39914E-001	3.90451E-002	4.60757E+001	11	...........	6.46147E-002	-4.32792E-003	5.75624E-001	6.17038E-001	-2.88140E-002	-3.88308E-002	6.62395E-001	-4.30561E-002	2.20228E-003	-1.47509E-004	1.96191E-002	2.10306E-002	-9.82074E-004	-1.32348E-003	2.25765E-002	-1.46749E-003
	15	15	1.10010E+000	3.37789E-002	0.00000E+000	3.71602E-002	3.36887E-001	3.90787E-002	4.72419E+001	11	...........	6.46433E-002	-4.30611E-003	5.75544E-001	6.17065E-001	-2.87831E-002	-3.88649E-002	6.62497E-001	-4.30660E-002	2.18358E-003	-1.45456E-004	1.94413E-002	2.08438E-002	-9.72261E-004	-1.31281E-003	2.23785E-002	-1.45472E-003
	16	16	1.10002E+000	3.34578E-002	0.00000E+000	3.68041E-002	3.33699E-001	3.89213E-002	4.64643E+001	11	...........	6.43722E-002	-4.24750E-003	5.75529E-001	6.16997E-001	-2.88281E-002	-3.88967E-002	6.62376E-001	-4.30515E-002	2.15375E-003	-1.42112E-004	1.92559E-002	2.06433E-002	-9.64522E-004	-1.30140E-003	2.21616E-002	-1.44041E-003
	17	17	1.10002E+000	3.34973E-002	0.00000E+000	3.68477E-002	3.34090E-001	3.91539E-002	4.66896E+001	11	...........	6.47851E-002	-4.24722E-003	5.75625E-001	6.17008E-001	-2.88292E-002	-3.88640E-002	6.62434E-001	-4.30758E-002	2.17012E-003	-1.42270E-004	1.92819E-002	2.06681E-002	-9.65698E-004	-1.30184E-003	2.21897E-002	-1.44292E-003
	18	18	1.10010E+000	3.32720E-002	0.00000E+000	3.66025E-002	3.31851E-001	3.88451E-002	4.44954E+001	11	...........	6.43176E-002	-4.29847E-003	5.75602E-001	6.17127E-001	-2.87953E-002	-3.88982E-002	6.62390E-001	-4.30504E-002	2.13998E-003	-1.43019E-004	1.91514E-002	2.05330E-002	-9.58076E-004	-1.29422E-003	2.20390E-002	-1.43237E-003
	19	19	1.10002E+000	3.29678E-002	0.00000E+000	3.62651E-002	3.28827E-001	3.88438E-002	4.65932E+001	11	...........	6.43079E-002	-4.26250E-003	5.75542E-001	6.17190E-001	-2.88417E-002	-3.88958E-002	6.62248E-001	-4.30801E-002	2.12009E-003	-1.40525E-004	1.89743E-002	2.03474E-002	-9.50846E-004	-1.28231E-003	2.18328E-002	-1.42026E-003
	20	20	1.10002E+000	3.30883E-002	0.00000E+000	3.63978E-002	3.30027E-001	3.88608E-002	4.62226E+001	11	...........	6.45907E-002	-4.34292E-003	5.75602E-001	6.17138E-001	-2.88779E-002	-3.88421E-002	6.62277E-001	-4.31142E-002	2.13720E-003	-1.43700E-004	1.90457E-002	2.04201E-002	-9.55523E-004	-1.28522E-003	2.19136E-002	-1.42658E-003
	21	21	1.10010E+000	3.29076E-002	0.00000E+000	3.62015E-002	3.28231E-001	3.86330E-002	4.64969E+001	11	...........	6.43901E-002	-4.31444E-003	5.75559E-001	6.17080E-001	-2.88612E-002	-3.88332E-002	6.62278E-001	-4.31043E-002	2.11892E-003	-1.41978E-004	1.89402E-002	2.03066E-002	-9.49754E-004	-1.27791E-003	2.17940E-002	-1.41846E-003
	22	22	1.10002E+000	3.26085E-002	0.00000E+000	3.58701E-002	3.25259E-001	3.85358E-002	4.57953E+001	11	...........	6.42271E-002	-4.31319E-003	5.75671E-001	6.17120E-001	-2.88881E-002	-3.88225E-002	6.62389E-001	-4.31186E-002	2.09435E-003	-1.40647E-004	1.87718E-002	2.01234E-002	-9.41997E-004	-1.26594E-003	2.15995E-002	-1.40603E-003
	23	23	1.10002E+000	3.27122E-002	0.00000E+000	3.59840E-002	3.26287E-001	3.86009E-002	4.52834E+001	11	...........	6.43368E-002	-4.30069E-003	5.75463E-001	6.17097E-001	-2.89046E-002	-3.87883E-002	6.62497E-001	-4.30819E-002	2.10460E-003	-1.40685E-004	1.88247E-002	2.01866E-002	-9.45534E-004	-1.26885E-003	2.16718E-002	-1.40931E-003
	24	24	1.10010E+000	3.25603E-002	0.00000E+000	3.58194E-002	3.24779E-001	3.84690E-002	4.51230E+001	11	...........	6.41188E-002	-4.24250E-003	5.75469E-001	6.17052E-001	-2.88539E-002	-3.88064E-002	6.62455E-001	-4.31406E-002	2.08772E-003	-1.38137E-004	1.87374E-002	2.00914E-002	-9.39490E-004	-1.26355E-003	2.15697E-002	-1.40467E-003
	25	25	1.10002E+000	3.22961E-002	0.00000E+000	3.55265E-002	3.22154E-001	3.86074E-002	4.69240E+001	11	...........	6.43143E-002	-4.27222E-003	5.75506E-001	6.17036E-001	-2.89008E-002	-3.88381E-002	6.62505E-001	-4.31243E-002	2.07710E-003	-1.37976E-004	1.85866E-002	1.99279E-002	-9.33384E-004	-1.25432E-003	2.13963E-002	-1.39275E-003
	26	26	1.10002E+000	3.24197E-002	0.00000E+000	3.56623E-002	3.23386E-001	3.85683E-002	4.60102E+001	11	...........	6.42929E-002	-4.26000E-003	5.75560E-001	6.17025E-001	-2.88872E-002	-3.88078E-002	6.62479E-001	-4.31472E-002	2.08436E-003	-1.38108E-004	1.86595E-002	2.00038E-002	-9.36516E-004	-1.25814E-003	2.14774E-002	-1.39882E-003
	27	27	1.10009E+000	3.22819E-002	0.00000E+000	3.55131E-002	3.22015E-001	3.85675E-002	4.61330E+001	11	...........	6.42900E-002	-4.29917E-003	5.75625E-001	6.17063E-001	-2.88574E-002	-3.88365E-002	6.62451E-001	-4.31386E-002	2.07540E-003	-1.38785E-004	1.85823E-002	1.99200E-002	-9.31571E-004	-1.25372E-003	2.13852E-002	-1.39260E-003
	28	28	1.10003E+000	3.19973E-002	0.00000E+000	3.51978E-002	3.19181E-001	3.83823E-002	4.48427E+001	11	...........	6.39533E-002	-4.29181E-003	5.75471E-001	6.17044E-001	-2.89139E-002	-3.88999E-002	6.62423E-001	-4.32972E-002	2.04633E-003	-1.37326E-004	1.84135E-002	1.97437E-002	-9.25165E-004	-1.24469E-003	2.11957E-002	-1.38539E-003
	29	29	1.10002E+000	3.21371E-002	0.00000E+000	3.53514E-002	3.20571E-001	3.85256E-002	4.50074E+001	11	...........	6.42276E-002	-4.19597E-003	5.75504E-001	6.16988E-001	-2.88986E-002	-3.88708E-002	6.62466E-001	-4.31426E-002	2.06409E-003	-1.34847E-004	1.84950E-002	1.98282E-002	-9.28719E-004	-1.24920E-003	2.12898E-002	-1.38648E-003
	30	30	1.10009E+000	3.20272E-002	0.00000E+000	3.52328E-002	3.19480E-001	3.85644E-002	4.65987E+001	11	...........	6.42826E-002	-4.15875E-003	5.75702E-001	6.16985E-001	-2.88754E-002	-3.88878E-002	6.62324E-001	-4.31831E-002	2.05879E-003	-1.33193E-004	1.84381E-002	1.97603E-002	-9.24798E-004	-1.24547E-003	2.12124E-002	-1.38303E-003
	31	31	1.10003E+000	3.17200E-002	0.00000E+000	3.48930E-002	3.16423E-001	3.82540E-002	4.60999E+001	11	...........	6.37597E-002	-4.12500E-003	5.75697E-001	6.17024E-001	-2.89061E-002	-3.89229E-002	6.62328E-001	-4.30800E-002	2.02246E-003	-1.30845E-004	1.82611E-002	1.95720E-002	-9.16902E-004	-1.23464E-003	2.10091E-002	-1.36650E-003
	32	32	1.10002E+000	3.18377E-002	0.00000E+000	3.50220E-002	3.17591E-001	3.86395E-002	4.37171E+001	11	...........	6.44210E-002	-4.22431E-003	5.75673E-001	6.17009E-001	-2.89329E-002	-3.88782E-002	6.62156E-001	-4.31422E-002	2.05101E-003	-1.34492E-004	1.83281E-002	1.96441E-002	-9.21157E-004	-1.23779E-003	2.10815E-002	-1.37355E-003
	33	33	1.10009E+000	3.17418E-002	0.00000E+000	3.49187E-002	3.16643E-001	3.82860E-002	4.41294E+001	11	...........	6.38311E-002	-4.30833E-003	5.75627E-001	6.17050E-001	-2.89281E-002	-3.88503E-002	6.62169E-001	-4.31878E-002	2.02611E-003	-1.36754E-004	1.82714E-002	1.95863E-002	-9.18229E-004	-1.23318E-003	2.10184E-002	-1.37086E-003
	34	34	1.10003E+000	3.14804E-002	0.00000E+000	3.46294E-002	3.14040E-001	3.84820E-002	4.48035E+001	11	...........	6.41353E-002	-4.36458E-003	5.75697E-001	6.17136E-001	-2.89169E-002	-3.89122E-002	6.62237E-001	-4.31522E-002	2.01900E-003	-1.37399E-004	1.81232E-002	1.94277E-002	-9.10316E-004	-1.22497E-003	2.08475E-002	-1.35845E-003
	35	35	1.10001E+000	3.16241E-002	0.00000E+000	3.47870E-002	3.15469E-001	3.84175E-002	4.43185E+001	11	...........	6.40294E-002	-4.35583E-003	5.75731E-001	6.17168E-001	-2.89226E-002	-3.88958E-002	6.62207E-001	-4.31203E-002	2.02488E-003	-1.37750E-004	1.82070E-002	1.95174E-002	-9.14654E-004	-1.23005E-003	2.09417E-002	-1.36364E-003
	36	36	1.10009E+000	3.15284E-002	0.00000E+000	3.46839E-002	3.14517E-001	3.84141E-002	4.53407E+001	11	...........	6.39931E-002	-4.28653E-003	5.75780E-001	6.17212E-001	-2.89156E-002	-3.88644E-002	6.62259E-001	-4.31303E-002	2.01760E-003	-1.35147E-004	1.81534E-002	1.94597E-002	-9.11660E-004	-1.22533E-003	2.08800E-002	-1.35983E-003
	37	37	1.10004E+000	3.12430E-002	0.00000E+000	3.43684E-002	3.11683E-001	3.84509E-002	4.49412E+001	11	...........	6.40883E-002	-4.30097E-003	5.75985E-001	6.17186E-001	-2.88640E-002	-3.89001E-002	6.62369E-001	-4.31186E-002	2.00231E-003	-1.34375E-004	1.79955E-002	1.92827E-002	-9.01798E-004	-1.21536E-003	2.06944E-002	-1.34715E-003
	38	38	1.10001E+000	3.13848E-002	0.00000E+000	3.45237E-002	3.13092E-001	3.82306E-002	4.49117E+001	11	...........	6.37406E-002	-4.34569E-003	5.76058E-001	6.17488E-001	-2.88969E-002	-3.88958E-002	6.62354E-001	-4.31176E-002	2.00048E-003	-1.36389E-004	1.80794E-002	1.93797E-002	-9.06924E-004	-1.22074E-003	2.07878E-002	-1.35324E-003
	39	39	1.10008E+000	3.13238E-002	0.00000E+000	3.44588E-002	3.12485E-001	3.85217E-002	4.67379E+001	11	...........	6.42035E-002	-4.33903E-003	5.76135E-001	6.17349E-001	-2.89036E-002	-3.88506E-002	6.62386E-001	-4.31587E-002	2.01110E-003	-1.35915E-004	1.80467E-002	1.93377E-002	-9.05371E-004	-1.21695E-003	2.07485E-002	-1.35190E-003
	40	40	1.10004E+000	3.10316E-002	0.00000E+000	3.41360E-002	3.09581E-001	3.84152E-002	4.56037E+001	11	...........	6.40144E-002	-4.36556E-003	5.76021E-001	6.17260E-001	-2.88987E-002	-3.88558E-002	6.62209E-001	-4.30965E-002	1.98647E-003	-1.35470E-004	1.78748E-002	1.91546E-002	-8.96774E-004	-1.20576E-003	2.05494E-002	-1.33735E-003
	41	41	1.10001E+000	3.11631E-002	0.00000E+000	3.42797E-002	3.10889E-001	3.82168E-002	4.50133E+001	11	...........	6.36913E-002	-4.27847E-003	5.76024E-001	6.17198E-001	-2.89072E-002	-3.88810E-002	6.62173E-001	-4.30828E-002	1.98481E-003	-1.33330E-004	1.79507E-002	1.92338E-002	-9.00837E-004	-1.21165E-003	2.06353E-002	-1.34259E-003
	42	42	1.10008E+000	3.10921E-002	0.00000E+000	3.42039E-002	3.10181E-001	3.84050E-002	4.52471E+001	11	...........	6.40172E-002	-4.25250E-003	5.75873E-001	6.17238E-001	-2.89222E-002	-3.88683E-002	6.62269E-001	-4.30407E-002	1.99043E-003	-1.32219E-004	1.79051E-002	1.91912E-002	-8.99252E-004	-1.20850E-003	2.05913E-002	-1.33823E-003
	43	43	1.10004E+000	3.07901E-002	0.00000E+000	3.38704E-002	3.07177E-001	3.83362E-002	4.49195E+001	11	...........	6.38949E-002	-4.22903E-003	5.75752E-001	6.17363E-001	-2.89271E-002	-3.88590E-002	6.62311E-001	-4.30835E-002	1.96733E-003	-1.30212E-004	1.77274E-002	1.90087E-002	-8.90667E-004	-1.19647E-003	2.03926E-002	-1.32654E-003
	44	44	1.10001E+000	3.09544E-002	0.00000E+000	3.40502E-002	3.08815E-001	3.83000E-002	4.56467E+001	11	...........	6.38207E-002	-4.21722E-003	5.75806E-001	6.17211E-001	-2.88565E-002	-3.88762E-002	6.62348E-001	-4.30436E-002	1.97553E-003	-1.30542E-004	1.78238E-002	1.91054E-002	-8.93237E-004	-1.20339E-003	2.05026E-002	-1.33239E-003
	45	45	1.10008E+000	3.08783E-002	0.00000E+000	3.39685E-002	3.08059E-001	3.83567E-002	4.65211E+001	11	...........	6.39208E-002	-4.20958E-003	5.75963E-001	6.17440E-001	-2.89161E-002	-3.88829E-002	6.62338E-001	-4.30521E-002	1.97376E-003	-1.29985E-004	1.77847E-002	1.90655E-002	-8.92880E-004	-1.20064E-003	2.04519E-002	-1.32937E-003
	46	46	1.10004E+000	3.05354E-002	0.00000E+000	3.35903E-002	3.04649E-001	3.81545E-002	4.42909E+001	11	...........	6.36042E-002	-4.18833E-003	5.76060E-001	6.17725E-001	-2.89107E-002	-3.88932E-002	6.62281E-001	-4.31514E-002	1.94218E-003	-1.27892E-004	1.75902E-002	1.88625E-002	-8.82800E-004	-1.18762E-003	2.02230E-002	-1.31765E-003
	47	47	1.10001E+000	3.07364E-002	0.00000E+000	3.38104E-002	3.06649E-001	3.81325E-002	4.49322E+001	11	...........	6.35468E-002	-4.19625E-003	5.76040E-001	6.17711E-001	-2.88754E-002	-3.88832E-002	6.62409E-001	-4.31697E-002	1.95320E-003	-1.28978E-004	1.77054E-002	1.89862E-002	-8.87527E-004	-1.19513E-003	2.03601E-002	-1.32688E-003
	48	48	1.10008E+000	3.06697E-002	0.00000E+000	3.37391E-002	3.05983E-001	3.82646E-002	4.62704E+001	11	...........	6.38017E-002	-4.30069E-003	5.76136E-001	6.17681E-001	-2.88458E-002	-3.89329E-002	6.62508E-001	-4.31460E-002	1.95678E-003	-1.31901E-004	1.76699E-002	1.89441E-002	-8.84693E-004	-1.19406E-003	2.03189E-002	-1.32327E-003
	49	49	1.10005E+000	3.03507E-002	0.00000E+000	3.33872E-002	3.02813E-001	3.82019E-002	4.41877E+001	11	...........	6.36949E-002	-4.23792E-003	5.76142E-001	6.17812E-001	-2.89001E-002	-3.88885E-002	6.62594E-001	-4.31986E-002	1.93318E-003	-1.28624E-004	1.74863E-002	1.87510E-002	-8.77138E-004	-1.18029E-003	2.01102E-002	-1.31111E-003
	50	50	1.10001E+000	3.04834E-002	0.00000E+000	3.35321E-002	3.04129E-001	3.82288E-002	4.47338E+001	11	...........	6.37372E-002	-4.09111E-003	5.76071E-001	6.17809E-001	-2.89058E-002	-3.88626E-002	6.62373E-001	-4.31508E-002	1.94293E-003	-1.24711E-004	1.75606E-002	1.88329E-002	-8.81148E-004	-1.18467E-003	2.01914E-002	-1.31538E-003
	51	51	1.10007E+000	3.04389E-002	0.00000E+000	3.34851E-002	3.03686E-001	3.80471E-002	4.36776E+001	11	...........	6.34264E-002	-4.20542E-003	5.76164E-001	6.17681E-001	-2.88747E-002	-3.88476E-002	6.62436E-001	-4.31540E-002	1.93063E-003	-1.28008E-004	1.75378E-002	1.88015E-002	-8.78915E-004	-1.18248E-003	2.01638E-002	-1.31356E-003
	52	52	1.10005E+000	3.01526E-002	0.00000E+000	3.31694E-002	3.00841E-001	3.82825E-002	4.52604E+001	11	...........	6.38047E-002	-4.32903E-003	5.76105E-001	6.17624E-001	-2.88683E-002	-3.88746E-002	6.62423E-001	-4.31562E-002	1.92388E-003	-1.30531E-004	1.73711E-002	1.86229E-002	-8.70455E-004	-1.17217E-003	1.99738E-002	-1.30127E-003
	53	53	1.10001E+000	3.02657E-002	0.00000E+000	3.32926E-002	3.01963E-001	3.81141E-002	4.47672E+001	11	...........	6.35108E-002	-4.34639E-003	5.76020E-001	6.17691E-001	-2.88854E-002	-3.88533E-002	6.62441E-001	-4.31831E-002	1.92220E-003	-1.31547E-004	1.74337E-002	1.86949E-002	-8.74238E-004	-1.17592E-003	2.00492E-002	-1.30697E-003
	54	54	1.10007E+000	3.02457E-002	0.00000E+000	3.32725E-002	3.01767E-001	3.80857E-002	4.50252E+001	11	...........	6.35000E-002	-4.33639E-003	5.75891E-001	6.17713E-001	-2.88710E-002	-3.88343E-002	6.62292E-001	-4.31472E-002	1.92060E-003	-1.31157E-004	1.74182E-002	1.86832E-002	-8.73224E-004	-1.17457E-003	2.00315E-002	-1.30502E-003
	55	55	1.10005E+000	2.99310E-002	0.00000E+000	3.29257E-002	2.98640E-001	3.82574E-002	4.59326E+001	11	...........	6.37982E-002	-4.30931E-003	5.76091E-001	6.17524E-001	-2.88264E-002	-3.88726E-002	6.62361E-001	-4.30794E-002	1.90954E-003	-1.28982E-004	1.72430E-002	1.84831E-002	-8.62803E-004	-1.16350E-003	1.98251E-002	-1.28941E-003
	56	56	1.10001E+000	3.00612E-002	0.00000E+000	3.30676E-002	2.99934E-001	3.80582E-002	4.59480E+001	11	...........	6.34267E-002	-4.12319E-003	5.76187E-001	6.17479E-001	-2.88862E-002	-3.88679E-002	6.62296E-001	-4.30908E-002	1.90668E-003	-1.23948E-004	1.73209E-002	1.85621E-002	-8.68355E-004	-1.16842E-003	1.99094E-002	-1.29536E-003
	57	57	1.10007E+000	3.00011E-002	0.00000E+000	3.30033E-002	2.99343E-001	3.81374E-002	4.29172E+001	11	...........	6.35600E-002	-4.15861E-003	5.76278E-001	6.17580E-001	-2.88583E-002	-3.88172E-002	6.62208E-001	-4.30511E-002	1.90687E-003	-1.24763E-004	1.72890E-002	1.85281E-002	-8.65781E-004	-1.16456E-003	1.98670E-002	-1.29158E-003
	58	58	1.10006E+000	2.97396E-002	0.00000E+000	3.27152E-002	2.96742E-001	3.82177E-002	4.59107E+001	11	...........	6.37012E-002	-4.19111E-003	5.76232E-001	6.17411E-001	-2.88017E-002	-3.88351E-002	6.62264E-001	-4.30781E-002	1.89445E-003	-1.24642E-004	1.71369E-002	1.83615E-002	-8.56549E-004	-1.15494E-003	1.96954E-002	-1.28112E-003
	59	59	1.10001E+000	2.98483E-002	0.00000E+000	3.28333E-002	2.97822E-001	3.79972E-002	4.57949E+001	11	...........	6.33624E-002	-4.34417E-003	5.76191E-001	6.17632E-001	-2.88479E-002	-3.88619E-002	6.62298E-001	-4.30596E-002	1.89126E-003	-1.29666E-004	1.71983E-002	1.84353E-002	-8.61061E-004	-1.15996E-003	1.97685E-002	-1.28526E-003
	60	60	1.10007E+000	2.98158E-002	0.00000E+000	3.27994E-002	2.97496E-001	3.80312E-002	4.53411E+001	11	...........	6.33906E-002	-4.31917E-003	5.76140E-001	6.17710E-001	-2.88437E-002	-3.88083E-002	6.62292E-001	-4.30317E-002	1.89004E-003	-1.28779E-004	1.71781E-002	1.84175E-002	-8.60000E-004	-1.15710E-003	1.97468E-002	-1.28302E-003
	61	61	1.10006E+000	2.95262E-002	0.00000E+000	3.24806E-002	2.94619E-001	3.81853E-002	4.60246E+001	11	...........	6.36437E-002	-4.27486E-003	5.76042E-001	6.17647E-001	-2.87881E-002	-3.88321E-002	6.62335E-001	-4.30892E-002	1.87916E-003	-1.26220E-004	1.70083E-002	1.82367E-002	-8.50001E-004	-1.14656E-003	1.95562E-002	-1.27226E-003
	62	62	1.10001E+000	2.96193E-002	0.00000E+000	3.25815E-002	2.95543E-001	3.76215E-002	4.45069E+001	11	...........	6.32792E-002	-4.23167E-003	5.75971E-001	6.17372E-001	-2.88476E-002	-3.88364E-002	6.62496E-001	-4.31694E-002	1.87428E-003	-1.25339E-004	1.70598E-002	1.82861E-002	-8.54446E-004	-1.15031E-003	1.96227E-002	-1.27865E-003
	63	63	1.10006E+000	2.96104E-002	0.00000E+000	3.25733E-002	2.95455E-001	3.79893E-002	4.52878E+001	11	...........	6.33412E-002	-4.16361E-003	5.75876E-001	6.17419E-001	-2.88383E-002	-3.87954E-002	6.62392E-001	-4.32397E-002	1.87556E-003	-1.23286E-004	1.70519E-002	1.82820E-002	-8.53915E-004	-1.14875E-003	1.96137E-002	-1.28035E-003
	64	64	1.10006E+000	2.93339E-002	0.00000E+000	3.22692E-002	2.92707E-001	3.81106E-002	4.58797E+001	11	...........	6.35261E-002	-4.28444E-003	5.75804E-001	6.17577E-001	-2.87674E-002	-3.88350E-002	6.62357E-001	-4.31574E-002	1.86347E-003	-1.25680E-004	1.68906E-002	1.81160E-002	-8.43859E-004	-1.13918E-003	1.94295E-002	-1.26597E-003
	65	65	1.10001E+000	2.94385E-002	0.00000E+000	3.23826E-002	2.93751E-001	3.81492E-002	4.57319E+001	11	...........	6.35840E-002	-4.30028E-003	5.76014E-001	6.17621E-001	-2.88071E-002	-3.88378E-002	6.62493E-001	-4.31365E-002	1.87182E-003	-1.26594E-004	1.69570E-002	1.81819E-002	-8.48038E-004	-1.14333E-003	1.95028E-002	-1.26988E-003
	66	66	1.10006E+000	2.94290E-002	0.00000E+000	3.23738E-002	2.93654E-001	3.78899E-002	4.56171E+001	11	...........	6.31781E-002	-4.29500E-003	5.76165E-001	6.17486E-001	-2.88044E-002	-3.88017E-002	6.62371E-001	-4.32176E-002	1.85927E-003	-1.26398E-004	1.69560E-002	1.81720E-002	-8.47687E-004	-1.14190E-003	1.94929E-002	-1.27185E-003
	67	67	1.10007E+000	2.91032E-002	0.00000E+000	3.20155E-002	2.90415E-001	3.79657E-002	4.56771E+001	11	...........	6.33065E-002	-4.32181E-003	5.76238E-001	6.17505E-001	-2.87500E-002	-3.88403E-002	6.62550E-001	-4.31336E-002	1.84242E-003	-1.25778E-004	1.67704E-002	1.79714E-002	-8.36716E-004	-1.13038E-003	1.92823E-002	-1.25533E-003
	68	68	1.10000E+000	2.92141E-002	0.00000E+000	3.21356E-002	2.91517E-001	3.79886E-002	4.46494E+001	11	...........	6.33187E-002	-4.31028E-003	5.76389E-001	6.17594E-001	-2.88087E-002	-3.88381E-002	6.62437E-001	-4.31381E-002	1.84980E-003	-1.25921E-004	1.68387E-002	1.80425E-002	-8.41622E-004	-1.13462E-003	1.93525E-002	-1.26024E-003
	69	69	1.10006E+000	2.92216E-002	0.00000E+000	3.21455E-002	2.91589E-001	3.79717E-002	4.64289E+001	11	...........	6.32821E-002	-4.25028E-003	5.76426E-001	6.17553E-001	-2.88126E-002	-3.88221E-002	6.62516E-001	-4.31254E-002	1.84920E-003	-1.24200E-004	1.68441E-002	1.80459E-002	-8.41950E-004	-1.13444E-003	1.93598E-002	-1.26019E-003
	70	70	1.10007E+000	2.89176E-002	0.00000E+000	3.18114E-002	2.88571E-001	3.80811E-002	4.49502E+001	11	...........	6.34696E-002	-4.32944E-003	5.76398E-001	6.17602E-001	-2.87650E-002	-3.88571E-002	6.62542E-001	-4.31317E-002	1.83539E-003	-1.25197E-004	1.66681E-002	1.78596E-002	-8.31816E-004	-1.12365E-003	1.91591E-002	-1.24727E-003
	71	71	1.10000E+000	2.90211E-002	0.00000E+000	3.19233E-002	2.89601E-001	3.76430E-002	4.48697E+001	11	...........	6.27531E-002	-4.31056E-003	5.76467E-001	6.17615E-001	-2.88064E-002	-3.88785E-002	6.62572E-001	-4.31151E-002	1.82116E-003	-1.25097E-004	1.67297E-002	1.79239E-002	-8.35994E-004	-1.12830E-003	1.92286E-002	-1.25125E-003
	72	72	1.10006E+000	2.90328E-002	0.00000E+000	3.19377E-002	2.89714E-001	3.81057E-002	4.52931E+001	11	...........	6.35243E-002	-4.29333E-003	5.76482E-001	6.17519E-001	-2.88083E-002	-3.88508E-002	6.62636E-001	-4.30758E-002	1.84429E-003	-1.24647E-004	1.67369E-002	1.79283E-002	-8.36385E-004	-1.12795E-003	1.92382E-002	-1.25061E-003
	73	73	1.10007E+000	2.87482E-002	0.00000E+000	3.16251E-002	2.86891E-001	3.80170E-002	4.53159E+001	11	...........	6.33707E-002	-4.23292E-003	5.76321E-001	6.17636E-001	-2.87978E-002	-3.88612E-002	6.62494E-001	-4.32215E-002	1.82179E-003	-1.21689E-004	1.65682E-002	1.77559E-002	-8.27883E-004	-1.11719E-003	1.90455E-002	-1.24254E-003
	74	74	1.10000E+000	2.88163E-002	0.00000E+000	3.16980E-002	2.87566E-001	3.77467E-002	4.47619E+001	11	...........	6.29264E-002	-4.16639E-003	5.76229E-001	6.17671E-001	-2.88475E-002	-3.88876E-002	6.62524E-001	-4.33294E-002	1.81331E-003	-1.20060E-004	1.66048E-002	1.77990E-002	-8.31279E-004	-1.12060E-003	1.90915E-002	-1.24859E-003
	75	75	1.10006E+000	2.88180E-002	0.00000E+000	3.17014E-002	2.87583E-001	3.77072E-002	4.50974E+001	11	...........	6.28699E-002	-4.20375E-003	5.76060E-001	6.17793E-001	-2.88619E-002	-3.88508E-002	6.62584E-001	-4.32706E-002	1.81178E-003	-1.21144E-004	1.66009E-002	1.78035E-002	-8.31742E-004	-1.11960E-003	1.90943E-002	-1.24697E-003
	76	76	1.10008E+000	2.85635E-002	0.00000E+000	3.14220E-002	2.85051E-001	3.80564E-002	4.58863E+001	11	...........	6.34299E-002	-4.32125E-003	5.76065E-001	6.17826E-001	-2.88374E-002	-3.88631E-002	6.62524E-001	-4.31112E-002	1.81178E-003	-1.23430E-004	1.64544E-002	1.76473E-002	-8.23696E-004	-1.11007E-003	1.89240E-002	-1.23141E-003
	77	77	1.10000E+000	2.86500E-002	0.00000E+000	3.15151E-002	2.85914E-001	3.79548E-002	4.60351E+001	11	...........	6.32512E-002	-4.31903E-003	5.76053E-001	6.17829E-001	-2.88524E-002	-3.89172E-002	6.62597E-001	-4.31165E-002	1.81215E-003	-1.23740E-004	1.65039E-002	1.77008E-002	-8.26621E-004	-1.11498E-003	1.89834E-002	-1.23529E-003
	78	78	1.10005E+000	2.86383E-002	0.00000E+000	3.15037E-002	2.85802E-001	3.77177E-002	4.53086E+001	11	...........	6.28531E-002	-4.34125E-003	5.76069E-001	6.17868E-001	-2.88514E-002	-3.89053E-002	6.62564E-001	-4.30290E-002	1.80001E-003	-1.24326E-004	1.64977E-002	1.76947E-002	-8.26256E-004	-1.11418E-003	1.89747E-002	-1.23228E-003
	79	79	1.10008E+000	2.83464E-002	0.00000E+000	3.11833E-002	2.82901E-001	3.78492E-002	4.41749E+001	11	...........	6.30842E-002	-4.35250E-003	5.76081E-001	6.17974E-001	-2.88257E-002	-3.89207E-002	6.62627E-001	-4.30693E-002	1.78821E-003	-1.23378E-004	1.63298E-002	1.75173E-002	-8.17104E-004	-1.10326E-003	1.87831E-002	-1.22086E-003
	80	80	1.10000E+000	2.84603E-002	0.00000E+000	3.13063E-002	2.84032E-001	3.78801E-002	4.57269E+001	11	...........	6.31542E-002	-4.34181E-003	5.75992E-001	6.18075E-001	-2.88447E-002	-3.89274E-002	6.62662E-001	-4.30872E-002	1.79739E-003	-1.23569E-004	1.63929E-002	1.75906E-002	-8.20929E-004	-1.10788E-003	1.88595E-002	-1.22627E-003
	81	81	1.10005E+000	2.84690E-002	0.00000E+000	3.13174E-002	2.84114E-001	3.76242E-002	4.60823E+001	11	...........	6.27192E-002	-4.29278E-003	5.75910E-001	6.17907E-001	-2.88350E-002	-3.88875E-002	6.62686E-001	-4.30650E-002	1.78555E-003	-1.22211E-004	1.63956E-002	1.75912E-002	-8.20904E-004	-1.10709E-003	1.88660E-002	-1.22602E-003
	82	81.7917	1.10010E+000	2.81527E-002	0.00000E+000	3.09708E-002	2.80968E-001	3.80562E-002	4.40661E+001	11	...........	6.34407E-002	-4.28825E-003	5.75808E-001	6.17771E-001	-2.87595E-002	-3.89088E-002	6.62626E-001	-4.31149E-002	1.78603E-003	-1.20726E-004	1.62106E-002	1.73919E-002	-8.09657E-004	-1.09539E-003	1.86547E-002	-1.21380E-003
STARTTIMEOFFSET	QUANT	789839.8	Start Time Offset (s)
