EXPLAIN
TAG	PWR800_CHARGE
TITLE	LABEL	PWR Charge	Test Identifier
DATE	LABEL	10/16/2022	Date
TIME	LABEL	0:38:37	Time
NOTES	NOTES	1	Notes...
	
PSTAT	PSTAT	REF3000-21114	Potentiostat
CAPACITY	QUANT	5.30000E-002	Capacity (A-hr)
CELLTYPE	SELECTOR	1	Cell Type
WORKINGCONNECTION	SELECTOR	0	Working Connection
MAXCHARGETIME	VARIABLEANDUNITS	7.20000E+003	s	2.00000E+000	hour(s)	Max Charge Time
CHARGEMODE	MULTIPARAM	0	1.00000E-001	Charge Mode	Constant Current	Amp(s)
CHARGECURRENT	QUANT	0.1	Charge Current (A)
VOLTAGEFINISH	TWOPARAM	T	2.50000E-002	7.20000E+003	Voltage Finish	I (A) <	Max Time(s)
SAMPLETIME	QUANT	1.00000E+000	Sample Period (s)
CHARGESTOPAT1	MULTIPARAM	2	1.10000E+000	Stop At 1	|Voltage| > Limit	V
CHARGESTOPAT2	MULTIPARAM	0	0.00000E+000	Stop At 2	None	N/A
AESELECTOR	AESELECTOR	0x1	T	Set Limits	AE Channels
AESBHCSELECTOR	TOGGLE	F	Save Both Half Cells
IRCOMP	TOGGLE	F	IR Measure
EOC	QUANT	0.2776213	Open Circuit (V)
SEQUENCER	TOGGLE	TRUE	Run as Sequence
PSTATMODEL	IQUANT	5	Pstat Model
PSTATSECTION	LABEL	REF3000-21114	Pstat Section
PSTATSERIALNO	LABEL	21114	Pstat Serial Number
CTRLMODE	IQUANT	0	Control Mode
ELECTROMETER	IQUANT	0	RE=0 or CS=1
IESTAB	IQUANT	0	I/E Stability
CASPEED	IQUANT	4	Control Amp Speed
CONVENTION	IQUANT	1	Current Convention
ICHRANGE	IQUANT	2	Ich Range
ICHRANGEMODE	TOGGLE	T	Ich Auto Range
ICHOFFSETENABLE	TOGGLE	F	Ich Offset Enable
ICHOFFSET	QUANT	0	Ich Offset (V)
ICHFILTER	IQUANT	1	Ich Filter
VCHRANGE	IQUANT	3	Vch Range
VCHRANGEMODE	TOGGLE	T	Vch Auto Range
VCHOFFSETENABLE	TOGGLE	F	Vch Offset Enable
VCHOFFSET	QUANT	0	Vch Offset (V)
VCHFILTER	IQUANT	1	Vch Filter
ACHRANGE	IQUANT	2	Ach Range
ACHOFFSETENABLE	TOGGLE	F	Ach Offset Enable
ACHOFFSET	QUANT	0	Ach Offset (V)
ACHFILTER	IQUANT	1	Ach Filter
IERANGELOWERLIMIT	IQUANT	9	I/E Range Lower Limit
IERANGEMODE	TOGGLE	F	I/E AutoRange
IERANGE	IQUANT	9	I/E Range
POSFEEDENABLE	TOGGLE	F	Positive Feedback IR Comp
POSFEEDRESISTANCE	QUANT	0	Positive Feedback Resistance (ohm)
ACHSELECT	IQUANT	1	Ach Select
SENSECABLEID	IQUANT	13	Sense Cable ID
PWRCABLEID	IQUANT	13	Power Cable ID
DCCALDATE	LABEL		DC Calibration Date
ACCALDATE	LABEL		AC Calibration Date
THERMOSELECT	IQUANT	1	Thermo Select
FRAMEWORKVERSION	LABEL	7.8.6	Framework Version
INSTRUMENTVERSION	LABEL	4.50	Instrument Version
COMPLIANCEVOLTAGE	IQUANT	0	Compliance Voltage
CURVE	TABLE	79
	Pt	T	Vf	Im	Vu	Pwr	Sig	Ach	Temp	IERange	Over	Vf1	Vf2	Vf3	Vf4	Vf5	Vf6	Vf7	Vf8	Pwr1	Pwr2	Pwr3	Pwr4	Pwr5	Pwr6	Pwr7	Pwr8
	#	s	V	A	V	W	V	V	deg C	#	bits	V	V	V	V	V	V	V	V	W	W	W	W	W	W	W	W
	0	1	5.67568E-001	9.98657E-002	0.00000E+000	5.66805E-002	9.94000E-001	3.84361E-002	4.12852E+001	11	...........	6.38318E-002	-4.42875E-003	5.75920E-001	6.16454E-001	-2.88885E-002	-3.88903E-002	6.62438E-001	-4.32140E-002	6.37461E-003	-4.42280E-004	5.75146E-002	6.15626E-002	-2.88497E-003	-3.88380E-003	6.61548E-002	-4.31560E-003
	1	2	8.07276E-001	9.98666E-002	0.00000E+000	8.06199E-002	9.94000E-001	3.91928E-002	4.43940E+001	11	...........	6.51171E-002	-4.40819E-003	5.76036E-001	6.16226E-001	-2.88733E-002	-3.89053E-002	6.62452E-001	-4.32233E-002	6.50302E-003	-4.40231E-004	5.75267E-002	6.15404E-002	-2.88348E-003	-3.88534E-003	6.61568E-002	-4.31657E-003
	2	2.13167	1.06947E+000	9.98670E-002	0.00000E+000	1.06804E-001	9.94000E-001	3.96684E-002	4.72978E+001	11	...........	6.59356E-002	-4.46730E-003	5.76122E-001	6.15836E-001	-2.89451E-002	-3.89040E-002	6.62535E-001	-4.32669E-002	6.58480E-003	-4.46136E-004	5.75356E-002	6.15017E-002	-2.89067E-003	-3.88523E-003	6.61654E-002	-4.32093E-003
	3	3	1.10116E+000	6.47741E-002	0.00000E+000	7.13265E-002	6.45072E-001	3.89103E-002	4.82225E+001	11	...........	6.46339E-002	-4.49200E-003	5.76104E-001	6.15776E-001	-2.88741E-002	-3.88797E-002	6.62473E-001	-4.32302E-002	4.18660E-003	-2.90966E-004	3.73167E-002	3.98864E-002	-1.87030E-003	-2.51840E-003	4.29111E-002	-2.80020E-003
	4	4	1.10063E+000	4.80229E-002	0.00000E+000	5.28554E-002	4.78518E-001	3.90833E-002	4.84984E+001	11	...........	6.49211E-002	-4.32556E-003	5.76229E-001	6.15877E-001	-2.88910E-002	-3.88708E-002	6.62332E-001	-4.32078E-002	3.11770E-003	-2.07726E-004	2.76722E-002	2.95762E-002	-1.38743E-003	-1.86669E-003	3.18071E-002	-2.07496E-003
	5	5	1.10066E+000	4.26698E-002	0.00000E+000	4.69650E-002	4.25293E-001	3.87019E-002	4.70208E+001	11	...........	6.42547E-002	-4.22417E-003	5.76223E-001	6.15848E-001	-2.88894E-002	-3.88481E-002	6.62329E-001	-4.32446E-002	2.74173E-003	-1.80244E-004	2.45873E-002	2.62781E-002	-1.23271E-003	-1.65764E-003	2.82614E-002	-1.84524E-003
	6	6	1.10055E+000	3.98501E-002	0.00000E+000	4.38569E-002	3.97263E-001	3.90330E-002	4.71418E+001	11	...........	6.48139E-002	-4.12292E-003	5.76138E-001	6.15668E-001	-2.88656E-002	-3.88689E-002	6.62367E-001	-4.32250E-002	2.58284E-003	-1.64298E-004	2.29591E-002	2.45344E-002	-1.15029E-003	-1.54893E-003	2.63954E-002	-1.72252E-003
	7	7	1.10056E+000	3.82618E-002	0.00000E+000	4.21093E-002	3.81476E-001	3.89728E-002	4.72528E+001	11	...........	6.47414E-002	-4.17792E-003	5.76034E-001	6.15731E-001	-2.88612E-002	-3.88942E-002	6.62391E-001	-4.32287E-002	2.47712E-003	-1.59854E-004	2.20401E-002	2.35589E-002	-1.10428E-003	-1.48816E-003	2.53442E-002	-1.65401E-003
	8	8	1.10063E+000	3.68677E-002	0.00000E+000	4.05777E-002	3.67614E-001	3.90324E-002	4.82327E+001	11	...........	6.48368E-002	-4.04903E-003	5.75992E-001	6.15964E-001	-2.88583E-002	-3.88787E-002	6.62439E-001	-4.32990E-002	2.39038E-003	-1.49278E-004	2.12355E-002	2.27092E-002	-1.06394E-003	-1.43337E-003	2.44226E-002	-1.59633E-003
	9	9	1.10054E+000	3.57973E-002	0.00000E+000	3.93963E-002	3.56967E-001	3.86648E-002	4.46980E+001	11	...........	6.42161E-002	-4.04667E-003	5.75968E-001	6.15905E-001	-2.88546E-002	-3.88804E-002	6.62380E-001	-4.32650E-002	2.29876E-003	-1.44860E-004	2.06181E-002	2.20477E-002	-1.03292E-003	-1.39181E-003	2.37114E-002	-1.54877E-003
	10	10	1.10055E+000	3.53512E-002	0.00000E+000	3.89056E-002	3.52529E-001	3.89451E-002	4.64214E+001	11	...........	6.46643E-002	-4.04944E-003	5.75936E-001	6.16095E-001	-2.88458E-002	-3.88550E-002	6.62415E-001	-4.32821E-002	2.28596E-003	-1.43153E-004	2.03600E-002	2.17797E-002	-1.01974E-003	-1.37357E-003	2.34172E-002	-1.53007E-003
	11	11	1.10062E+000	3.47621E-002	0.00000E+000	3.82599E-002	3.46676E-001	3.90886E-002	4.69500E+001	11	...........	6.49379E-002	-4.12333E-003	5.76019E-001	6.16273E-001	-2.88394E-002	-3.88864E-002	6.62494E-001	-4.33504E-002	2.25738E-003	-1.43336E-004	2.00236E-002	2.14229E-002	-1.00252E-003	-1.35177E-003	2.30297E-002	-1.50695E-003
	12	12	1.10054E+000	3.41631E-002	0.00000E+000	3.75977E-002	3.40717E-001	3.87497E-002	4.73585E+001	11	...........	6.43524E-002	-4.07681E-003	5.76021E-001	6.16374E-001	-2.88297E-002	-3.88693E-002	6.62506E-001	-4.33587E-002	2.19847E-003	-1.39276E-004	1.96786E-002	2.10572E-002	-9.84911E-004	-1.32789E-003	2.26332E-002	-1.48127E-003
	13	13	1.10054E+000	3.40884E-002	0.00000E+000	3.75157E-002	3.39973E-001	3.88645E-002	4.58443E+001	11	...........	6.45564E-002	-4.08694E-003	5.76156E-001	6.16503E-001	-2.88562E-002	-3.88643E-002	6.62476E-001	-4.33187E-002	2.20062E-003	-1.39317E-004	1.96402E-002	2.10156E-002	-9.83663E-004	-1.32482E-003	2.25828E-002	-1.47667E-003
	14	14	1.10062E+000	3.37403E-002	0.00000E+000	3.71351E-002	3.36514E-001	3.86142E-002	4.48249E+001	11	...........	6.41425E-002	-4.02778E-003	5.76031E-001	6.16476E-001	-2.88267E-002	-3.88543E-002	6.62414E-001	-4.32387E-002	2.16419E-003	-1.35898E-004	1.94355E-002	2.08001E-002	-9.72621E-004	-1.31096E-003	2.23500E-002	-1.45889E-003
	15	15	1.10054E+000	3.34014E-002	0.00000E+000	3.67595E-002	3.33147E-001	3.89947E-002	4.61278E+001	11	...........	6.47606E-002	-4.08847E-003	5.76159E-001	6.16327E-001	-2.88289E-002	-3.88224E-002	6.62422E-001	-4.31936E-002	2.16309E-003	-1.36560E-004	1.92445E-002	2.05861E-002	-9.62924E-004	-1.29672E-003	2.21258E-002	-1.44272E-003
	16	16	1.10054E+000	3.33850E-002	0.00000E+000	3.67416E-002	3.32983E-001	3.86166E-002	4.68073E+001	11	...........	6.42751E-002	-4.16847E-003	5.76193E-001	6.16236E-001	-2.88128E-002	-3.88290E-002	6.62440E-001	-4.31864E-002	2.14583E-003	-1.39165E-004	1.92362E-002	2.05731E-002	-9.61916E-004	-1.29631E-003	2.21156E-002	-1.44178E-003
	17	17	1.10061E+000	3.31445E-002	0.00000E+000	3.64793E-002	3.30594E-001	3.88027E-002	4.69041E+001	11	...........	6.44496E-002	-4.18375E-003	5.76087E-001	6.16166E-001	-2.88146E-002	-3.88472E-002	6.62572E-001	-4.30660E-002	2.13615E-003	-1.38668E-004	1.90941E-002	2.04225E-002	-9.55045E-004	-1.28757E-003	2.19606E-002	-1.42740E-003
	18	18	1.10054E+000	3.28211E-002	0.00000E+000	3.61209E-002	3.27377E-001	3.88412E-002	4.42291E+001	11	...........	6.45194E-002	-4.15833E-003	5.76117E-001	6.16384E-001	-2.88425E-002	-3.88633E-002	6.62581E-001	-4.31428E-002	2.11760E-003	-1.36481E-004	1.89088E-002	2.02304E-002	-9.46643E-004	-1.27554E-003	2.17466E-002	-1.41599E-003
	19	19	1.10054E+000	3.29257E-002	0.00000E+000	3.62360E-002	3.28415E-001	3.86328E-002	4.66235E+001	11	...........	6.41528E-002	-4.19792E-003	5.76061E-001	6.16398E-001	-2.88687E-002	-3.88512E-002	6.62693E-001	-4.31362E-002	2.11227E-003	-1.38219E-004	1.89672E-002	2.02953E-002	-9.50523E-004	-1.27920E-003	2.18196E-002	-1.42029E-003
	20	20	1.10061E+000	3.27521E-002	0.00000E+000	3.60472E-002	3.26689E-001	3.84958E-002	4.58683E+001	11	...........	6.41471E-002	-4.23097E-003	5.76126E-001	6.16370E-001	-2.88840E-002	-3.88493E-002	6.62948E-001	-4.31811E-002	2.10095E-003	-1.38573E-004	1.88693E-002	2.01874E-002	-9.46012E-004	-1.27240E-003	2.17129E-002	-1.41427E-003
	21	21	1.10054E+000	3.24716E-002	0.00000E+000	3.57364E-002	3.23899E-001	3.85353E-002	4.52445E+001	11	...........	6.43478E-002	-4.20236E-003	5.76110E-001	6.16405E-001	-2.89008E-002	-3.88867E-002	6.63050E-001	-4.31489E-002	2.08947E-003	-1.36457E-004	1.87072E-002	2.00156E-002	-9.38456E-004	-1.26271E-003	2.15303E-002	-1.40111E-003
	22	22	1.10054E+000	3.25410E-002	0.00000E+000	3.58126E-002	3.24594E-001	3.85465E-002	4.63673E+001	11	...........	6.43872E-002	-4.21514E-003	5.76196E-001	6.16258E-001	-2.89218E-002	-3.88899E-002	6.62957E-001	-4.32150E-002	2.09522E-003	-1.37165E-004	1.87500E-002	2.00536E-002	-9.41144E-004	-1.26551E-003	2.15733E-002	-1.40626E-003
	23	23	1.10061E+000	3.23806E-002	0.00000E+000	3.56383E-002	3.23000E-001	3.81801E-002	4.45414E+001	11	...........	6.37501E-002	-4.24944E-003	5.76086E-001	6.16293E-001	-2.89076E-002	-3.88967E-002	6.62882E-001	-4.32218E-002	2.06427E-003	-1.37600E-004	1.86540E-002	1.99560E-002	-9.36047E-004	-1.25950E-003	2.14645E-002	-1.39955E-003
	24	24	1.10055E+000	3.21269E-002	0.00000E+000	3.53572E-002	3.20477E-001	3.86378E-002	4.49427E+001	11	...........	6.45230E-002	-4.13250E-003	5.76032E-001	6.16369E-001	-2.89294E-002	-3.88943E-002	6.62751E-001	-4.30976E-002	2.07293E-003	-1.32765E-004	1.85061E-002	1.98021E-002	-9.29414E-004	-1.24955E-003	2.12921E-002	-1.38459E-003
	25	25	1.10054E+000	3.22555E-002	0.00000E+000	3.54984E-002	3.21750E-001	3.84858E-002	4.54750E+001	11	...........	6.42622E-002	-4.15528E-003	5.76061E-001	6.16284E-001	-2.89246E-002	-3.89106E-002	6.62714E-001	-4.31417E-002	2.07281E-003	-1.34031E-004	1.85812E-002	1.98786E-002	-9.32978E-004	-1.25508E-003	2.13762E-002	-1.39156E-003
	26	26	1.10060E+000	3.20771E-002	0.00000E+000	3.53042E-002	3.19977E-001	3.83877E-002	4.68643E+001	11	...........	6.40810E-002	-4.19792E-003	5.76086E-001	6.16406E-001	-2.89396E-002	-3.89169E-002	6.62734E-001	-4.31343E-002	2.05553E-003	-1.34657E-004	1.84791E-002	1.97725E-002	-9.28297E-004	-1.24834E-003	2.12586E-002	-1.38362E-003
	27	27	1.10055E+000	3.17908E-002	0.00000E+000	3.49873E-002	3.17132E-001	3.83670E-002	4.38985E+001	11	...........	6.40606E-002	-4.13833E-003	5.76026E-001	6.16542E-001	-2.89417E-002	-3.89085E-002	6.62653E-001	-4.31672E-002	2.03654E-003	-1.31561E-004	1.83123E-002	1.96004E-002	-9.20080E-004	-1.23693E-003	2.10663E-002	-1.37232E-003
	28	28	1.10054E+000	3.19845E-002	0.00000E+000	3.52001E-002	3.19058E-001	3.85669E-002	4.47880E+001	11	...........	6.43940E-002	-4.13014E-003	5.75942E-001	6.16372E-001	-2.89522E-002	-3.88619E-002	6.62622E-001	-4.32524E-002	2.05961E-003	-1.32100E-004	1.84212E-002	1.97143E-002	-9.26022E-004	-1.24298E-003	2.11936E-002	-1.38340E-003
	29	29	1.10060E+000	3.18081E-002	0.00000E+000	3.50081E-002	3.17303E-001	3.81671E-002	4.55560E+001	11	...........	6.37272E-002	-4.07486E-003	5.75990E-001	6.16307E-001	-2.89117E-002	-3.88744E-002	6.62634E-001	-4.32529E-002	2.02704E-003	-1.29614E-004	1.83211E-002	1.96036E-002	-9.19625E-004	-1.23652E-003	2.10771E-002	-1.37579E-003
	30	30	1.10055E+000	3.15520E-002	0.00000E+000	3.47245E-002	3.14759E-001	3.83435E-002	4.47145E+001	11	...........	6.40374E-002	-4.16569E-003	5.76082E-001	6.16352E-001	-2.88576E-002	-3.88428E-002	6.62623E-001	-4.32437E-002	2.02051E-003	-1.31436E-004	1.81765E-002	1.94471E-002	-9.10515E-004	-1.22557E-003	2.09071E-002	-1.36443E-003
	31	31	1.10054E+000	3.17021E-002	0.00000E+000	3.48894E-002	3.16252E-001	3.83859E-002	4.61429E+001	11	...........	6.41079E-002	-4.22639E-003	5.76099E-001	6.16375E-001	-2.88775E-002	-3.88342E-002	6.62562E-001	-4.32589E-002	2.03236E-003	-1.33986E-004	1.82636E-002	1.95404E-002	-9.15478E-004	-1.23113E-003	2.10046E-002	-1.37140E-003
	32	32	1.10060E+000	3.15987E-002	0.00000E+000	3.47776E-002	3.15224E-001	3.83789E-002	4.56919E+001	11	...........	6.40933E-002	-4.18681E-003	5.76293E-001	6.16479E-001	-2.89239E-002	-3.88421E-002	6.62618E-001	-4.32728E-002	2.02527E-003	-1.32298E-004	1.82101E-002	1.94799E-002	-9.13957E-004	-1.22736E-003	2.09379E-002	-1.36736E-003
	33	33	1.10055E+000	3.13126E-002	0.00000E+000	3.44612E-002	3.12379E-001	3.82013E-002	4.52503E+001	11	...........	6.37906E-002	-4.10431E-003	5.76121E-001	6.16372E-001	-2.89381E-002	-3.88454E-002	6.62742E-001	-4.33043E-002	1.99745E-003	-1.28517E-004	1.80399E-002	1.93002E-002	-9.06127E-004	-1.21635E-003	2.07522E-002	-1.35597E-003
	34	34	1.10054E+000	3.14197E-002	0.00000E+000	3.45785E-002	3.13441E-001	3.82073E-002	4.51025E+001	11	...........	6.37946E-002	-4.03014E-003	5.76003E-001	6.16247E-001	-2.89235E-002	-3.88451E-002	6.62739E-001	-4.33831E-002	2.00440E-003	-1.26626E-004	1.80978E-002	1.93623E-002	-9.08765E-004	-1.22050E-003	2.08230E-002	-1.36308E-003
	35	35	1.10060E+000	3.13582E-002	0.00000E+000	3.45129E-002	3.12833E-001	3.84324E-002	4.38477E+001	11	...........	6.41608E-002	-4.07819E-003	5.76057E-001	6.16354E-001	-2.89244E-002	-3.88540E-002	6.62704E-001	-4.33200E-002	2.01197E-003	-1.27885E-004	1.80642E-002	1.93278E-002	-9.07020E-004	-1.21839E-003	2.07812E-002	-1.35844E-003
	36	36	1.10055E+000	3.10745E-002	0.00000E+000	3.41991E-002	3.10009E-001	3.81339E-002	4.61281E+001	11	...........	6.36436E-002	-4.08611E-003	5.76074E-001	6.16314E-001	-2.89135E-002	-3.88315E-002	6.62619E-001	-4.32344E-002	1.97769E-003	-1.26974E-004	1.79012E-002	1.91516E-002	-8.98471E-004	-1.20667E-003	2.05905E-002	-1.34349E-003
	37	37	1.10053E+000	3.12328E-002	0.00000E+000	3.43728E-002	3.11579E-001	3.83095E-002	4.45361E+001	11	...........	6.39817E-002	-4.12806E-003	5.75945E-001	6.16063E-001	-2.89156E-002	-3.88356E-002	6.62606E-001	-4.32101E-002	1.99833E-003	-1.28931E-004	1.79884E-002	1.92414E-002	-9.03114E-004	-1.21294E-003	2.06951E-002	-1.34957E-003
	38	38	1.10060E+000	3.11085E-002	0.00000E+000	3.42380E-002	3.10346E-001	3.81633E-002	4.36541E+001	11	...........	6.37112E-002	-4.16028E-003	5.75756E-001	6.16122E-001	-2.89564E-002	-3.88337E-002	6.62465E-001	-4.32631E-002	1.98196E-003	-1.29420E-004	1.79109E-002	1.91666E-002	-9.00789E-004	-1.20806E-003	2.06083E-002	-1.34585E-003
	39	39	1.10056E+000	3.08384E-002	0.00000E+000	3.39395E-002	3.07669E-001	3.81837E-002	4.49833E+001	11	...........	6.37387E-002	-4.13653E-003	5.75795E-001	6.16243E-001	-2.89775E-002	-3.88278E-002	6.62483E-001	-4.32611E-002	1.96560E-003	-1.27564E-004	1.77566E-002	1.90040E-002	-8.93620E-004	-1.19739E-003	2.04299E-002	-1.33410E-003
	40	40	1.10053E+000	3.09899E-002	0.00000E+000	3.41055E-002	3.09172E-001	3.81825E-002	4.49002E+001	11	...........	6.37436E-002	-4.19861E-003	5.75737E-001	6.16318E-001	-2.89454E-002	-3.88146E-002	6.62444E-001	-4.32347E-002	1.97541E-003	-1.30115E-004	1.78420E-002	1.90997E-002	-8.97017E-004	-1.20286E-003	2.05291E-002	-1.33984E-003
	41	41	1.10060E+000	3.09102E-002	0.00000E+000	3.40197E-002	3.08377E-001	3.81867E-002	4.46264E+001	11	...........	6.37719E-002	-4.23625E-003	5.75600E-001	6.16395E-001	-2.89090E-002	-3.88158E-002	6.62515E-001	-4.32517E-002	1.97120E-003	-1.30943E-004	1.77919E-002	1.90529E-002	-8.93585E-004	-1.19981E-003	2.04785E-002	-1.33692E-003
	42	42	1.10056E+000	3.06126E-002	0.00000E+000	3.36910E-002	3.05420E-001	3.80369E-002	4.42974E+001	11	...........	6.34982E-002	-4.18556E-003	5.75853E-001	6.16289E-001	-2.89410E-002	-3.88275E-002	6.62576E-001	-4.33033E-002	1.94384E-003	-1.28131E-004	1.76283E-002	1.88662E-002	-8.85957E-004	-1.18861E-003	2.02831E-002	-1.32563E-003
	43	43	1.10053E+000	3.07685E-002	0.00000E+000	3.38617E-002	3.06966E-001	3.82602E-002	4.59401E+001	11	...........	6.38883E-002	-4.04208E-003	5.75946E-001	6.16202E-001	-2.89617E-002	-3.88146E-002	6.62612E-001	-4.33335E-002	1.96575E-003	-1.24369E-004	1.77210E-002	1.89596E-002	-8.91106E-004	-1.19426E-003	2.03875E-002	-1.33330E-003
	44	44	1.10059E+000	3.06791E-002	0.00000E+000	3.37653E-002	3.06080E-001	3.80208E-002	4.53921E+001	11	...........	6.34932E-002	-4.05986E-003	5.76052E-001	6.16199E-001	-2.89693E-002	-3.88383E-002	6.62569E-001	-4.32264E-002	1.94792E-003	-1.24553E-004	1.76728E-002	1.89045E-002	-8.88753E-004	-1.19153E-003	2.03270E-002	-1.32615E-003
	45	45	1.10057E+000	3.03706E-002	0.00000E+000	3.34249E-002	3.03011E-001	3.82696E-002	4.52975E+001	11	...........	6.38999E-002	-4.09681E-003	5.76014E-001	6.16082E-001	-2.89103E-002	-3.88350E-002	6.62620E-001	-4.33215E-002	1.94068E-003	-1.24423E-004	1.74939E-002	1.87108E-002	-8.78023E-004	-1.17944E-003	2.01242E-002	-1.31570E-003
	46	46	1.10053E+000	3.05031E-002	0.00000E+000	3.35697E-002	3.04329E-001	3.80209E-002	4.39574E+001	11	...........	6.34606E-002	-4.13444E-003	5.75892E-001	6.16104E-001	-2.88732E-002	-3.88304E-002	6.62600E-001	-4.32971E-002	1.93575E-003	-1.26113E-004	1.75665E-002	1.87931E-002	-8.80723E-004	-1.18445E-003	2.02114E-002	-1.32070E-003
	47	47	1.10059E+000	3.04775E-002	0.00000E+000	3.35433E-002	3.04078E-001	3.80633E-002	4.55496E+001	11	...........	6.35412E-002	-4.05583E-003	5.75866E-001	6.16027E-001	-2.89325E-002	-3.88426E-002	6.62543E-001	-4.32435E-002	1.93658E-003	-1.23612E-004	1.75510E-002	1.87750E-002	-8.81791E-004	-1.18383E-003	2.01927E-002	-1.31795E-003
	48	48	1.10057E+000	3.01899E-002	0.00000E+000	3.32260E-002	3.01219E-001	3.82029E-002	4.55925E+001	11	...........	6.37887E-002	-4.04278E-003	5.75916E-001	6.15773E-001	-2.89197E-002	-3.88419E-002	6.62514E-001	-4.32215E-002	1.92578E-003	-1.22051E-004	1.73869E-002	1.85902E-002	-8.73084E-004	-1.17264E-003	2.00013E-002	-1.30485E-003
	49	49	1.10053E+000	3.03005E-002	0.00000E+000	3.33466E-002	3.02316E-001	3.78818E-002	4.55760E+001	11	...........	6.32300E-002	-4.10139E-003	5.75739E-001	6.15841E-001	-2.89406E-002	-3.88035E-002	6.62567E-001	-4.32436E-002	1.91590E-003	-1.24274E-004	1.74452E-002	1.86603E-002	-8.76912E-004	-1.17576E-003	2.00761E-002	-1.31030E-003
	50	50	1.10059E+000	3.02774E-002	0.00000E+000	3.33229E-002	3.02088E-001	3.82541E-002	4.52450E+001	11	...........	6.38814E-002	-4.08681E-003	5.75938E-001	6.15955E-001	-2.88899E-002	-3.87908E-002	6.62526E-001	-4.31478E-002	1.93416E-003	-1.23738E-004	1.74379E-002	1.86495E-002	-8.74709E-004	-1.17448E-003	2.00595E-002	-1.30640E-003
	51	51	1.10057E+000	2.99420E-002	0.00000E+000	3.29533E-002	2.98751E-001	3.77297E-002	4.42317E+001	11	...........	6.29651E-002	-4.04833E-003	5.75901E-001	6.15901E-001	-2.88317E-002	-3.87968E-002	6.62457E-001	-4.32040E-002	1.88530E-003	-1.21215E-004	1.72436E-002	1.84413E-002	-8.63277E-004	-1.16165E-003	1.98353E-002	-1.29361E-003
	52	52	1.10053E+000	3.01157E-002	0.00000E+000	3.31433E-002	3.00480E-001	3.83529E-002	4.62268E+001	11	...........	6.40322E-002	-4.06194E-003	5.76018E-001	6.15677E-001	-2.88736E-002	-3.88151E-002	6.62372E-001	-4.32571E-002	1.92838E-003	-1.22328E-004	1.73472E-002	1.85416E-002	-8.69550E-004	-1.16895E-003	1.99478E-002	-1.30272E-003
	53	53	1.10059E+000	3.00693E-002	0.00000E+000	3.30940E-002	3.00021E-001	3.81098E-002	4.56347E+001	11	...........	6.36186E-002	-4.00875E-003	5.76041E-001	6.15733E-001	-2.89151E-002	-3.88475E-002	6.62523E-001	-4.32964E-002	1.91297E-003	-1.20541E-004	1.73212E-002	1.85147E-002	-8.69459E-004	-1.16812E-003	1.99216E-002	-1.30189E-003
	54	54	1.10057E+000	2.97271E-002	0.00000E+000	3.27169E-002	2.96618E-001	3.78978E-002	4.46920E+001	11	...........	6.32603E-002	-3.96667E-003	5.75909E-001	6.15756E-001	-2.88961E-002	-3.88132E-002	6.62577E-001	-4.32635E-002	1.88055E-003	-1.17918E-004	1.71201E-002	1.83047E-002	-8.58999E-004	-1.15380E-003	1.96965E-002	-1.28610E-003
	55	55	1.10053E+000	2.98553E-002	0.00000E+000	3.28567E-002	2.97894E-001	3.79479E-002	4.40556E+001	11	...........	6.33304E-002	-4.07500E-003	5.75995E-001	6.15676E-001	-2.88783E-002	-3.88539E-002	6.62514E-001	-4.33218E-002	1.89075E-003	-1.21661E-004	1.71965E-002	1.83812E-002	-8.62172E-004	-1.16000E-003	1.97796E-002	-1.29339E-003
	56	56	1.10058E+000	2.98742E-002	0.00000E+000	3.28791E-002	2.98081E-001	3.82137E-002	4.56529E+001	11	...........	6.38221E-002	-4.14125E-003	5.76030E-001	6.15646E-001	-2.88347E-002	-3.88657E-002	6.62570E-001	-4.33301E-002	1.90663E-003	-1.23716E-004	1.72084E-002	1.83919E-002	-8.61414E-004	-1.16108E-003	1.97937E-002	-1.29445E-003
	57	57	1.10058E+000	2.95509E-002	0.00000E+000	3.25230E-002	2.94869E-001	3.77286E-002	4.57378E+001	11	...........	6.29647E-002	-4.15708E-003	5.76038E-001	6.15525E-001	-2.88278E-002	-3.88760E-002	6.62577E-001	-4.33247E-002	1.86066E-003	-1.22845E-004	1.70224E-002	1.81893E-002	-8.51886E-004	-1.14882E-003	1.95797E-002	-1.28028E-003
	58	58	1.10053E+000	2.96623E-002	0.00000E+000	3.26442E-002	2.95979E-001	3.80299E-002	4.53927E+001	11	...........	6.34874E-002	-4.09264E-003	5.76081E-001	6.15415E-001	-2.88875E-002	-3.88785E-002	6.62662E-001	-4.32829E-002	1.88318E-003	-1.21397E-004	1.70879E-002	1.82547E-002	-8.56871E-004	-1.15323E-003	1.96561E-002	-1.28387E-003
	59	59	1.10058E+000	2.96557E-002	0.00000E+000	3.26386E-002	2.95913E-001	3.80735E-002	4.53177E+001	11	...........	6.35682E-002	-4.13264E-003	5.75949E-001	6.15450E-001	-2.89214E-002	-3.88551E-002	6.62683E-001	-4.33324E-002	1.88516E-003	-1.22556E-004	1.70802E-002	1.82516E-002	-8.57684E-004	-1.15228E-003	1.96523E-002	-1.28505E-003
	60	60	1.10058E+000	2.93107E-002	0.00000E+000	3.22587E-002	2.92484E-001	3.78260E-002	4.40550E+001	11	...........	6.31593E-002	-4.11764E-003	5.75959E-001	6.15563E-001	-2.89512E-002	-3.88078E-002	6.62592E-001	-4.33511E-002	1.85124E-003	-1.20691E-004	1.68818E-002	1.80426E-002	-8.48581E-004	-1.13748E-003	1.94210E-002	-1.27065E-003
	61	61	1.10053E+000	2.94805E-002	0.00000E+000	3.24440E-002	2.94171E-001	3.78032E-002	4.52659E+001	11	...........	6.30856E-002	-4.09403E-003	5.75826E-001	6.15674E-001	-2.89543E-002	-3.87981E-002	6.62386E-001	-4.32286E-002	1.85979E-003	-1.20694E-004	1.69756E-002	1.81504E-002	-8.53586E-004	-1.14378E-003	1.95274E-002	-1.27440E-003
	62	62	1.10058E+000	2.94444E-002	0.00000E+000	3.24059E-002	2.93812E-001	3.79714E-002	4.57965E+001	11	...........	6.34124E-002	-4.16264E-003	5.75888E-001	6.15487E-001	-2.89807E-002	-3.87885E-002	6.62438E-001	-4.32597E-002	1.86714E-003	-1.22567E-004	1.69567E-002	1.81227E-002	-8.53320E-004	-1.14210E-003	1.95051E-002	-1.27376E-003
	63	63	1.10058E+000	2.91233E-002	0.00000E+000	3.20526E-002	2.90620E-001	3.79661E-002	4.52040E+001	11	...........	6.33614E-002	-4.24319E-003	5.75857E-001	6.15433E-001	-2.89668E-002	-3.87935E-002	6.62404E-001	-4.32158E-002	1.84529E-003	-1.23576E-004	1.67708E-002	1.79234E-002	-8.43608E-004	-1.12979E-003	1.92914E-002	-1.25859E-003
	64	64	1.10053E+000	2.92509E-002	0.00000E+000	3.21914E-002	2.91889E-001	3.78928E-002	4.56503E+001	11	...........	6.32625E-002	-4.17097E-003	5.75685E-001	6.15527E-001	-2.89387E-002	-3.88049E-002	6.62377E-001	-4.32608E-002	1.85049E-003	-1.22005E-004	1.68393E-002	1.80047E-002	-8.46485E-004	-1.13508E-003	1.93751E-002	-1.26542E-003
	65	65	1.10058E+000	2.92422E-002	0.00000E+000	3.21834E-002	2.91803E-001	3.79563E-002	4.49682E+001	11	...........	6.33615E-002	-4.17083E-003	5.75928E-001	6.15580E-001	-2.88833E-002	-3.88229E-002	6.62327E-001	-4.33196E-002	1.85283E-003	-1.21965E-004	1.68414E-002	1.80010E-002	-8.44613E-004	-1.13527E-003	1.93679E-002	-1.26676E-003
	66	66	1.10059E+000	2.89349E-002	0.00000E+000	3.18453E-002	2.88750E-001	3.77958E-002	4.23072E+001	11	...........	6.30900E-002	-4.19403E-003	5.76028E-001	6.15523E-001	-2.88889E-002	-3.88007E-002	6.62363E-001	-4.32672E-002	1.82550E-003	-1.21354E-004	1.66673E-002	1.78101E-002	-8.35896E-004	-1.12269E-003	1.91654E-002	-1.25193E-003
	67	67	1.10052E+000	2.90452E-002	0.00000E+000	3.19650E-002	2.89842E-001	3.77155E-002	4.51119E+001	11	...........	6.29697E-002	-4.13306E-003	5.75960E-001	6.15520E-001	-2.89153E-002	-3.88143E-002	6.62489E-001	-4.32119E-002	1.82897E-003	-1.20046E-004	1.67289E-002	1.78779E-002	-8.39851E-004	-1.12737E-003	1.92422E-002	-1.25510E-003
	68	68	1.10058E+000	2.90611E-002	0.00000E+000	3.19840E-002	2.90002E-001	3.80617E-002	4.46490E+001	11	...........	6.35228E-002	-4.17250E-003	5.76046E-001	6.15421E-001	-2.89399E-002	-3.88043E-002	6.62494E-001	-4.31296E-002	1.84604E-003	-1.21258E-004	1.67405E-002	1.78848E-002	-8.41025E-004	-1.12770E-003	1.92528E-002	-1.25339E-003
	69	69	1.10059E+000	2.87443E-002	0.00000E+000	3.16357E-002	2.86853E-001	3.79614E-002	4.48063E+001	11	...........	6.33708E-002	-4.08611E-003	5.75853E-001	6.15500E-001	-2.89578E-002	-3.88112E-002	6.62353E-001	-4.30240E-002	1.82155E-003	-1.17453E-004	1.65525E-002	1.76922E-002	-8.32372E-004	-1.11560E-003	1.90389E-002	-1.23670E-003
	70	70	1.10053E+000	2.88269E-002	0.00000E+000	3.17248E-002	2.87675E-001	3.77668E-002	4.54898E+001	11	...........	6.30339E-002	-4.10653E-003	5.75669E-001	6.15708E-001	-2.89474E-002	-3.88240E-002	6.62396E-001	-4.31142E-002	1.81707E-003	-1.18378E-004	1.65947E-002	1.77489E-002	-8.34463E-004	-1.11918E-003	1.90948E-002	-1.24285E-003
	71	71	1.10057E+000	2.88363E-002	0.00000E+000	3.17364E-002	2.87771E-001	3.79217E-002	4.45897E+001	11	...........	6.32972E-002	-4.18694E-003	5.75315E-001	6.15694E-001	-2.89392E-002	-3.88222E-002	6.62358E-001	-4.32153E-002	1.82526E-003	-1.20736E-004	1.65899E-002	1.77543E-002	-8.34498E-004	-1.11949E-003	1.91000E-002	-1.24617E-003
	72	72	1.10059E+000	2.85546E-002	0.00000E+000	3.14269E-002	2.84971E-001	3.77450E-002	4.40424E+001	11	...........	6.30065E-002	-4.10472E-003	5.75131E-001	6.15674E-001	-2.89349E-002	-3.88333E-002	6.62372E-001	-4.32464E-002	1.79912E-003	-1.17209E-004	1.64226E-002	1.75803E-002	-8.26223E-004	-1.10887E-003	1.89137E-002	-1.23488E-003
	73	73	1.10052E+000	2.86413E-002	0.00000E+000	3.15205E-002	2.85834E-001	3.79041E-002	4.53953E+001	11	...........	6.32661E-002	-4.07333E-003	5.75253E-001	6.15589E-001	-2.89317E-002	-3.88239E-002	6.62522E-001	-4.32875E-002	1.81202E-003	-1.16666E-004	1.64760E-002	1.76313E-002	-8.28641E-004	-1.11197E-003	1.89755E-002	-1.23981E-003
	74	74	1.10057E+000	2.86543E-002	0.00000E+000	3.15361E-002	2.85962E-001	3.76043E-002	4.50857E+001	11	...........	6.27565E-002	-4.19944E-003	5.75264E-001	6.15506E-001	-2.89104E-002	-3.88289E-002	6.62511E-001	-4.33319E-002	1.79824E-003	-1.20332E-004	1.64838E-002	1.76369E-002	-8.28408E-004	-1.11261E-003	1.89838E-002	-1.24165E-003
	75	75	1.10059E+000	2.83534E-002	0.00000E+000	3.12056E-002	2.82970E-001	3.79865E-002	4.52428E+001	11	...........	6.34251E-002	-4.21958E-003	5.75250E-001	6.15600E-001	-2.88846E-002	-3.88149E-002	6.62552E-001	-4.32431E-002	1.79832E-003	-1.19640E-004	1.63103E-002	1.74544E-002	-8.18977E-004	-1.10053E-003	1.87856E-002	-1.22609E-003
	76	76	1.10052E+000	2.84193E-002	0.00000E+000	3.12761E-002	2.83627E-001	3.76066E-002	4.28108E+001	11	...........	6.27871E-002	-4.19250E-003	5.75136E-001	6.15586E-001	-2.88742E-002	-3.88304E-002	6.62637E-001	-4.31258E-002	1.78436E-003	-1.19148E-004	1.63449E-002	1.74945E-002	-8.20582E-004	-1.10353E-003	1.88316E-002	-1.22560E-003
	77	77	1.10057E+000	2.84962E-002	0.00000E+000	3.13621E-002	2.84392E-001	3.80040E-002	4.49697E+001	11	...........	6.34532E-002	-4.23208E-003	5.75139E-001	6.15576E-001	-2.88965E-002	-3.88401E-002	6.62622E-001	-4.32111E-002	1.80818E-003	-1.20598E-004	1.63893E-002	1.75416E-002	-8.23442E-004	-1.10680E-003	1.88822E-002	-1.23135E-003
	78	77.4233	1.10066E+000	2.81338E-002	0.00000E+000	3.09658E-002	2.80786E-001	3.78315E-002	4.46837E+001	11	...........	6.31414E-002	-4.14173E-003	5.75213E-001	6.15855E-001	-2.89721E-002	-3.88501E-002	6.62617E-001	-4.32208E-002	1.77641E-003	-1.16523E-004	1.61829E-002	1.73263E-002	-8.15095E-004	-1.09300E-003	1.86419E-002	-1.21596E-003
STARTTIMEOFFSET	QUANT	793649.3	Start Time Offset (s)
