EXPLAIN
TAG	PWR800_CHARGE
TITLE	LABEL	PWR Charge	Test Identifier
DATE	LABEL	10/18/2022	Date
TIME	LABEL	10:28:51	Time
NOTES	NOTES	1	Notes...
	
PSTAT	PSTAT	REF3000-21114	Potentiostat
CAPACITY	QUANT	5.30000E-002	Capacity (A-hr)
CELLTYPE	SELECTOR	1	Cell Type
WORKINGCONNECTION	SELECTOR	0	Working Connection
MAXCHARGETIME	VARIABLEANDUNITS	7.20000E+003	s	2.00000E+000	hour(s)	Max Charge Time
CHARGEMODE	MULTIPARAM	0	1.00000E-001	Charge Mode	Constant Current	Amp(s)
CHARGECURRENT	QUANT	0.1	Charge Current (A)
VOLTAGEFINISH	TWOPARAM	T	2.50000E-002	7.20000E+003	Voltage Finish	I (A) <	Max Time(s)
SAMPLETIME	QUANT	1.00000E+000	Sample Period (s)
CHARGESTOPAT1	MULTIPARAM	2	1.10000E+000	Stop At 1	|Voltage| > Limit	V
CHARGESTOPAT2	MULTIPARAM	0	0.00000E+000	Stop At 2	None	N/A
AESELECTOR	AESELECTOR	0x1	T	Set Limits	AE Channels
AESBHCSELECTOR	TOGGLE	F	Save Both Half Cells
IRCOMP	TOGGLE	F	IR Measure
EOC	QUANT	0.2549458	Open Circuit (V)
SEQUENCER	TOGGLE	TRUE	Run as Sequence
PSTATMODEL	IQUANT	5	Pstat Model
PSTATSECTION	LABEL	REF3000-21114	Pstat Section
PSTATSERIALNO	LABEL	21114	Pstat Serial Number
CTRLMODE	IQUANT	0	Control Mode
ELECTROMETER	IQUANT	0	RE=0 or CS=1
IESTAB	IQUANT	0	I/E Stability
CASPEED	IQUANT	4	Control Amp Speed
CONVENTION	IQUANT	1	Current Convention
ICHRANGE	IQUANT	2	Ich Range
ICHRANGEMODE	TOGGLE	T	Ich Auto Range
ICHOFFSETENABLE	TOGGLE	F	Ich Offset Enable
ICHOFFSET	QUANT	0	Ich Offset (V)
ICHFILTER	IQUANT	1	Ich Filter
VCHRANGE	IQUANT	3	Vch Range
VCHRANGEMODE	TOGGLE	T	Vch Auto Range
VCHOFFSETENABLE	TOGGLE	F	Vch Offset Enable
VCHOFFSET	QUANT	0	Vch Offset (V)
VCHFILTER	IQUANT	1	Vch Filter
ACHRANGE	IQUANT	2	Ach Range
ACHOFFSETENABLE	TOGGLE	F	Ach Offset Enable
ACHOFFSET	QUANT	0	Ach Offset (V)
ACHFILTER	IQUANT	1	Ach Filter
IERANGELOWERLIMIT	IQUANT	9	I/E Range Lower Limit
IERANGEMODE	TOGGLE	F	I/E AutoRange
IERANGE	IQUANT	9	I/E Range
POSFEEDENABLE	TOGGLE	F	Positive Feedback IR Comp
POSFEEDRESISTANCE	QUANT	0	Positive Feedback Resistance (ohm)
ACHSELECT	IQUANT	1	Ach Select
SENSECABLEID	IQUANT	13	Sense Cable ID
PWRCABLEID	IQUANT	13	Power Cable ID
DCCALDATE	LABEL		DC Calibration Date
ACCALDATE	LABEL		AC Calibration Date
THERMOSELECT	IQUANT	1	Thermo Select
FRAMEWORKVERSION	LABEL	7.8.6	Framework Version
INSTRUMENTVERSION	LABEL	4.50	Instrument Version
COMPLIANCEVOLTAGE	IQUANT	0	Compliance Voltage
CURVE	TABLE	50
	Pt	T	Vf	Im	Vu	Pwr	Sig	Ach	Temp	IERange	Over	Vf1	Vf2	Vf3	Vf4	Vf5	Vf6	Vf7	Vf8	Pwr1	Pwr2	Pwr3	Pwr4	Pwr5	Pwr6	Pwr7	Pwr8
	#	s	V	A	V	W	V	V	deg C	#	bits	V	V	V	V	V	V	V	V	W	W	W	W	W	W	W	W
	0	1	5.51324E-001	9.98632E-002	0.00000E+000	5.50569E-002	9.94000E-001	3.69443E-002	3.91845E+001	11	...........	6.15790E-002	-5.44778E-003	6.07336E-001	5.27311E-001	-2.68614E-002	-3.81750E-002	7.04252E-001	-4.40868E-002	6.14948E-003	-5.44033E-004	6.06505E-002	5.26590E-002	-2.68246E-003	-3.81228E-003	7.03289E-002	-4.40265E-003
	1	2	7.83121E-001	9.98646E-002	0.00000E+000	7.82061E-002	9.94000E-001	3.74652E-002	4.19127E+001	11	...........	6.24144E-002	-5.43792E-003	6.07236E-001	5.27418E-001	-2.67889E-002	-3.80978E-002	7.04379E-001	-4.40301E-002	6.23299E-003	-5.43055E-004	6.06414E-002	5.26704E-002	-2.67526E-003	-3.80462E-003	7.03425E-002	-4.39705E-003
	2	2.19833	1.04545E+000	9.98658E-002	0.00000E+000	1.04405E-001	9.94000E-001	3.82147E-002	4.65816E+001	11	...........	6.36891E-002	-5.38725E-003	6.07370E-001	5.27445E-001	-2.67661E-002	-3.80546E-002	7.04578E-001	-4.40007E-002	6.36036E-003	-5.38002E-004	6.06555E-002	5.26737E-002	-2.67302E-003	-3.80035E-003	7.03633E-002	-4.39416E-003
	3	3	1.10080E+000	6.61891E-002	0.00000E+000	7.28611E-002	6.59170E-001	3.77320E-002	4.71460E+001	11	...........	6.28699E-002	-5.45807E-003	6.07342E-001	5.27295E-001	-2.68983E-002	-3.82370E-002	7.04293E-001	-4.41280E-002	4.16130E-003	-3.61265E-004	4.01994E-002	3.49012E-002	-1.78037E-003	-2.53087E-003	4.66165E-002	-2.92079E-003
	4	4	1.10023E+000	4.71096E-002	0.00000E+000	5.18315E-002	4.69474E-001	3.76297E-002	4.48005E+001	11	...........	6.27058E-002	-5.35917E-003	6.07348E-001	5.27219E-001	-2.68893E-002	-3.82601E-002	7.04243E-001	-4.42019E-002	2.95405E-003	-2.52468E-004	2.86119E-002	2.48371E-002	-1.26674E-003	-1.80242E-003	3.31766E-002	-2.08234E-003
	5	5	1.10022E+000	4.09803E-002	0.00000E+000	4.50875E-002	4.08532E-001	3.73962E-002	4.44661E+001	11	...........	6.22862E-002	-5.28139E-003	6.07295E-001	5.27300E-001	-2.68797E-002	-3.82435E-002	7.04260E-001	-4.41917E-002	2.55251E-003	-2.16433E-004	2.48871E-002	2.16089E-002	-1.10154E-003	-1.56723E-003	2.88608E-002	-1.81099E-003
	6	6	1.10012E+000	3.79952E-002	0.00000E+000	4.17993E-002	3.78863E-001	3.74654E-002	4.35715E+001	11	...........	6.24286E-002	-5.42153E-003	6.07210E-001	5.27104E-001	-2.68979E-002	-3.83024E-002	7.04274E-001	-4.42350E-002	2.37199E-003	-2.05992E-004	2.30711E-002	2.00274E-002	-1.02199E-003	-1.45531E-003	2.67591E-002	-1.68072E-003
	7	7	1.10014E+000	3.61169E-002	0.00000E+000	3.97338E-002	3.60186E-001	3.77402E-002	4.39946E+001	11	...........	6.28912E-002	-5.46097E-003	6.07014E-001	5.26922E-001	-2.69204E-002	-3.83501E-002	7.04230E-001	-4.42889E-002	2.27143E-003	-1.97233E-004	2.19234E-002	1.90307E-002	-9.72281E-004	-1.38509E-003	2.54346E-002	-1.59958E-003
	8	8	1.10019E+000	3.44986E-002	0.00000E+000	3.79551E-002	3.44096E-001	3.74873E-002	4.31768E+001	11	...........	6.24929E-002	-5.32486E-003	6.07102E-001	5.27014E-001	-2.69842E-002	-3.83410E-002	7.04311E-001	-4.42850E-002	2.15592E-003	-1.83700E-004	2.09442E-002	1.81813E-002	-9.30916E-004	-1.32271E-003	2.42978E-002	-1.52777E-003
	9	9	1.10010E+000	3.34328E-002	0.00000E+000	3.67795E-002	3.33492E-001	3.73947E-002	4.27510E+001	11	...........	6.23101E-002	-5.39069E-003	6.07046E-001	5.27142E-001	-2.69606E-002	-3.82994E-002	7.04221E-001	-4.42762E-002	2.08320E-003	-1.80226E-004	2.02952E-002	1.76238E-002	-9.01366E-004	-1.28046E-003	2.35440E-002	-1.48028E-003
	10	10	1.10013E+000	3.27568E-002	0.00000E+000	3.60368E-002	3.26769E-001	3.77359E-002	4.32060E+001	11	...........	6.29179E-002	-5.34750E-003	6.07204E-001	5.27050E-001	-2.69800E-002	-3.82897E-002	7.04104E-001	-4.41503E-002	2.06099E-003	-1.75167E-004	1.98901E-002	1.72645E-002	-8.83779E-004	-1.25425E-003	2.30642E-002	-1.44622E-003
	11	11	1.10018E+000	3.19132E-002	0.00000E+000	3.51104E-002	3.18386E-001	3.74311E-002	4.36536E+001	11	...........	6.23683E-002	-5.31694E-003	6.07249E-001	5.26952E-001	-2.69349E-002	-3.83465E-002	7.04089E-001	-4.42515E-002	1.99037E-003	-1.69681E-004	1.93793E-002	1.68167E-002	-8.59577E-004	-1.22376E-003	2.24697E-002	-1.41221E-003
	12	12	1.10010E+000	3.14537E-002	0.00000E+000	3.46022E-002	3.13824E-001	3.74780E-002	4.31521E+001	11	...........	6.24679E-002	-5.35236E-003	6.07276E-001	5.26839E-001	-2.69172E-002	-3.83622E-002	7.04081E-001	-4.42536E-002	1.96485E-003	-1.68352E-004	1.91011E-002	1.65710E-002	-8.46647E-004	-1.20663E-003	2.21460E-002	-1.39194E-003
	13	13	1.10013E+000	3.11542E-002	0.00000E+000	3.42735E-002	3.10847E-001	3.74997E-002	4.32005E+001	11	...........	6.24825E-002	-5.29667E-003	6.07360E-001	5.26740E-001	-2.69189E-002	-3.83228E-002	7.04133E-001	-4.42161E-002	1.94659E-003	-1.65013E-004	1.89218E-002	1.64101E-002	-8.38636E-004	-1.19392E-003	2.19367E-002	-1.37752E-003
	14	14	1.10018E+000	3.06776E-002	0.00000E+000	3.37509E-002	3.06119E-001	3.73076E-002	4.29543E+001	11	...........	6.22005E-002	-5.36028E-003	6.07336E-001	5.26690E-001	-2.70182E-002	-3.84081E-002	7.04095E-001	-4.43315E-002	1.90816E-003	-1.64440E-004	1.86316E-002	1.61576E-002	-8.28853E-004	-1.17827E-003	2.15999E-002	-1.35998E-003
	15	15	1.10010E+000	3.04626E-002	0.00000E+000	3.35118E-002	3.03990E-001	3.74391E-002	4.37975E+001	11	...........	6.24104E-002	-5.36069E-003	6.07255E-001	5.26835E-001	-2.70406E-002	-3.84249E-002	7.04103E-001	-4.43254E-002	1.90118E-003	-1.63301E-004	1.84986E-002	1.60487E-002	-8.23725E-004	-1.17052E-003	2.14488E-002	-1.35027E-003
	16	16	1.10012E+000	3.03421E-002	0.00000E+000	3.33801E-002	3.02794E-001	3.72339E-002	4.37710E+001	11	...........	6.20557E-002	-5.36194E-003	6.07179E-001	5.27016E-001	-2.70285E-002	-3.84328E-002	7.04126E-001	-4.42785E-002	1.88290E-003	-1.62693E-004	1.84231E-002	1.59908E-002	-8.20101E-004	-1.16613E-003	2.13647E-002	-1.34350E-003
	17	17	1.10018E+000	3.00340E-002	0.00000E+000	3.30429E-002	2.99728E-001	3.74986E-002	4.33753E+001	11	...........	6.25375E-002	-5.38778E-003	6.07051E-001	5.27160E-001	-2.70158E-002	-3.83935E-002	7.04121E-001	-4.41992E-002	1.87825E-003	-1.61817E-004	1.82322E-002	1.58327E-002	-8.11395E-004	-1.15311E-003	2.11476E-002	-1.32748E-003
	18	18	1.10010E+000	2.98593E-002	0.00000E+000	3.28482E-002	2.97997E-001	3.71912E-002	4.32094E+001	11	...........	6.20219E-002	-5.36319E-003	6.06878E-001	5.27183E-001	-2.70599E-002	-3.84054E-002	7.03992E-001	-4.41918E-002	1.85193E-003	-1.60141E-004	1.81209E-002	1.57413E-002	-8.07988E-004	-1.14676E-003	2.10207E-002	-1.31954E-003
	19	19	1.10012E+000	2.98343E-002	0.00000E+000	3.28214E-002	2.97743E-001	3.71892E-002	4.30434E+001	11	...........	6.20046E-002	-5.38153E-003	6.07039E-001	5.27249E-001	-2.70108E-002	-3.83783E-002	7.03901E-001	-4.42694E-002	1.84987E-003	-1.60554E-004	1.81106E-002	1.57301E-002	-8.05850E-004	-1.14499E-003	2.10004E-002	-1.32075E-003
	20	20	1.10018E+000	2.96056E-002	0.00000E+000	3.25714E-002	2.95474E-001	3.69550E-002	4.42688E+001	11	...........	6.23356E-002	-5.43750E-003	6.07048E-001	5.27113E-001	-2.70599E-002	-3.84283E-002	7.04088E-001	-4.42593E-002	1.84548E-003	-1.60981E-004	1.79720E-002	1.56055E-002	-8.01124E-004	-1.13770E-003	2.08450E-002	-1.31032E-003
	21	21	1.10010E+000	2.94898E-002	0.00000E+000	3.24417E-002	2.94325E-001	3.70571E-002	4.30733E+001	11	...........	6.20649E-002	-5.29792E-003	6.07041E-001	5.27195E-001	-2.70685E-002	-3.84211E-002	7.04088E-001	-4.42599E-002	1.83028E-003	-1.56234E-004	1.79015E-002	1.55469E-002	-7.98243E-004	-1.13303E-003	2.07634E-002	-1.30521E-003
	22	22	1.10012E+000	2.95054E-002	0.00000E+000	3.24595E-002	2.94483E-001	3.68918E-002	4.32778E+001	11	...........	6.18503E-002	-5.34014E-003	6.07082E-001	5.27304E-001	-2.71014E-002	-3.84701E-002	7.04010E-001	-4.43918E-002	1.82492E-003	-1.57563E-004	1.79122E-002	1.55583E-002	-7.99637E-004	-1.13508E-003	2.07721E-002	-1.30980E-003
	23	23	1.10018E+000	2.92903E-002	0.00000E+000	3.22245E-002	2.92347E-001	3.71406E-002	4.40744E+001	11	...........	6.22257E-002	-5.38750E-003	6.07012E-001	5.27351E-001	-2.70904E-002	-3.84651E-002	7.04045E-001	-4.43085E-002	1.82261E-003	-1.57802E-004	1.77796E-002	1.54463E-002	-7.93487E-004	-1.12666E-003	2.06217E-002	-1.29781E-003
	24	24	1.10010E+000	2.91779E-002	0.00000E+000	3.20986E-002	2.91233E-001	3.68657E-002	4.13707E+001	11	...........	6.17782E-002	-5.44625E-003	6.06979E-001	5.27455E-001	-2.70903E-002	-3.84292E-002	7.03965E-001	-4.43665E-002	1.80256E-003	-1.58910E-004	1.77104E-002	1.53900E-002	-7.90438E-004	-1.12128E-003	2.05402E-002	-1.29452E-003
	25	25	1.10012E+000	2.92524E-002	0.00000E+000	3.21812E-002	2.91970E-001	3.69727E-002	4.34819E+001	11	...........	6.19246E-002	-5.50819E-003	6.07050E-001	5.27619E-001	-2.70636E-002	-3.83997E-002	7.04058E-001	-4.43450E-002	1.81144E-003	-1.61128E-004	1.77577E-002	1.54341E-002	-7.91676E-004	-1.12328E-003	2.05954E-002	-1.29720E-003
	26	26	1.10018E+000	2.90284E-002	0.00000E+000	3.19363E-002	2.89746E-001	3.70667E-002	4.30817E+001	11	...........	6.21115E-002	-5.51528E-003	6.07111E-001	5.27735E-001	-2.70468E-002	-3.84169E-002	7.04194E-001	-4.44151E-002	1.80300E-003	-1.60100E-004	1.76235E-002	1.53193E-002	-7.85125E-004	-1.11518E-003	2.04416E-002	-1.28930E-003
	27	27	1.10010E+000	2.89501E-002	0.00000E+000	3.18481E-002	2.88969E-001	3.68657E-002	4.33514E+001	11	...........	6.17774E-002	-5.37778E-003	6.07239E-001	5.27762E-001	-2.70486E-002	-3.84279E-002	7.04082E-001	-4.44478E-002	1.78846E-003	-1.55687E-004	1.75796E-002	1.52788E-002	-7.83060E-004	-1.11249E-003	2.03833E-002	-1.28677E-003
	28	28	1.10012E+000	2.89571E-002	0.00000E+000	3.18563E-002	2.89044E-001	3.69287E-002	4.35657E+001	11	...........	6.18658E-002	-5.39833E-003	6.07321E-001	5.27564E-001	-2.70899E-002	-3.84632E-002	7.04107E-001	-4.44156E-002	1.79146E-003	-1.56320E-004	1.75863E-002	1.52767E-002	-7.84445E-004	-1.11378E-003	2.03889E-002	-1.28615E-003
	29	29	1.10018E+000	2.88055E-002	0.00000E+000	3.16912E-002	2.87528E-001	3.68029E-002	4.18947E+001	11	...........	6.16214E-002	-5.40125E-003	6.07172E-001	5.27516E-001	-2.70228E-002	-3.83639E-002	7.04210E-001	-4.44561E-002	1.77504E-003	-1.55586E-004	1.74899E-002	1.51954E-002	-7.78406E-004	-1.10509E-003	2.02852E-002	-1.28058E-003
	30	30	1.10010E+000	2.87044E-002	0.00000E+000	3.15778E-002	2.86526E-001	3.69336E-002	4.32273E+001	11	...........	6.18589E-002	-5.42181E-003	6.07162E-001	5.27497E-001	-2.70731E-002	-3.83983E-002	7.04230E-001	-4.44276E-002	1.77562E-003	-1.55630E-004	1.74282E-002	1.51415E-002	-7.77117E-004	-1.10220E-003	2.02145E-002	-1.27527E-003
	31	31	1.10012E+000	2.87557E-002	0.00000E+000	3.16346E-002	2.87036E-001	3.69302E-002	4.37387E+001	11	...........	6.18811E-002	-5.39653E-003	6.07104E-001	5.27651E-001	-2.70760E-002	-3.84451E-002	7.04168E-001	-4.43883E-002	1.77943E-003	-1.55181E-004	1.74577E-002	1.51729E-002	-7.78587E-004	-1.10552E-003	2.02488E-002	-1.27642E-003
	32	32	1.10017E+000	2.86116E-002	0.00000E+000	3.14777E-002	2.85611E-001	3.68715E-002	4.35668E+001	11	...........	6.17876E-002	-5.50944E-003	6.07282E-001	5.27677E-001	-2.71593E-002	-3.85033E-002	7.04146E-001	-4.43732E-002	1.76784E-003	-1.57634E-004	1.73753E-002	1.50977E-002	-7.77070E-004	-1.10164E-003	2.01467E-002	-1.26959E-003
	33	33	1.10010E+000	2.84734E-002	0.00000E+000	3.13237E-002	2.84236E-001	3.67492E-002	4.33335E+001	11	...........	6.15897E-002	-5.48514E-003	6.07118E-001	5.27811E-001	-2.71535E-002	-3.84787E-002	7.04133E-001	-4.44869E-002	1.75367E-003	-1.56180E-004	1.72867E-002	1.50285E-002	-7.73151E-004	-1.09562E-003	2.00490E-002	-1.26669E-003
	34	34	1.10012E+000	2.85229E-002	0.00000E+000	3.13785E-002	2.84717E-001	3.68477E-002	4.21748E+001	11	...........	6.17235E-002	-5.37056E-003	6.07163E-001	5.27854E-001	-2.70893E-002	-3.84099E-002	7.04190E-001	-4.44553E-002	1.76053E-003	-1.53184E-004	1.73180E-002	1.50559E-002	-7.72664E-004	-1.09556E-003	2.00855E-002	-1.26799E-003
	35	35	1.10017E+000	2.84033E-002	0.00000E+000	3.12486E-002	2.83522E-001	3.68300E-002	4.33066E+001	11	...........	6.16918E-002	-5.37708E-003	6.07343E-001	5.27893E-001	-2.70189E-002	-3.83849E-002	7.04178E-001	-4.44729E-002	1.75225E-003	-1.52727E-004	1.72506E-002	1.49939E-002	-7.67426E-004	-1.09026E-003	2.00010E-002	-1.26318E-003
	36	36	1.10011E+000	2.82594E-002	0.00000E+000	3.10883E-002	2.82095E-001	3.68114E-002	4.35702E+001	11	...........	6.16599E-002	-5.51208E-003	6.07469E-001	5.27923E-001	-2.70531E-002	-3.84137E-002	7.04184E-001	-4.44289E-002	1.74247E-003	-1.55768E-004	1.71667E-002	1.49188E-002	-7.64503E-004	-1.08555E-003	1.98998E-002	-1.25553E-003
	37	37	1.10012E+000	2.83255E-002	0.00000E+000	3.11614E-002	2.82753E-001	3.67815E-002	4.34129E+001	11	...........	6.16149E-002	-5.51972E-003	6.07627E-001	5.27838E-001	-2.70128E-002	-3.83547E-002	7.04232E-001	-4.45147E-002	1.74527E-003	-1.56349E-004	1.72114E-002	1.49513E-002	-7.65151E-004	-1.08642E-003	1.99477E-002	-1.26090E-003
	38	38	1.10017E+000	2.81735E-002	0.00000E+000	3.09958E-002	2.81241E-001	3.68725E-002	4.24799E+001	11	...........	6.17689E-002	-5.48764E-003	6.07753E-001	5.27747E-001	-2.69933E-002	-3.83761E-002	7.04102E-001	-4.43897E-002	1.74025E-003	-1.54606E-004	1.71225E-002	1.48685E-002	-7.60497E-004	-1.08119E-003	1.98370E-002	-1.25061E-003
	39	39	1.10011E+000	2.80698E-002	0.00000E+000	3.08798E-002	2.80206E-001	3.66624E-002	4.30676E+001	11	...........	6.13956E-002	-5.36917E-003	6.07588E-001	5.27698E-001	-2.69733E-002	-3.83436E-002	7.04132E-001	-4.44353E-002	1.72336E-003	-1.50712E-004	1.70549E-002	1.48124E-002	-7.57137E-004	-1.07630E-003	1.97649E-002	-1.24729E-003
	40	40	1.10012E+000	2.81297E-002	0.00000E+000	3.09460E-002	2.80800E-001	3.68057E-002	4.38925E+001	11	...........	6.16594E-002	-5.40375E-003	6.07524E-001	5.27608E-001	-2.69503E-002	-3.83347E-002	7.04108E-001	-4.43411E-002	1.73446E-003	-1.52006E-004	1.70895E-002	1.48415E-002	-7.58104E-004	-1.07835E-003	1.98064E-002	-1.24730E-003
	41	41	1.10017E+000	2.80122E-002	0.00000E+000	3.08182E-002	2.79637E-001	3.67803E-002	4.34150E+001	11	...........	6.16299E-002	-5.47000E-003	6.07518E-001	5.27621E-001	-2.69596E-002	-3.83596E-002	7.04108E-001	-4.43165E-002	1.72639E-003	-1.53227E-004	1.70179E-002	1.47798E-002	-7.55196E-004	-1.07454E-003	1.97236E-002	-1.24140E-003
	42	42	1.10011E+000	2.78494E-002	0.00000E+000	3.06374E-002	2.78021E-001	3.66048E-002	4.27947E+001	11	...........	6.13029E-002	-5.50208E-003	6.07507E-001	5.27746E-001	-2.69690E-002	-3.83199E-002	7.04075E-001	-4.43560E-002	1.70725E-003	-1.53230E-004	1.69187E-002	1.46974E-002	-7.51073E-004	-1.06719E-003	1.96081E-002	-1.23529E-003
	43	43	1.10012E+000	2.79427E-002	0.00000E+000	3.07402E-002	2.78945E-001	3.67692E-002	4.32516E+001	11	...........	6.16192E-002	-5.52361E-003	6.07356E-001	5.27590E-001	-2.69953E-002	-3.83406E-002	7.04138E-001	-4.43918E-002	1.72180E-003	-1.54344E-004	1.69711E-002	1.47423E-002	-7.54320E-004	-1.07134E-003	1.96755E-002	-1.24043E-003
	44	44	1.10017E+000	2.78100E-002	0.00000E+000	3.05957E-002	2.77627E-001	3.66754E-002	4.26167E+001	11	...........	6.14692E-002	-5.51097E-003	6.07193E-001	5.27540E-001	-2.69856E-002	-3.83562E-002	7.03947E-001	-4.44626E-002	1.70946E-003	-1.53260E-004	1.68861E-002	1.46709E-002	-7.50468E-004	-1.06669E-003	1.95768E-002	-1.23651E-003
	45	45	1.10011E+000	2.76867E-002	0.00000E+000	3.04585E-002	2.76411E-001	3.66765E-002	4.34729E+001	11	...........	6.14642E-002	-5.43458E-003	6.07245E-001	5.27478E-001	-2.70489E-002	-3.83933E-002	7.04056E-001	-4.44442E-002	1.70174E-003	-1.50466E-004	1.68126E-002	1.46041E-002	-7.48895E-004	-1.06299E-003	1.94930E-002	-1.23051E-003
	46	46	1.10012E+000	2.77594E-002	0.00000E+000	3.05385E-002	2.77126E-001	3.65360E-002	4.27437E+001	11	...........	6.12190E-002	-5.33861E-003	6.07367E-001	5.27553E-001	-2.70110E-002	-3.83415E-002	7.04211E-001	-4.43907E-002	1.69940E-003	-1.48196E-004	1.68601E-002	1.46445E-002	-7.49807E-004	-1.06434E-003	1.95484E-002	-1.23226E-003
	47	47	1.10017E+000	2.76269E-002	0.00000E+000	3.03943E-002	2.75812E-001	3.66623E-002	4.24618E+001	11	...........	6.14008E-002	-5.26500E-003	6.07365E-001	5.27470E-001	-2.70042E-002	-3.83472E-002	7.04208E-001	-4.43719E-002	1.69632E-003	-1.45456E-004	1.67796E-002	1.45724E-002	-7.46042E-004	-1.05942E-003	1.94551E-002	-1.22586E-003
	48	48	1.10011E+000	2.74927E-002	0.00000E+000	3.02451E-002	2.74478E-001	3.66544E-002	4.18545E+001	11	...........	6.14051E-002	-5.33306E-003	6.07337E-001	5.27521E-001	-2.70074E-002	-3.83465E-002	7.04245E-001	-4.44922E-002	1.68819E-003	-1.46620E-004	1.66973E-002	1.45030E-002	-7.42506E-004	-1.05425E-003	1.93616E-002	-1.22321E-003
	49	48.89	1.10016E+000	2.75599E-002	0.00000E+000	3.03204E-002	2.75153E-001	3.67303E-002	4.27443E+001	11	...........	6.15412E-002	-5.39263E-003	6.07055E-001	5.27553E-001	-2.70286E-002	-3.84465E-002	7.04215E-001	-4.44864E-002	1.69607E-003	-1.48621E-004	1.67304E-002	1.45393E-002	-7.44905E-004	-1.05958E-003	1.94081E-002	-1.22604E-003
STARTTIMEOFFSET	QUANT	1001809	Start Time Offset (s)
