EXPLAIN
TAG	PWR800_CHARGE
TITLE	LABEL	PWR Charge	Test Identifier
DATE	LABEL	10/16/2022	Date
TIME	LABEL	17:19:13	Time
NOTES	NOTES	1	Notes...
	
PSTAT	PSTAT	REF3000-21114	Potentiostat
CAPACITY	QUANT	5.30000E-002	Capacity (A-hr)
CELLTYPE	SELECTOR	1	Cell Type
WORKINGCONNECTION	SELECTOR	0	Working Connection
MAXCHARGETIME	VARIABLEANDUNITS	7.20000E+003	s	2.00000E+000	hour(s)	Max Charge Time
CHARGEMODE	MULTIPARAM	0	1.00000E-001	Charge Mode	Constant Current	Amp(s)
CHARGECURRENT	QUANT	0.1	Charge Current (A)
VOLTAGEFINISH	TWOPARAM	T	2.50000E-002	7.20000E+003	Voltage Finish	I (A) <	Max Time(s)
SAMPLETIME	QUANT	1.00000E+000	Sample Period (s)
CHARGESTOPAT1	MULTIPARAM	2	1.10000E+000	Stop At 1	|Voltage| > Limit	V
CHARGESTOPAT2	MULTIPARAM	0	0.00000E+000	Stop At 2	None	N/A
AESELECTOR	AESELECTOR	0x1	T	Set Limits	AE Channels
AESBHCSELECTOR	TOGGLE	F	Save Both Half Cells
IRCOMP	TOGGLE	F	IR Measure
EOC	QUANT	0.276198	Open Circuit (V)
SEQUENCER	TOGGLE	TRUE	Run as Sequence
PSTATMODEL	IQUANT	5	Pstat Model
PSTATSECTION	LABEL	REF3000-21114	Pstat Section
PSTATSERIALNO	LABEL	21114	Pstat Serial Number
CTRLMODE	IQUANT	0	Control Mode
ELECTROMETER	IQUANT	0	RE=0 or CS=1
IESTAB	IQUANT	0	I/E Stability
CASPEED	IQUANT	4	Control Amp Speed
CONVENTION	IQUANT	1	Current Convention
ICHRANGE	IQUANT	2	Ich Range
ICHRANGEMODE	TOGGLE	T	Ich Auto Range
ICHOFFSETENABLE	TOGGLE	F	Ich Offset Enable
ICHOFFSET	QUANT	0	Ich Offset (V)
ICHFILTER	IQUANT	1	Ich Filter
VCHRANGE	IQUANT	3	Vch Range
VCHRANGEMODE	TOGGLE	T	Vch Auto Range
VCHOFFSETENABLE	TOGGLE	F	Vch Offset Enable
VCHOFFSET	QUANT	0	Vch Offset (V)
VCHFILTER	IQUANT	1	Vch Filter
ACHRANGE	IQUANT	2	Ach Range
ACHOFFSETENABLE	TOGGLE	F	Ach Offset Enable
ACHOFFSET	QUANT	0	Ach Offset (V)
ACHFILTER	IQUANT	1	Ach Filter
IERANGELOWERLIMIT	IQUANT	9	I/E Range Lower Limit
IERANGEMODE	TOGGLE	F	I/E AutoRange
IERANGE	IQUANT	9	I/E Range
POSFEEDENABLE	TOGGLE	F	Positive Feedback IR Comp
POSFEEDRESISTANCE	QUANT	0	Positive Feedback Resistance (ohm)
ACHSELECT	IQUANT	1	Ach Select
SENSECABLEID	IQUANT	13	Sense Cable ID
PWRCABLEID	IQUANT	13	Power Cable ID
DCCALDATE	LABEL		DC Calibration Date
ACCALDATE	LABEL		AC Calibration Date
THERMOSELECT	IQUANT	1	Thermo Select
FRAMEWORKVERSION	LABEL	7.8.6	Framework Version
INSTRUMENTVERSION	LABEL	4.50	Instrument Version
COMPLIANCEVOLTAGE	IQUANT	0	Compliance Voltage
CURVE	TABLE	55
	Pt	T	Vf	Im	Vu	Pwr	Sig	Ach	Temp	IERange	Over	Vf1	Vf2	Vf3	Vf4	Vf5	Vf6	Vf7	Vf8	Pwr1	Pwr2	Pwr3	Pwr4	Pwr5	Pwr6	Pwr7	Pwr8
	#	s	V	A	V	W	V	V	deg C	#	bits	V	V	V	V	V	V	V	V	W	W	W	W	W	W	W	W
	0	1	5.72892E-001	9.98474E-002	0.00000E+000	5.72018E-002	9.94000E-001	3.78235E-002	4.06196E+001	11	...........	6.26196E-002	-4.44667E-003	5.76494E-001	6.08243E-001	-2.88182E-002	-3.87736E-002	6.61023E-001	-4.30242E-002	6.25241E-003	-4.43988E-004	5.75614E-002	6.07315E-002	-2.87742E-003	-3.87145E-003	6.60015E-002	-4.29585E-003
	1	2	8.35897E-001	9.98479E-002	0.00000E+000	8.34626E-002	9.94000E-001	3.85855E-002	4.26080E+001	11	...........	6.38735E-002	-4.49500E-003	5.76780E-001	6.08299E-001	-2.88162E-002	-3.87336E-002	6.61035E-001	-4.30343E-002	6.37763E-003	-4.48816E-004	5.75903E-002	6.07374E-002	-2.87724E-003	-3.86747E-003	6.60030E-002	-4.29689E-003
	2	2.03333	1.08961E+000	9.98490E-002	0.00000E+000	1.08796E-001	9.94000E-001	3.89550E-002	4.81995E+001	11	...........	6.44583E-002	-4.53750E-003	5.76937E-001	6.08350E-001	-2.87917E-002	-3.87042E-002	6.61167E-001	-4.30167E-002	6.43610E-003	-4.53065E-004	5.76066E-002	6.07431E-002	-2.87482E-003	-3.86457E-003	6.60168E-002	-4.29517E-003
	3	3	1.10082E+000	6.33342E-002	0.00000E+000	6.97198E-002	6.30916E-001	3.86501E-002	4.76840E+001	11	...........	6.39108E-002	-4.47126E-003	5.76904E-001	6.08404E-001	-2.88065E-002	-3.87128E-002	6.61081E-001	-4.30795E-002	4.04774E-003	-2.83184E-004	3.65378E-002	3.85328E-002	-1.82444E-003	-2.45184E-003	4.18691E-002	-2.72840E-003
	4	4	1.10027E+000	4.57356E-002	0.00000E+000	5.03214E-002	4.55935E-001	3.84065E-002	4.75479E+001	11	...........	6.35392E-002	-4.32792E-003	5.76878E-001	6.08430E-001	-2.87897E-002	-3.87075E-002	6.60936E-001	-4.31469E-002	2.90600E-003	-1.97940E-004	2.63839E-002	2.78269E-002	-1.31672E-003	-1.77031E-003	3.02283E-002	-1.97335E-003
	5	5	1.10028E+000	4.08278E-002	0.00000E+000	4.49220E-002	4.07139E-001	3.82943E-002	4.63230E+001	11	...........	6.33664E-002	-4.35125E-003	5.76958E-001	6.08255E-001	-2.87869E-002	-3.86978E-002	6.60901E-001	-4.30793E-002	2.58711E-003	-1.77652E-004	2.35559E-002	2.48337E-002	-1.17531E-003	-1.57995E-003	2.69831E-002	-1.75883E-003
	6	6	1.10026E+000	3.78835E-002	0.00000E+000	4.16818E-002	3.77870E-001	3.86009E-002	4.63757E+001	11	...........	6.38604E-002	-4.42500E-003	5.76947E-001	6.08171E-001	-2.87901E-002	-3.86893E-002	6.60848E-001	-4.31999E-002	2.41926E-003	-1.67634E-004	2.18568E-002	2.30396E-002	-1.09067E-003	-1.46569E-003	2.50352E-002	-1.63656E-003
	7	7	1.10020E+000	3.62663E-002	0.00000E+000	3.99002E-002	3.61789E-001	3.82113E-002	4.69556E+001	11	...........	6.32199E-002	-4.30528E-003	5.77021E-001	6.08117E-001	-2.88069E-002	-3.86854E-002	6.60950E-001	-4.32961E-002	2.29275E-003	-1.56137E-004	2.09264E-002	2.20542E-002	-1.04472E-003	-1.40298E-003	2.39702E-002	-1.57019E-003
	8	8	1.10025E+000	3.50303E-002	0.00000E+000	3.85420E-002	3.49495E-001	3.83759E-002	4.39226E+001	11	...........	6.35132E-002	-4.36028E-003	5.77120E-001	6.08274E-001	-2.88164E-002	-3.86486E-002	6.60844E-001	-4.32354E-002	2.22488E-003	-1.52742E-004	2.02166E-002	2.13080E-002	-1.00945E-003	-1.35387E-003	2.31495E-002	-1.51455E-003
	9	9	1.10025E+000	3.38715E-002	0.00000E+000	3.72672E-002	3.37971E-001	3.84665E-002	4.59055E+001	11	...........	6.36396E-002	-4.42875E-003	5.77073E-001	6.08257E-001	-2.88293E-002	-3.86182E-002	6.60869E-001	-4.32368E-002	2.15557E-003	-1.50009E-004	1.95463E-002	2.06026E-002	-9.76493E-004	-1.30806E-003	2.23847E-002	-1.46450E-003
	10	10	1.10019E+000	3.33128E-002	0.00000E+000	3.66503E-002	3.32417E-001	3.83744E-002	4.56711E+001	11	...........	6.34810E-002	-4.36722E-003	5.76907E-001	6.08028E-001	-2.88254E-002	-3.86268E-002	6.60990E-001	-4.31162E-002	2.11473E-003	-1.45484E-004	1.92184E-002	2.02551E-002	-9.60254E-004	-1.28677E-003	2.20194E-002	-1.43632E-003
	11	11	1.10024E+000	3.28049E-002	0.00000E+000	3.60933E-002	3.27369E-001	3.82117E-002	4.46006E+001	11	...........	6.31858E-002	-4.12514E-003	5.76657E-001	6.08016E-001	-2.88093E-002	-3.86185E-002	6.61035E-001	-4.31453E-002	2.07281E-003	-1.35325E-004	1.89172E-002	1.99459E-002	-9.45087E-004	-1.26688E-003	2.16852E-002	-1.41538E-003
	12	12	1.10025E+000	3.21637E-002	0.00000E+000	3.53880E-002	3.20997E-001	3.84538E-002	4.59226E+001	11	...........	6.35947E-002	-4.14056E-003	5.76618E-001	6.08029E-001	-2.88322E-002	-3.86164E-002	6.61115E-001	-4.32036E-002	2.04544E-003	-1.33175E-004	1.85461E-002	1.95564E-002	-9.27350E-004	-1.24204E-003	2.12639E-002	-1.38959E-003
	13	13	1.10019E+000	3.19760E-002	0.00000E+000	3.51795E-002	3.19127E-001	3.83542E-002	4.68631E+001	11	...........	6.34456E-002	-4.23625E-003	5.76559E-001	6.08074E-001	-2.88387E-002	-3.86164E-002	6.61178E-001	-4.32107E-002	2.02873E-003	-1.35458E-004	1.84360E-002	1.94438E-002	-9.22148E-004	-1.23480E-003	2.11418E-002	-1.38170E-003
	14	14	1.10023E+000	3.17186E-002	0.00000E+000	3.48978E-002	3.16569E-001	3.82247E-002	4.37908E+001	11	...........	6.32764E-002	-4.05403E-003	5.76536E-001	6.07821E-001	-2.88287E-002	-3.86046E-002	6.61268E-001	-4.31760E-002	2.00704E-003	-1.28588E-004	1.82869E-002	1.92792E-002	-9.14407E-004	-1.22448E-003	2.09745E-002	-1.36948E-003
	15	15	1.10025E+000	3.12775E-002	0.00000E+000	3.44130E-002	3.12182E-001	3.82415E-002	4.53835E+001	11	...........	6.32772E-002	-4.07472E-003	5.76530E-001	6.07972E-001	-2.88451E-002	-3.85840E-002	6.61307E-001	-4.31624E-002	1.97915E-003	-1.27447E-004	1.80324E-002	1.90158E-002	-9.02203E-004	-1.20681E-003	2.06840E-002	-1.35001E-003
	16	16	1.10018E+000	3.12459E-002	0.00000E+000	3.43762E-002	3.11868E-001	3.83328E-002	4.66122E+001	11	...........	6.34351E-002	-4.20917E-003	5.76494E-001	6.08192E-001	-2.88622E-002	-3.86075E-002	6.61263E-001	-4.31518E-002	1.98209E-003	-1.31519E-004	1.80131E-002	1.90035E-002	-9.01826E-004	-1.20633E-003	2.06618E-002	-1.34832E-003
	17	17	1.10023E+000	3.11473E-002	0.00000E+000	3.42692E-002	3.10891E-001	3.81873E-002	4.41052E+001	11	...........	6.32014E-002	-4.23500E-003	5.76367E-001	6.08098E-001	-2.88669E-002	-3.86035E-002	6.61163E-001	-4.32031E-002	1.96855E-003	-1.31909E-004	1.79523E-002	1.89406E-002	-8.99126E-004	-1.20239E-003	2.05934E-002	-1.34566E-003
	18	18	1.10025E+000	3.07554E-002	0.00000E+000	3.38386E-002	3.06994E-001	3.81382E-002	4.54439E+001	11	...........	6.31154E-002	-4.15028E-003	5.76292E-001	6.08018E-001	-2.88785E-002	-3.85874E-002	6.61175E-001	-4.31469E-002	1.94114E-003	-1.27644E-004	1.77241E-002	1.86999E-002	-8.88169E-004	-1.18677E-003	2.03347E-002	-1.32700E-003
	19	19	1.10018E+000	3.07709E-002	0.00000E+000	3.38536E-002	3.07145E-001	3.83396E-002	4.48376E+001	11	...........	6.34554E-002	-4.34125E-003	5.76135E-001	6.08029E-001	-2.89068E-002	-3.85828E-002	6.61252E-001	-4.31742E-002	1.95258E-003	-1.33584E-004	1.77282E-002	1.87096E-002	-8.89489E-004	-1.18723E-003	2.03473E-002	-1.32851E-003
	20	20	1.10023E+000	3.07016E-002	0.00000E+000	3.37787E-002	3.06457E-001	3.78027E-002	4.48847E+001	11	...........	6.28068E-002	-4.25264E-003	5.76168E-001	6.07979E-001	-2.89024E-002	-3.86010E-002	6.61236E-001	-4.30693E-002	1.92827E-003	-1.30563E-004	1.76893E-002	1.86659E-002	-8.87348E-004	-1.18511E-003	2.03010E-002	-1.32229E-003
	21	21	1.10025E+000	3.04064E-002	0.00000E+000	3.34547E-002	3.03525E-001	3.80797E-002	4.46722E+001	11	...........	6.34719E-002	-4.33500E-003	5.76293E-001	6.08004E-001	-2.89056E-002	-3.85644E-002	6.61248E-001	-4.31662E-002	1.92995E-003	-1.31812E-004	1.75230E-002	1.84872E-002	-8.78913E-004	-1.17261E-003	2.01062E-002	-1.31253E-003
	22	22	1.10018E+000	3.04122E-002	0.00000E+000	3.34589E-002	3.03580E-001	3.78330E-002	4.47505E+001	11	...........	6.30542E-002	-4.29542E-003	5.76237E-001	6.07937E-001	-2.89119E-002	-3.85650E-002	6.61346E-001	-4.31290E-002	1.91761E-003	-1.30633E-004	1.75246E-002	1.84887E-002	-8.79275E-004	-1.17285E-003	2.01130E-002	-1.31165E-003
	23	23	1.10023E+000	3.03719E-002	0.00000E+000	3.34159E-002	3.03181E-001	3.79376E-002	4.48747E+001	11	...........	6.32256E-002	-4.11667E-003	5.76307E-001	6.07877E-001	-2.89110E-002	-3.85949E-002	6.61324E-001	-4.31100E-002	1.92028E-003	-1.25031E-004	1.75035E-002	1.84624E-002	-8.78081E-004	-1.17220E-003	2.00857E-002	-1.30933E-003
	24	24	1.10025E+000	3.00692E-002	0.00000E+000	3.30837E-002	3.00175E-001	3.76381E-002	4.33068E+001	11	...........	6.27287E-002	-4.15278E-003	5.76289E-001	6.07865E-001	-2.88953E-002	-3.86187E-002	6.61394E-001	-4.31221E-002	1.88620E-003	-1.24871E-004	1.73285E-002	1.82780E-002	-8.68858E-004	-1.16123E-003	1.98876E-002	-1.29665E-003
	25	25	1.10018E+000	3.01389E-002	0.00000E+000	3.31583E-002	3.00866E-001	3.79691E-002	4.37229E+001	11	...........	6.32643E-002	-4.19931E-003	5.76250E-001	6.07993E-001	-2.89104E-002	-3.86081E-002	6.61340E-001	-4.31412E-002	1.90672E-003	-1.26562E-004	1.73676E-002	1.83243E-002	-8.71328E-004	-1.16360E-003	1.99321E-002	-1.30023E-003
	26	26	1.10022E+000	3.00980E-002	0.00000E+000	3.31145E-002	3.00463E-001	3.78324E-002	4.40435E+001	11	...........	6.30436E-002	-4.27875E-003	5.76309E-001	6.08057E-001	-2.89121E-002	-3.86208E-002	6.61338E-001	-4.32176E-002	1.89749E-003	-1.28782E-004	1.73458E-002	1.83013E-002	-8.70196E-004	-1.16241E-003	1.99049E-002	-1.30076E-003
	27	27	1.10026E+000	2.98233E-002	0.00000E+000	3.28132E-002	2.97730E-001	3.77808E-002	4.47482E+001	11	...........	6.29529E-002	-4.23417E-003	5.76307E-001	6.08136E-001	-2.89296E-002	-3.86579E-002	6.61337E-001	-4.31192E-002	1.87746E-003	-1.26277E-004	1.71873E-002	1.81366E-002	-8.62774E-004	-1.15290E-003	1.97232E-002	-1.28595E-003
	28	28	1.10018E+000	2.98615E-002	0.00000E+000	3.28531E-002	2.98113E-001	3.78400E-002	4.52092E+001	11	...........	6.30469E-002	-4.18819E-003	5.76293E-001	6.07954E-001	-2.89186E-002	-3.86657E-002	6.61294E-001	-4.30406E-002	1.88268E-003	-1.25066E-004	1.72090E-002	1.81544E-002	-8.63554E-004	-1.15462E-003	1.97473E-002	-1.28526E-003
	29	29	1.10022E+000	2.98466E-002	0.00000E+000	3.28379E-002	2.97966E-001	3.76798E-002	4.34095E+001	11	...........	6.27997E-002	-4.22014E-003	5.76259E-001	6.07992E-001	-2.88954E-002	-3.86549E-002	6.61222E-001	-4.31486E-002	1.87436E-003	-1.25957E-004	1.71994E-002	1.81465E-002	-8.62431E-004	-1.15372E-003	1.97352E-002	-1.28784E-003
	30	30	1.10026E+000	2.95812E-002	0.00000E+000	3.25469E-002	2.95326E-001	3.78519E-002	4.49448E+001	11	...........	6.30789E-002	-4.15403E-003	5.76262E-001	6.07795E-001	-2.88949E-002	-3.86485E-002	6.61216E-001	-4.31899E-002	1.86595E-003	-1.22881E-004	1.70465E-002	1.79793E-002	-8.54744E-004	-1.14327E-003	1.95596E-002	-1.27761E-003
	31	31	1.10018E+000	2.96303E-002	0.00000E+000	3.25986E-002	2.95814E-001	3.77645E-002	4.49976E+001	11	...........	6.29424E-002	-4.32278E-003	5.76358E-001	6.07736E-001	-2.89011E-002	-3.86537E-002	6.61236E-001	-4.31886E-002	1.86500E-003	-1.28085E-004	1.70777E-002	1.80074E-002	-8.56349E-004	-1.14532E-003	1.95926E-002	-1.27969E-003
	32	32	1.10022E+000	2.96233E-002	0.00000E+000	3.25922E-002	2.95743E-001	3.77163E-002	4.40330E+001	11	...........	6.28501E-002	-4.17708E-003	5.76331E-001	6.07647E-001	-2.88965E-002	-3.86657E-002	6.61239E-001	-4.31793E-002	1.86183E-003	-1.23739E-004	1.70728E-002	1.80005E-002	-8.56011E-004	-1.14541E-003	1.95881E-002	-1.27911E-003
	33	33	1.10026E+000	2.93355E-002	0.00000E+000	3.22767E-002	2.92883E-001	3.76714E-002	4.48266E+001	11	...........	6.27781E-002	-4.15514E-003	5.76504E-001	6.07631E-001	-2.88751E-002	-3.86647E-002	6.61203E-001	-4.31514E-002	1.84163E-003	-1.21893E-004	1.69120E-002	1.78252E-002	-8.47067E-004	-1.13425E-003	1.93967E-002	-1.26587E-003
	34	34	1.10018E+000	2.93638E-002	0.00000E+000	3.23054E-002	2.93163E-001	3.75664E-002	4.43896E+001	11	...........	6.26119E-002	-4.14625E-003	5.76460E-001	6.07572E-001	-2.88517E-002	-3.86508E-002	6.61217E-001	-4.30200E-002	1.83852E-003	-1.21749E-004	1.69270E-002	1.78406E-002	-8.47193E-004	-1.13493E-003	1.94158E-002	-1.26323E-003
	35	35	1.10022E+000	2.94012E-002	0.00000E+000	3.23478E-002	2.93535E-001	3.76741E-002	4.36606E+001	11	...........	6.27983E-002	-4.15681E-003	5.76469E-001	6.07658E-001	-2.88565E-002	-3.86358E-002	6.61198E-001	-4.30346E-002	1.84635E-003	-1.22215E-004	1.69489E-002	1.78659E-002	-8.48417E-004	-1.13594E-003	1.94400E-002	-1.26527E-003
	36	36	1.10026E+000	2.91277E-002	0.00000E+000	3.20480E-002	2.90819E-001	3.78129E-002	4.42846E+001	11	...........	6.30035E-002	-4.32722E-003	5.76576E-001	6.07674E-001	-2.88636E-002	-3.86279E-002	6.61101E-001	-4.30358E-002	1.83515E-003	-1.26042E-004	1.67943E-002	1.77001E-002	-8.40730E-004	-1.12514E-003	1.92563E-002	-1.25353E-003
	37	37	1.10018E+000	2.91196E-002	0.00000E+000	3.20368E-002	2.90738E-001	3.75314E-002	4.27131E+001	11	...........	6.25412E-002	-4.32917E-003	5.76438E-001	6.07964E-001	-2.89050E-002	-3.86371E-002	6.61139E-001	-4.30840E-002	1.82118E-003	-1.26064E-004	1.67857E-002	1.77037E-002	-8.41702E-004	-1.12510E-003	1.92521E-002	-1.25459E-003
	38	38	1.10022E+000	2.91654E-002	0.00000E+000	3.20883E-002	2.91192E-001	3.75572E-002	4.34518E+001	11	...........	6.25837E-002	-4.23208E-003	5.76433E-001	6.07894E-001	-2.89014E-002	-3.86400E-002	6.61115E-001	-4.31618E-002	1.82528E-003	-1.23430E-004	1.68119E-002	1.77295E-002	-8.42921E-004	-1.12695E-003	1.92817E-002	-1.25883E-003
	39	39	1.10026E+000	2.89344E-002	0.00000E+000	3.18355E-002	2.88899E-001	3.78638E-002	4.40158E+001	11	...........	6.31056E-002	-4.11000E-003	5.76424E-001	6.07927E-001	-2.89033E-002	-3.86406E-002	6.61016E-001	-4.32169E-002	1.82592E-003	-1.18921E-004	1.66785E-002	1.75900E-002	-8.36302E-004	-1.11804E-003	1.91261E-002	-1.25046E-003
	40	40	1.10018E+000	2.89197E-002	0.00000E+000	3.18169E-002	2.88753E-001	3.75773E-002	4.41938E+001	11	...........	6.26301E-002	-4.15472E-003	5.76334E-001	6.07853E-001	-2.88950E-002	-3.86346E-002	6.61063E-001	-4.32471E-002	1.81125E-003	-1.20153E-004	1.66674E-002	1.75789E-002	-8.35635E-004	-1.11730E-003	1.91178E-002	-1.25069E-003
	41	41	1.10022E+000	2.89885E-002	0.00000E+000	3.18936E-002	2.89439E-001	3.76324E-002	4.51933E+001	11	...........	6.27142E-002	-4.20708E-003	5.76338E-001	6.07708E-001	-2.89103E-002	-3.86431E-002	6.61201E-001	-4.31760E-002	1.81799E-003	-1.21957E-004	1.67072E-002	1.76165E-002	-8.38066E-004	-1.12020E-003	1.91672E-002	-1.25161E-003
	42	42	1.10026E+000	2.87129E-002	0.00000E+000	3.15918E-002	2.86693E-001	3.74460E-002	4.43701E+001	11	...........	6.24019E-002	-4.31417E-003	5.76397E-001	6.07634E-001	-2.89000E-002	-3.86536E-002	6.61219E-001	-4.31511E-002	1.79174E-003	-1.23872E-004	1.65501E-002	1.74470E-002	-8.29803E-004	-1.10986E-003	1.89855E-002	-1.23899E-003
	43	43	1.10018E+000	2.87122E-002	0.00000E+000	3.15886E-002	2.86694E-001	3.76745E-002	4.37842E+001	11	...........	6.27878E-002	-4.33625E-003	5.76480E-001	6.07620E-001	-2.88919E-002	-3.86418E-002	6.61100E-001	-4.30742E-002	1.80277E-003	-1.24503E-004	1.65520E-002	1.74461E-002	-8.29550E-004	-1.10949E-003	1.89816E-002	-1.23675E-003
	44	44	1.10021E+000	2.87742E-002	0.00000E+000	3.16578E-002	2.87307E-001	3.76397E-002	4.45215E+001	11	...........	6.27201E-002	-4.18458E-003	5.76513E-001	6.07544E-001	-2.88975E-002	-3.86496E-002	6.61078E-001	-4.32114E-002	1.80472E-003	-1.20408E-004	1.65887E-002	1.74816E-002	-8.31503E-004	-1.11211E-003	1.90220E-002	-1.24337E-003
	45	45	1.10026E+000	2.85040E-002	0.00000E+000	3.13619E-002	2.84623E-001	3.73788E-002	4.49992E+001	11	...........	6.22903E-002	-4.20194E-003	5.76538E-001	6.07613E-001	-2.88901E-002	-3.86454E-002	6.61220E-001	-4.32715E-002	1.77552E-003	-1.19772E-004	1.64336E-002	1.73194E-002	-8.23483E-004	-1.10155E-003	1.88474E-002	-1.23341E-003
	46	46	1.10018E+000	2.85074E-002	0.00000E+000	3.13632E-002	2.84658E-001	3.76227E-002	4.51921E+001	11	...........	6.26925E-002	-4.26181E-003	5.76533E-001	6.07462E-001	-2.88814E-002	-3.86699E-002	6.61155E-001	-4.32264E-002	1.78720E-003	-1.21493E-004	1.64354E-002	1.73171E-002	-8.23332E-004	-1.10238E-003	1.88478E-002	-1.23227E-003
	47	47	1.10021E+000	2.85456E-002	0.00000E+000	3.14063E-002	2.85035E-001	3.74723E-002	4.35518E+001	11	...........	6.24607E-002	-4.08917E-003	5.76495E-001	6.07373E-001	-2.88800E-002	-3.86614E-002	6.61029E-001	-4.31971E-002	1.78298E-003	-1.16728E-004	1.64564E-002	1.73379E-002	-8.24398E-004	-1.10361E-003	1.88695E-002	-1.23309E-003
	48	48	1.10027E+000	2.83354E-002	0.00000E+000	3.11765E-002	2.82947E-001	3.74158E-002	4.39992E+001	11	...........	6.23581E-002	-4.03625E-003	5.76419E-001	6.07490E-001	-2.88744E-002	-3.86615E-002	6.61051E-001	-4.32785E-002	1.76694E-003	-1.14369E-004	1.63331E-002	1.72135E-002	-8.18170E-004	-1.09549E-003	1.87312E-002	-1.22631E-003
	49	49	1.10018E+000	2.83260E-002	0.00000E+000	3.11637E-002	2.82854E-001	3.75486E-002	4.60693E+001	11	...........	6.25929E-002	-4.19889E-003	5.76568E-001	6.07666E-001	-2.88899E-002	-3.86528E-002	6.61031E-001	-4.32900E-002	1.77301E-003	-1.18938E-004	1.63319E-002	1.72128E-002	-8.18335E-004	-1.09488E-003	1.87244E-002	-1.22623E-003
	50	50	1.10021E+000	2.83606E-002	0.00000E+000	3.12027E-002	2.83197E-001	3.74308E-002	4.36705E+001	11	...........	6.23822E-002	-4.31028E-003	5.76446E-001	6.07737E-001	-2.88975E-002	-3.86412E-002	6.61122E-001	-4.31640E-002	1.76920E-003	-1.22242E-004	1.63483E-002	1.72358E-002	-8.19550E-004	-1.09589E-003	1.87498E-002	-1.22416E-003
	51	51	1.10027E+000	2.81226E-002	0.00000E+000	3.09423E-002	2.80829E-001	3.74778E-002	4.48706E+001	11	...........	6.24647E-002	-4.29569E-003	5.76491E-001	6.07753E-001	-2.88779E-002	-3.86612E-002	6.61088E-001	-4.31718E-002	1.75667E-003	-1.20806E-004	1.62124E-002	1.70916E-002	-8.12121E-004	-1.08725E-003	1.85915E-002	-1.21410E-003
	52	52	1.10018E+000	2.81033E-002	0.00000E+000	3.09188E-002	2.80639E-001	3.74376E-002	4.33624E+001	11	...........	6.24031E-002	-4.29875E-003	5.76514E-001	6.07699E-001	-2.88546E-002	-3.86633E-002	6.61075E-001	-4.31169E-002	1.75373E-003	-1.20809E-004	1.62020E-002	1.70784E-002	-8.10910E-004	-1.08657E-003	1.85784E-002	-1.21173E-003
	53	53	1.10021E+000	2.81829E-002	0.00000E+000	3.10071E-002	2.81432E-001	3.73520E-002	4.51124E+001	11	...........	6.23904E-002	-4.32847E-003	5.76746E-001	6.07888E-001	-2.88503E-002	-3.86336E-002	6.60991E-001	-4.31904E-002	1.75834E-003	-1.21989E-004	1.62544E-002	1.71321E-002	-8.13085E-004	-1.08881E-003	1.86287E-002	-1.21723E-003
	54	53.8083	1.10028E+000	2.79467E-002	0.00000E+000	3.07492E-002	2.79083E-001	3.74533E-002	4.51634E+001	11	...........	6.23873E-002	-4.33385E-003	5.76848E-001	6.07989E-001	-2.88457E-002	-3.86172E-002	6.61049E-001	-4.33198E-002	1.74352E-003	-1.21117E-004	1.61210E-002	1.69913E-002	-8.06143E-004	-1.07922E-003	1.84742E-002	-1.21065E-003
STARTTIMEOFFSET	QUANT	853672.8	Start Time Offset (s)
