EXPLAIN
TAG	PWR800_CHARGE
TITLE	LABEL	PWR Charge	Test Identifier
DATE	LABEL	10/13/2022	Date
TIME	LABEL	23:54:32	Time
NOTES	NOTES	1	Notes...
	
PSTAT	PSTAT	REF3000-21114	Potentiostat
CAPACITY	QUANT	5.30000E-002	Capacity (A-hr)
CELLTYPE	SELECTOR	1	Cell Type
WORKINGCONNECTION	SELECTOR	0	Working Connection
MAXCHARGETIME	VARIABLEANDUNITS	7.20000E+003	s	2.00000E+000	hour(s)	Max Charge Time
CHARGEMODE	MULTIPARAM	0	1.00000E-001	Charge Mode	Constant Current	Amp(s)
CHARGECURRENT	QUANT	0.1	Charge Current (A)
VOLTAGEFINISH	TWOPARAM	T	2.50000E-002	7.20000E+003	Voltage Finish	I (A) <	Max Time(s)
SAMPLETIME	QUANT	1.00000E+000	Sample Period (s)
CHARGESTOPAT1	MULTIPARAM	2	1.10000E+000	Stop At 1	|Voltage| > Limit	V
CHARGESTOPAT2	MULTIPARAM	0	0.00000E+000	Stop At 2	None	N/A
AESELECTOR	AESELECTOR	0x1	T	Set Limits	AE Channels
AESBHCSELECTOR	TOGGLE	F	Save Both Half Cells
IRCOMP	TOGGLE	F	IR Measure
EOC	QUANT	0.2139224	Open Circuit (V)
SEQUENCER	TOGGLE	TRUE	Run as Sequence
PSTATMODEL	IQUANT	5	Pstat Model
PSTATSECTION	LABEL	REF3000-21114	Pstat Section
PSTATSERIALNO	LABEL	21114	Pstat Serial Number
CTRLMODE	IQUANT	0	Control Mode
ELECTROMETER	IQUANT	0	RE=0 or CS=1
IESTAB	IQUANT	0	I/E Stability
CASPEED	IQUANT	4	Control Amp Speed
CONVENTION	IQUANT	1	Current Convention
ICHRANGE	IQUANT	2	Ich Range
ICHRANGEMODE	TOGGLE	T	Ich Auto Range
ICHOFFSETENABLE	TOGGLE	F	Ich Offset Enable
ICHOFFSET	QUANT	0	Ich Offset (V)
ICHFILTER	IQUANT	1	Ich Filter
VCHRANGE	IQUANT	3	Vch Range
VCHRANGEMODE	TOGGLE	T	Vch Auto Range
VCHOFFSETENABLE	TOGGLE	F	Vch Offset Enable
VCHOFFSET	QUANT	0	Vch Offset (V)
VCHFILTER	IQUANT	1	Vch Filter
ACHRANGE	IQUANT	2	Ach Range
ACHOFFSETENABLE	TOGGLE	F	Ach Offset Enable
ACHOFFSET	QUANT	0	Ach Offset (V)
ACHFILTER	IQUANT	1	Ach Filter
IERANGELOWERLIMIT	IQUANT	9	I/E Range Lower Limit
IERANGEMODE	TOGGLE	F	I/E AutoRange
IERANGE	IQUANT	9	I/E Range
POSFEEDENABLE	TOGGLE	F	Positive Feedback IR Comp
POSFEEDRESISTANCE	QUANT	0	Positive Feedback Resistance (ohm)
ACHSELECT	IQUANT	1	Ach Select
SENSECABLEID	IQUANT	13	Sense Cable ID
PWRCABLEID	IQUANT	13	Power Cable ID
DCCALDATE	LABEL		DC Calibration Date
ACCALDATE	LABEL		AC Calibration Date
THERMOSELECT	IQUANT	1	Thermo Select
FRAMEWORKVERSION	LABEL	7.8.6	Framework Version
INSTRUMENTVERSION	LABEL	4.50	Instrument Version
COMPLIANCEVOLTAGE	IQUANT	0	Compliance Voltage
CURVE	TABLE	227
	Pt	T	Vf	Im	Vu	Pwr	Sig	Ach	Temp	IERange	Over	Vf1	Vf2	Vf3	Vf4	Vf5	Vf6	Vf7	Vf8	Pwr1	Pwr2	Pwr3	Pwr4	Pwr5	Pwr6	Pwr7	Pwr8
	#	s	V	A	V	W	V	V	deg C	#	bits	V	V	V	V	V	V	V	V	W	W	W	W	W	W	W	W
	0	1	4.85539E-001	9.98553E-002	0.00000E+000	4.84837E-002	9.94000E-001	4.35168E-002	4.10473E+001	11	...........	7.23144E-002	-5.32750E-003	6.04000E-001	5.41287E-001	-2.68176E-002	-3.81401E-002	7.05073E-001	-4.37826E-002	7.22098E-003	-5.31979E-004	6.03126E-002	5.40503E-002	-2.67788E-003	-3.80850E-003	7.04053E-002	-4.37193E-003
	1	2	6.25858E-001	9.98561E-002	0.00000E+000	6.24958E-002	9.94000E-001	4.33592E-002	4.26096E+001	11	...........	7.20350E-002	-5.31875E-003	6.04130E-001	5.41215E-001	-2.68085E-002	-3.81464E-002	7.05146E-001	-4.38925E-002	7.19314E-003	-5.31110E-004	6.03261E-002	5.40436E-002	-2.67699E-003	-3.80915E-003	7.04132E-002	-4.38294E-003
	2	3	8.28101E-001	9.98564E-002	0.00000E+000	8.26912E-002	9.94000E-001	4.42992E-002	4.71425E+001	11	...........	7.35529E-002	-5.34375E-003	6.04314E-001	5.41182E-001	-2.68336E-002	-3.81362E-002	7.05252E-001	-4.38867E-002	7.34473E-003	-5.33608E-004	6.03447E-002	5.40405E-002	-2.67951E-003	-3.80815E-003	7.04239E-002	-4.38237E-003
	3	3.285	1.05268E+000	9.98574E-002	0.00000E+000	1.05118E-001	9.94000E-001	4.47892E-002	5.23714E+001	11	...........	7.43991E-002	-5.33285E-003	6.04438E-001	5.41253E-001	-2.69128E-002	-3.81335E-002	7.05350E-001	-4.39444E-002	7.42930E-003	-5.32524E-004	6.03576E-002	5.40481E-002	-2.68744E-003	-3.80791E-003	7.04344E-002	-4.38818E-003
	4	4	1.10058E+000	7.52672E-002	0.00000E+000	8.28377E-002	7.49475E-001	4.43677E-002	5.26990E+001	11	...........	7.36692E-002	-5.34266E-003	6.04486E-001	5.41115E-001	-2.68568E-002	-3.81377E-002	7.05179E-001	-4.39095E-002	5.54487E-003	-4.02127E-004	4.54980E-002	4.07282E-002	-2.02144E-003	-2.87052E-003	5.30768E-002	-3.30494E-003
	5	5	1.10015E+000	6.17086E-002	0.00000E+000	6.78888E-002	6.14649E-001	4.41754E-002	5.13172E+001	11	...........	7.33525E-002	-5.30208E-003	6.04507E-001	5.40959E-001	-2.68907E-002	-3.81067E-002	7.05037E-001	-4.38728E-002	4.52648E-003	-3.27184E-004	3.73033E-002	3.33818E-002	-1.65939E-003	-2.35151E-003	4.35069E-002	-2.70733E-003
	6	6	1.10023E+000	5.60907E-002	0.00000E+000	6.17126E-002	5.58782E-001	4.41949E-002	5.08952E+001	11	...........	7.33835E-002	-5.26042E-003	6.04367E-001	5.40857E-001	-2.69406E-002	-3.80715E-002	7.05126E-001	-4.38115E-002	4.11613E-003	-2.95061E-004	3.38994E-002	3.03370E-002	-1.51112E-003	-2.13546E-003	3.95510E-002	-2.45742E-003
	7	7	1.10002E+000	5.34793E-002	0.00000E+000	5.88284E-002	5.32816E-001	4.41443E-002	5.07939E+001	11	...........	7.33224E-002	-5.30125E-003	6.04264E-001	5.40898E-001	-2.69349E-002	-3.80685E-002	7.05182E-001	-4.38522E-002	3.92123E-003	-2.83507E-004	3.23156E-002	2.89268E-002	-1.44046E-003	-2.03587E-003	3.77126E-002	-2.34518E-003
	8	8	1.10007E+000	5.22023E-002	0.00000E+000	5.74263E-002	5.20123E-001	4.41688E-002	5.05845E+001	11	...........	7.33617E-002	-5.30750E-003	6.04390E-001	5.40888E-001	-2.69211E-002	-3.80904E-002	7.05202E-001	-4.38674E-002	3.82965E-003	-2.77064E-004	3.15505E-002	2.82356E-002	-1.40534E-003	-1.98841E-003	3.68131E-002	-2.28998E-003
	9	9	1.10019E+000	5.08186E-002	0.00000E+000	5.59101E-002	5.06362E-001	4.41695E-002	5.04442E+001	11	...........	7.33599E-002	-5.27236E-003	6.04239E-001	5.40913E-001	-2.68450E-002	-3.80931E-002	7.05248E-001	-4.38689E-002	3.72805E-003	-2.67934E-004	3.07066E-002	2.74884E-002	-1.36423E-003	-1.93584E-003	3.58397E-002	-2.22936E-003
	10	10	1.10002E+000	5.00930E-002	0.00000E+000	5.51032E-002	4.99144E-001	4.41274E-002	5.02730E+001	11	...........	7.32668E-002	-5.23986E-003	6.04030E-001	5.40966E-001	-2.67954E-002	-3.80811E-002	7.05162E-001	-4.38189E-002	3.67015E-003	-2.62480E-004	3.02577E-002	2.70986E-002	-1.34226E-003	-1.90760E-003	3.53237E-002	-2.19502E-003
	11	11	1.10006E+000	4.99078E-002	0.00000E+000	5.49015E-002	4.97305E-001	4.41622E-002	5.00109E+001	11	...........	7.33282E-002	-5.22347E-003	6.03989E-001	5.40879E-001	-2.67775E-002	-3.80832E-002	7.05151E-001	-4.38175E-002	3.65965E-003	-2.60692E-004	3.01438E-002	2.69941E-002	-1.33641E-003	-1.90065E-003	3.51926E-002	-2.18684E-003
	12	12	1.10018E+000	4.92438E-002	0.00000E+000	5.41771E-002	4.90708E-001	4.40927E-002	4.88761E+001	11	...........	7.32221E-002	-5.28722E-003	6.03961E-001	5.41097E-001	-2.67882E-002	-3.80875E-002	7.05016E-001	-4.38638E-002	3.60574E-003	-2.60363E-004	2.97414E-002	2.66457E-002	-1.31915E-003	-1.87557E-003	3.47177E-002	-2.16002E-003
	13	13	1.10002E+000	4.88543E-002	0.00000E+000	5.37405E-002	4.86835E-001	4.39372E-002	4.92709E+001	11	...........	7.29865E-002	-5.25653E-003	6.03874E-001	5.41316E-001	-2.67893E-002	-3.80936E-002	7.04934E-001	-4.38140E-002	3.56571E-003	-2.56804E-004	2.95019E-002	2.64456E-002	-1.30877E-003	-1.86104E-003	3.44391E-002	-2.14051E-003
	14	14	1.10006E+000	4.88851E-002	0.00000E+000	5.37764E-002	4.87143E-001	4.41634E-002	4.98008E+001	11	...........	7.33365E-002	-5.24333E-003	6.03868E-001	5.41320E-001	-2.67901E-002	-3.81114E-002	7.04982E-001	-4.38389E-002	3.58507E-003	-2.56321E-004	2.95202E-002	2.64625E-002	-1.30964E-003	-1.86308E-003	3.44631E-002	-2.14307E-003
	15	15	1.10018E+000	4.83953E-002	0.00000E+000	5.32433E-002	4.82267E-001	4.40101E-002	4.98328E+001	11	...........	7.31081E-002	-5.18583E-003	6.03751E-001	5.41361E-001	-2.67893E-002	-3.81096E-002	7.05063E-001	-4.36882E-002	3.53808E-003	-2.50970E-004	2.92187E-002	2.61993E-002	-1.29648E-003	-1.84432E-003	3.41217E-002	-2.11430E-003
	16	16	1.10002E+000	4.81159E-002	0.00000E+000	5.29285E-002	4.79493E-001	4.39577E-002	4.97850E+001	11	...........	7.30114E-002	-5.18403E-003	6.03771E-001	5.41295E-001	-2.68018E-002	-3.80933E-002	7.05106E-001	-4.34743E-002	3.51301E-003	-2.49434E-004	2.90510E-002	2.60449E-002	-1.28959E-003	-1.83290E-003	3.39268E-002	-2.09181E-003
	17	17	1.10005E+000	4.82561E-002	0.00000E+000	5.30843E-002	4.80889E-001	4.39456E-002	4.97606E+001	11	...........	7.29900E-002	-5.23292E-003	6.03706E-001	5.41273E-001	-2.68035E-002	-3.80729E-002	7.05236E-001	-4.37756E-002	3.52221E-003	-2.52520E-004	2.91325E-002	2.61197E-002	-1.29343E-003	-1.83725E-003	3.40319E-002	-2.11244E-003
	18	18	1.10017E+000	4.78477E-002	0.00000E+000	5.26408E-002	4.76829E-001	4.39165E-002	4.97653E+001	11	...........	7.29446E-002	-5.26292E-003	6.03623E-001	5.41266E-001	-2.68042E-002	-3.80725E-002	7.05279E-001	-4.38825E-002	3.49023E-003	-2.51819E-004	2.88820E-002	2.58983E-002	-1.28252E-003	-1.82168E-003	3.37460E-002	-2.09968E-003
	19	19	1.10002E+000	4.75296E-002	0.00000E+000	5.22837E-002	4.73669E-001	4.38535E-002	4.97316E+001	11	...........	7.28318E-002	-5.31681E-003	6.03656E-001	5.41063E-001	-2.67926E-002	-3.80797E-002	7.05190E-001	-4.38688E-002	3.46167E-003	-2.52706E-004	2.86915E-002	2.57165E-002	-1.27344E-003	-1.80991E-003	3.35174E-002	-2.08506E-003
	20	20	1.10005E+000	4.77236E-002	0.00000E+000	5.24985E-002	4.75601E-001	4.37512E-002	4.97133E+001	11	...........	7.28815E-002	-5.31208E-003	6.03688E-001	5.40876E-001	-2.68064E-002	-3.80732E-002	7.05214E-001	-4.37961E-002	3.47817E-003	-2.53512E-004	2.88102E-002	2.58126E-002	-1.27930E-003	-1.81699E-003	3.36553E-002	-2.09011E-003
	21	21	1.10017E+000	4.74071E-002	0.00000E+000	5.21560E-002	4.72451E-001	4.35910E-002	4.70895E+001	11	...........	7.27457E-002	-5.28694E-003	6.03937E-001	5.40935E-001	-2.68014E-002	-3.80567E-002	7.05311E-001	-4.38428E-002	3.44867E-003	-2.50639E-004	2.86309E-002	2.56442E-002	-1.27058E-003	-1.80416E-003	3.34368E-002	-2.07846E-003
	22	22	1.10003E+000	4.69119E-002	0.00000E+000	5.16044E-002	4.67529E-001	4.32078E-002	4.85896E+001	11	...........	7.21421E-002	-5.25153E-003	6.03692E-001	5.40888E-001	-2.68174E-002	-3.80664E-002	7.05287E-001	-4.39453E-002	3.38432E-003	-2.46359E-004	2.83203E-002	2.53741E-002	-1.25805E-003	-1.78577E-003	3.30863E-002	-2.06156E-003
	23	23	1.10005E+000	4.72864E-002	0.00000E+000	5.20174E-002	4.71254E-001	4.35510E-002	4.98441E+001	11	...........	7.26999E-002	-5.27500E-003	6.03812E-001	5.40862E-001	-2.68221E-002	-3.80604E-002	7.05226E-001	-4.39390E-002	3.43771E-003	-2.49436E-004	2.85521E-002	2.55754E-002	-1.26832E-003	-1.79974E-003	3.33476E-002	-2.07772E-003
	24	24	1.10017E+000	4.69322E-002	0.00000E+000	5.16333E-002	4.67726E-001	4.34626E-002	4.99528E+001	11	...........	7.25610E-002	-5.31417E-003	6.03929E-001	5.41005E-001	-2.68179E-002	-3.80715E-002	7.05310E-001	-4.39297E-002	3.40545E-003	-2.49406E-004	2.83437E-002	2.53906E-002	-1.25862E-003	-1.78678E-003	3.31017E-002	-2.06172E-003
	25	25	1.10003E+000	4.66194E-002	0.00000E+000	5.12827E-002	4.64617E-001	4.33228E-002	4.98262E+001	11	...........	7.23176E-002	-5.24500E-003	6.03938E-001	5.40759E-001	-2.68242E-002	-3.80618E-002	7.05284E-001	-4.38749E-002	3.37140E-003	-2.44519E-004	2.81552E-002	2.52098E-002	-1.25053E-003	-1.77442E-003	3.28799E-002	-2.04542E-003
	26	26	1.10005E+000	4.68062E-002	0.00000E+000	5.14892E-002	4.66474E-001	4.33417E-002	4.98085E+001	11	...........	7.23451E-002	-5.15528E-003	6.04047E-001	5.40677E-001	-2.68236E-002	-3.80232E-002	7.05302E-001	-4.39219E-002	3.38620E-003	-2.41299E-004	2.82731E-002	2.53070E-002	-1.25551E-003	-1.77972E-003	3.30125E-002	-2.05582E-003
	27	27	1.10017E+000	4.64876E-002	0.00000E+000	5.11440E-002	4.63309E-001	4.34183E-002	4.97234E+001	11	...........	7.24736E-002	-5.14569E-003	6.04008E-001	5.40617E-001	-2.68396E-002	-3.80225E-002	7.05324E-001	-4.38693E-002	3.36912E-003	-2.39211E-004	2.80788E-002	2.51319E-002	-1.24771E-003	-1.76757E-003	3.27888E-002	-2.03938E-003
	28	28	1.10004E+000	4.61241E-002	0.00000E+000	5.07381E-002	4.59692E-001	4.31344E-002	4.72130E+001	11	...........	7.20119E-002	-5.18611E-003	6.04069E-001	5.40549E-001	-2.68507E-002	-3.80247E-002	7.05250E-001	-4.37951E-002	3.32149E-003	-2.39205E-004	2.78621E-002	2.49323E-002	-1.23846E-003	-1.75386E-003	3.25290E-002	-2.02001E-003
	29	29	1.10005E+000	4.64147E-002	0.00000E+000	5.10584E-002	4.62583E-001	4.32797E-002	4.92071E+001	11	...........	7.22356E-002	-5.25736E-003	6.03946E-001	5.40566E-001	-2.68528E-002	-3.79942E-002	7.05172E-001	-4.38558E-002	3.35279E-003	-2.44019E-004	2.80319E-002	2.50902E-002	-1.24636E-003	-1.76349E-003	3.27303E-002	-2.03555E-003
	30	30	1.10016E+000	4.61165E-002	0.00000E+000	5.07355E-002	4.59619E-001	4.32611E-002	4.97626E+001	11	...........	7.21972E-002	-5.30056E-003	6.04149E-001	5.40586E-001	-2.68329E-002	-3.80011E-002	7.05186E-001	-4.39021E-002	3.32948E-003	-2.44443E-004	2.78612E-002	2.49299E-002	-1.23744E-003	-1.75248E-003	3.25207E-002	-2.02461E-003
	31	31	1.10004E+000	4.58341E-002	0.00000E+000	5.04194E-002	4.56810E-001	4.33179E-002	4.93200E+001	11	...........	7.22703E-002	-5.31486E-003	6.04262E-001	5.40517E-001	-2.68242E-002	-3.79908E-002	7.05219E-001	-4.39275E-002	3.31245E-003	-2.43602E-004	2.76958E-002	2.47742E-002	-1.22946E-003	-1.74128E-003	3.23231E-002	-2.01338E-003
	32	32	1.10005E+000	4.60038E-002	0.00000E+000	5.06064E-002	4.58499E-001	4.32105E-002	4.92117E+001	11	...........	7.21174E-002	-5.31028E-003	6.04256E-001	5.40680E-001	-2.68301E-002	-3.80044E-002	7.05356E-001	-4.40106E-002	3.31767E-003	-2.44293E-004	2.77981E-002	2.48733E-002	-1.23429E-003	-1.74835E-003	3.24491E-002	-2.02465E-003
	33	33	1.10016E+000	4.57444E-002	0.00000E+000	5.03261E-002	4.55918E-001	4.31872E-002	4.94271E+001	11	...........	7.20797E-002	-5.32792E-003	6.04258E-001	5.40549E-001	-2.68240E-002	-3.80283E-002	7.05204E-001	-4.40236E-002	3.29724E-003	-2.43722E-004	2.76414E-002	2.47271E-002	-1.22705E-003	-1.73958E-003	3.22591E-002	-2.01383E-003
	34	34	1.10004E+000	4.54107E-002	0.00000E+000	4.99536E-002	4.52599E-001	4.31637E-002	4.95186E+001	11	...........	7.20497E-002	-5.31389E-003	6.04340E-001	5.40425E-001	-2.68111E-002	-3.80331E-002	7.05222E-001	-4.39497E-002	3.27183E-003	-2.41307E-004	2.74435E-002	2.45411E-002	-1.21751E-003	-1.72711E-003	3.20246E-002	-1.99579E-003
	35	35	1.10005E+000	4.56581E-002	0.00000E+000	5.02261E-002	4.55064E-001	4.31651E-002	4.94837E+001	11	...........	7.20458E-002	-5.31139E-003	6.04259E-001	5.40341E-001	-2.68207E-002	-3.80387E-002	7.05251E-001	-4.39612E-002	3.28948E-003	-2.42508E-004	2.75893E-002	2.46709E-002	-1.22458E-003	-1.73678E-003	3.22004E-002	-2.00719E-003
	36	36	1.10016E+000	4.53843E-002	0.00000E+000	4.99300E-002	4.52338E-001	4.31735E-002	4.77121E+001	11	...........	7.20621E-002	-5.30278E-003	6.04253E-001	5.40540E-001	-2.68846E-002	-3.80396E-002	7.05265E-001	-4.38974E-002	3.27049E-003	-2.40663E-004	2.74236E-002	2.45320E-002	-1.22014E-003	-1.72640E-003	3.20080E-002	-1.99225E-003
	37	37	1.10004E+000	4.49907E-002	0.00000E+000	4.94918E-002	4.48426E-001	4.28582E-002	4.81543E+001	11	...........	7.15614E-002	-5.26542E-003	6.04239E-001	5.40574E-001	-2.69250E-002	-3.80356E-002	7.05211E-001	-4.38849E-002	3.21960E-003	-2.36895E-004	2.71852E-002	2.43208E-002	-1.21138E-003	-1.71125E-003	3.17280E-002	-1.97441E-003
	38	38	1.10005E+000	4.52579E-002	0.00000E+000	4.97857E-002	4.51082E-001	4.30618E-002	4.92739E+001	11	...........	7.18956E-002	-5.27181E-003	6.04485E-001	5.40452E-001	-2.69433E-002	-3.80482E-002	7.05352E-001	-4.40025E-002	3.25384E-003	-2.38591E-004	2.73577E-002	2.44597E-002	-1.21940E-003	-1.72198E-003	3.19228E-002	-1.99146E-003
	39	39	1.10016E+000	4.50310E-002	0.00000E+000	4.95411E-002	4.48823E-001	4.30995E-002	4.93512E+001	11	...........	7.19582E-002	-5.25083E-003	6.04540E-001	5.40404E-001	-2.69382E-002	-3.80537E-002	7.05200E-001	-4.40537E-002	3.24035E-003	-2.36450E-004	2.72230E-002	2.43349E-002	-1.21305E-003	-1.71360E-003	3.17559E-002	-1.98378E-003
	40	40	1.10005E+000	4.46895E-002	0.00000E+000	4.91606E-002	4.45428E-001	4.27537E-002	4.93433E+001	11	...........	7.18525E-002	-5.24819E-003	6.04639E-001	5.40318E-001	-2.69054E-002	-3.80661E-002	7.05177E-001	-4.40008E-002	3.21105E-003	-2.34539E-004	2.70210E-002	2.41466E-002	-1.20239E-003	-1.70116E-003	3.15140E-002	-1.96637E-003
	41	41	1.10004E+000	4.49169E-002	0.00000E+000	4.94106E-002	4.47689E-001	4.29986E-002	4.94142E+001	11	...........	7.17976E-002	-5.30542E-003	6.04659E-001	5.40350E-001	-2.68667E-002	-3.80604E-002	7.05156E-001	-4.39210E-002	3.22493E-003	-2.38303E-004	2.71594E-002	2.42709E-002	-1.20677E-003	-1.70956E-003	3.16734E-002	-1.97279E-003
	42	42	1.10015E+000	4.47007E-002	0.00000E+000	4.91776E-002	4.45537E-001	4.29069E-002	4.93550E+001	11	...........	7.16674E-002	-5.28389E-003	6.04723E-001	5.40357E-001	-2.68143E-002	-3.80592E-002	7.05053E-001	-4.38376E-002	3.20358E-003	-2.36194E-004	2.70315E-002	2.41543E-002	-1.19862E-003	-1.70127E-003	3.15163E-002	-1.95957E-003
	43	43	1.10005E+000	4.43286E-002	0.00000E+000	4.87637E-002	4.41835E-001	4.28926E-002	4.81829E+001	11	...........	7.16596E-002	-5.29167E-003	6.04635E-001	5.40413E-001	-2.68011E-002	-3.80893E-002	7.05231E-001	-4.38132E-002	3.17657E-003	-2.34572E-004	2.68026E-002	2.39557E-002	-1.18805E-003	-1.68844E-003	3.12619E-002	-1.94218E-003
	44	44	1.10004E+000	4.45022E-002	0.00000E+000	4.89542E-002	4.43564E-001	4.24907E-002	4.76053E+001	11	...........	7.09460E-002	-5.26694E-003	6.04633E-001	5.40544E-001	-2.68106E-002	-3.80907E-002	7.05175E-001	-4.38992E-002	3.15725E-003	-2.34390E-004	2.69075E-002	2.40554E-002	-1.19313E-003	-1.69512E-003	3.13818E-002	-1.95361E-003
	45	45	1.10015E+000	4.44438E-002	0.00000E+000	4.88948E-002	4.42987E-001	4.30468E-002	4.93041E+001	11	...........	7.19124E-002	-5.18972E-003	6.04710E-001	5.40492E-001	-2.68142E-002	-3.81014E-002	7.05209E-001	-4.40469E-002	3.19606E-003	-2.30651E-004	2.68756E-002	2.40215E-002	-1.19172E-003	-1.69337E-003	3.13422E-002	-1.95761E-003
	46	46	1.10006E+000	4.40209E-002	0.00000E+000	4.84256E-002	4.38782E-001	4.28083E-002	4.94251E+001	11	...........	7.14881E-002	-5.17167E-003	6.04650E-001	5.40378E-001	-2.68143E-002	-3.81010E-002	7.05283E-001	-4.40649E-002	3.14697E-003	-2.27662E-004	2.66173E-002	2.37879E-002	-1.18039E-003	-1.67724E-003	3.10472E-002	-1.93978E-003
	47	47	1.10004E+000	4.42364E-002	0.00000E+000	4.86619E-002	4.40927E-001	4.27052E-002	4.93850E+001	11	...........	7.12883E-002	-5.17889E-003	6.04707E-001	5.40420E-001	-2.68212E-002	-3.80831E-002	7.05218E-001	-4.39590E-002	3.15354E-003	-2.29095E-004	2.67500E-002	2.39062E-002	-1.18648E-003	-1.68466E-003	3.11963E-002	-1.94459E-003
	48	48	1.10015E+000	4.40078E-002	0.00000E+000	4.84151E-002	4.38653E-001	4.27011E-002	4.93671E+001	11	...........	7.12974E-002	-5.26375E-003	6.04668E-001	5.40553E-001	-2.68212E-002	-3.80862E-002	7.05249E-001	-4.38994E-002	3.13764E-003	-2.31646E-004	2.66101E-002	2.37886E-002	-1.18035E-003	-1.67609E-003	3.10365E-002	-1.93192E-003
	49	49	1.10006E+000	4.36642E-002	0.00000E+000	4.80332E-002	4.35232E-001	4.26587E-002	4.94516E+001	11	...........	7.12167E-002	-5.29403E-003	6.04646E-001	5.40698E-001	-2.68183E-002	-3.80771E-002	7.05243E-001	-4.38544E-002	3.10962E-003	-2.31159E-004	2.64014E-002	2.36091E-002	-1.17100E-003	-1.66260E-003	3.07939E-002	-1.91487E-003
	50	50	1.10004E+000	4.38854E-002	0.00000E+000	4.82757E-002	4.37430E-001	4.26504E-002	4.95022E+001	11	...........	7.12207E-002	-5.27097E-003	6.04671E-001	5.40590E-001	-2.68118E-002	-3.80885E-002	7.05039E-001	-4.39218E-002	3.12555E-003	-2.31319E-004	2.65362E-002	2.37240E-002	-1.17665E-003	-1.67153E-003	3.09409E-002	-1.92752E-003
	51	51	1.10015E+000	4.36628E-002	0.00000E+000	4.80355E-002	4.35219E-001	4.25992E-002	4.66479E+001	11	...........	7.11160E-002	-5.26292E-003	6.04714E-001	5.40615E-001	-2.68175E-002	-3.81049E-002	7.05046E-001	-4.39244E-002	3.10512E-003	-2.29794E-004	2.64035E-002	2.36048E-002	-1.17093E-003	-1.66376E-003	3.07843E-002	-1.91786E-003
	52	52	1.10006E+000	4.33068E-002	0.00000E+000	4.76402E-002	4.31677E-001	4.25325E-002	4.88270E+001	11	...........	7.09967E-002	-5.20750E-003	6.04600E-001	5.40517E-001	-2.68126E-002	-3.80772E-002	7.05081E-001	-4.38794E-002	3.07464E-003	-2.25520E-004	2.61833E-002	2.34081E-002	-1.16117E-003	-1.64900E-003	3.05348E-002	-1.90028E-003
	53	53	1.10004E+000	4.35602E-002	0.00000E+000	4.79179E-002	4.34195E-001	4.25131E-002	4.86621E+001	11	...........	7.09646E-002	-5.24917E-003	6.04660E-001	5.40551E-001	-2.67961E-002	-3.80872E-002	7.05160E-001	-4.39094E-002	3.09123E-003	-2.28655E-004	2.63391E-002	2.35465E-002	-1.16724E-003	-1.65909E-003	3.07169E-002	-1.91270E-003
	54	54	1.10014E+000	4.33608E-002	0.00000E+000	4.77029E-002	4.32217E-001	4.23308E-002	4.86189E+001	11	...........	7.06806E-002	-5.24542E-003	6.04697E-001	5.40395E-001	-2.67697E-002	-3.80883E-002	7.05122E-001	-4.39693E-002	3.06476E-003	-2.27445E-004	2.62201E-002	2.34320E-002	-1.16076E-003	-1.65154E-003	3.05746E-002	-1.90654E-003
	55	55	1.10007E+000	4.30198E-002	0.00000E+000	4.73248E-002	4.28825E-001	4.26757E-002	4.94265E+001	11	...........	7.12412E-002	-5.28431E-003	6.04705E-001	5.40654E-001	-2.67950E-002	-3.80589E-002	7.05157E-001	-4.39621E-002	3.06478E-003	-2.27330E-004	2.60143E-002	2.32588E-002	-1.15271E-003	-1.63728E-003	3.03357E-002	-1.89124E-003
	56	56	1.10004E+000	4.31853E-002	0.00000E+000	4.75054E-002	4.30466E-001	4.24734E-002	4.95577E+001	11	...........	7.08804E-002	-5.23639E-003	6.04636E-001	5.40778E-001	-2.68028E-002	-3.80400E-002	7.05136E-001	-4.39479E-002	3.06099E-003	-2.26135E-004	2.61114E-002	2.33537E-002	-1.15749E-003	-1.64277E-003	3.04515E-002	-1.89790E-003
	57	57	1.10014E+000	4.31010E-002	0.00000E+000	4.74170E-002	4.29627E-001	4.24063E-002	4.94993E+001	11	...........	7.08189E-002	-5.22958E-003	6.04614E-001	5.40566E-001	-2.68526E-002	-3.80447E-002	7.05221E-001	-4.39171E-002	3.05236E-003	-2.25400E-004	2.60595E-002	2.32989E-002	-1.15737E-003	-1.63976E-003	3.03957E-002	-1.89287E-003
	58	58	1.10007E+000	4.26874E-002	0.00000E+000	4.69593E-002	4.25517E-001	4.24013E-002	4.95940E+001	11	...........	7.08081E-002	-5.24028E-003	6.04579E-001	5.40453E-001	-2.68706E-002	-3.80282E-002	7.05137E-001	-4.38118E-002	3.02261E-003	-2.23694E-004	2.58079E-002	2.30706E-002	-1.14703E-003	-1.62333E-003	3.01005E-002	-1.87021E-003
	59	59	1.10004E+000	4.28682E-002	0.00000E+000	4.71566E-002	4.27314E-001	4.23461E-002	4.95360E+001	11	...........	7.07100E-002	-5.24361E-003	6.04505E-001	5.40388E-001	-2.68401E-002	-3.80354E-002	7.05191E-001	-4.40058E-002	3.03121E-003	-2.24784E-004	2.59140E-002	2.31654E-002	-1.15059E-003	-1.63051E-003	3.02302E-002	-1.88645E-003
	60	60	1.10013E+000	4.27467E-002	0.00000E+000	4.70272E-002	4.26107E-001	4.23274E-002	4.95336E+001	11	...........	7.06779E-002	-5.14889E-003	6.04471E-001	5.40335E-001	-2.68049E-002	-3.80225E-002	7.05194E-001	-4.41146E-002	3.02125E-003	-2.20098E-004	2.58392E-002	2.30976E-002	-1.14582E-003	-1.62534E-003	3.01448E-002	-1.88575E-003
	61	61	1.10008E+000	4.23657E-002	0.00000E+000	4.66055E-002	4.22320E-001	4.23342E-002	4.89566E+001	11	...........	7.06794E-002	-5.14069E-003	6.04541E-001	5.40308E-001	-2.67985E-002	-3.80044E-002	7.05257E-001	-4.41054E-002	2.99438E-003	-2.17789E-004	2.56118E-002	2.28905E-002	-1.13534E-003	-1.61008E-003	2.98787E-002	-1.86856E-003
	62	62	1.10003E+000	4.25827E-002	0.00000E+000	4.68424E-002	4.24477E-001	4.22841E-002	4.93059E+001	11	...........	7.06072E-002	-5.15250E-003	6.04478E-001	5.40227E-001	-2.67854E-002	-3.80250E-002	7.05357E-001	-4.41446E-002	3.00665E-003	-2.19407E-004	2.57403E-002	2.30043E-002	-1.14060E-003	-1.61921E-003	3.00360E-002	-1.87980E-003
	63	63	1.10013E+000	4.24528E-002	0.00000E+000	4.67038E-002	4.23188E-001	4.22712E-002	4.93139E+001	11	...........	7.05760E-002	-5.25111E-003	6.04273E-001	5.40253E-001	-2.67961E-002	-3.80135E-002	7.05300E-001	-4.40221E-002	2.99615E-003	-2.22924E-004	2.56531E-002	2.29353E-002	-1.13757E-003	-1.61378E-003	2.99419E-002	-1.86886E-003
	64	64	1.10008E+000	4.20318E-002	0.00000E+000	4.62385E-002	4.19003E-001	4.22613E-002	4.60682E+001	11	...........	7.05506E-002	-5.24528E-003	6.04154E-001	5.40308E-001	-2.68747E-002	-3.80051E-002	7.05282E-001	-4.38911E-002	2.96537E-003	-2.20468E-004	2.53937E-002	2.27101E-002	-1.12959E-003	-1.59742E-003	2.96443E-002	-1.84482E-003
	65	65	1.10003E+000	4.22039E-002	0.00000E+000	4.64256E-002	4.20711E-001	4.20244E-002	4.83329E+001	11	...........	7.01586E-002	-5.22403E-003	6.04053E-001	5.40257E-001	-2.69019E-002	-3.80146E-002	7.05207E-001	-4.39242E-002	2.96097E-003	-2.20474E-004	2.54934E-002	2.28010E-002	-1.13537E-003	-1.60436E-003	2.97625E-002	-1.85377E-003
	66	66	1.10013E+000	4.21294E-002	0.00000E+000	4.63478E-002	4.19970E-001	4.22435E-002	4.91950E+001	11	...........	7.05249E-002	-5.23264E-003	6.04371E-001	5.40378E-001	-2.68017E-002	-3.80124E-002	7.05226E-001	-4.38906E-002	2.97117E-003	-2.20448E-004	2.54618E-002	2.27658E-002	-1.12914E-003	-1.60144E-003	2.97108E-002	-1.84908E-003
	67	67	1.10009E+000	4.16888E-002	0.00000E+000	4.58613E-002	4.15588E-001	4.21369E-002	4.93339E+001	11	...........	7.03387E-002	-5.19625E-003	6.04443E-001	5.40368E-001	-2.68042E-002	-3.79986E-002	7.05217E-001	-4.39018E-002	2.93234E-003	-2.16625E-004	2.51985E-002	2.25273E-002	-1.11743E-003	-1.58412E-003	2.93997E-002	-1.83021E-003
	68	68	1.10003E+000	4.18965E-002	0.00000E+000	4.60876E-002	4.17653E-001	4.21509E-002	4.76283E+001	11	...........	7.03560E-002	-5.26167E-003	6.04537E-001	5.40502E-001	-2.68031E-002	-3.79496E-002	7.05147E-001	-4.38790E-002	2.94767E-003	-2.20445E-004	2.53280E-002	2.26451E-002	-1.12295E-003	-1.58995E-003	2.95432E-002	-1.83838E-003
	69	69	1.10012E+000	4.17868E-002	0.00000E+000	4.59707E-002	4.16564E-001	4.19258E-002	4.86347E+001	11	...........	6.99904E-002	-5.24861E-003	6.04332E-001	5.40619E-001	-2.69026E-002	-3.79200E-002	7.05074E-001	-4.39521E-002	2.92468E-003	-2.19323E-004	2.52531E-002	2.25907E-002	-1.12418E-003	-1.58456E-003	2.94628E-002	-1.83662E-003
	70	70	1.10009E+000	4.13962E-002	0.00000E+000	4.55396E-002	4.12681E-001	4.22970E-002	4.94130E+001	11	...........	7.06278E-002	-5.32139E-003	6.04359E-001	5.40598E-001	-2.69231E-002	-3.79408E-002	7.05281E-001	-4.39897E-002	2.92372E-003	-2.20285E-004	2.50182E-002	2.23787E-002	-1.11451E-003	-1.57061E-003	2.91960E-002	-1.82101E-003
	71	71	1.10003E+000	4.15854E-002	0.00000E+000	4.57452E-002	4.14564E-001	4.20338E-002	4.94182E+001	11	...........	7.01828E-002	-5.30528E-003	6.04509E-001	5.40668E-001	-2.68235E-002	-3.79379E-002	7.05406E-001	-4.38744E-002	2.91858E-003	-2.20622E-004	2.51387E-002	2.24839E-002	-1.11546E-003	-1.57766E-003	2.93346E-002	-1.82454E-003
	72	72	1.10012E+000	4.15412E-002	0.00000E+000	4.57005E-002	4.14121E-001	4.20018E-002	4.93759E+001	11	...........	7.01321E-002	-5.26597E-003	6.04545E-001	5.40593E-001	-2.68181E-002	-3.79128E-002	7.05421E-001	-4.38881E-002	2.91337E-003	-2.18755E-004	2.51135E-002	2.24569E-002	-1.11406E-003	-1.57494E-003	2.93041E-002	-1.82316E-003
	73	73	1.10010E+000	4.10776E-002	0.00000E+000	4.51893E-002	4.09512E-001	4.20264E-002	4.94283E+001	11	...........	7.01772E-002	-5.29306E-003	6.04637E-001	5.40571E-001	-2.68342E-002	-3.78682E-002	7.05337E-001	-4.38512E-002	2.88271E-003	-2.17426E-004	2.48371E-002	2.22054E-002	-1.10228E-003	-1.55554E-003	2.89736E-002	-1.80131E-003
	74	74	1.10003E+000	4.12726E-002	0.00000E+000	4.54011E-002	4.11448E-001	4.19568E-002	4.94834E+001	11	...........	7.00571E-002	-5.26597E-003	6.04684E-001	5.40616E-001	-2.69222E-002	-3.78678E-002	7.05230E-001	-4.38883E-002	2.89143E-003	-2.17340E-004	2.49569E-002	2.23126E-002	-1.11115E-003	-1.56290E-003	2.91066E-002	-1.81138E-003
	75	75	1.10012E+000	4.11941E-002	0.00000E+000	4.53184E-002	4.10669E-001	4.19508E-002	4.95694E+001	11	...........	7.00512E-002	-5.26486E-003	6.04724E-001	5.40572E-001	-2.68465E-002	-3.79269E-002	7.05225E-001	-4.39483E-002	2.88570E-003	-2.16881E-004	2.49111E-002	2.22684E-002	-1.10592E-003	-1.56237E-003	2.90512E-002	-1.81041E-003
	76	76	1.10010E+000	4.07690E-002	0.00000E+000	4.48500E-002	4.06440E-001	4.19317E-002	4.87534E+001	11	...........	7.00129E-002	-5.21000E-003	6.04679E-001	5.40572E-001	-2.68162E-002	-3.79119E-002	7.05157E-001	-4.39300E-002	2.85436E-003	-2.12406E-004	2.46521E-002	2.20386E-002	-1.09327E-003	-1.54563E-003	2.87485E-002	-1.79098E-003
	77	77	1.10003E+000	4.09424E-002	0.00000E+000	4.50379E-002	4.08164E-001	4.19082E-002	4.78963E+001	11	...........	6.99515E-002	-5.17403E-003	6.04686E-001	5.40666E-001	-2.68314E-002	-3.78737E-002	7.05347E-001	-4.38804E-002	2.86398E-003	-2.11837E-004	2.47573E-002	2.21362E-002	-1.09854E-003	-1.55064E-003	2.88786E-002	-1.79657E-003
	78	78	1.10011E+000	4.08794E-002	0.00000E+000	4.49719E-002	4.07540E-001	4.16951E-002	4.80985E+001	11	...........	6.96104E-002	-5.27833E-003	6.04612E-001	5.40650E-001	-2.69450E-002	-3.78701E-002	7.05309E-001	-4.39139E-002	2.84563E-003	-2.15775E-004	2.47161E-002	2.21014E-002	-1.10149E-003	-1.54811E-003	2.88326E-002	-1.79517E-003
	79	79	1.10011E+000	4.04693E-002	0.00000E+000	4.45207E-002	4.03464E-001	4.19032E-002	4.87937E+001	11	...........	6.99499E-002	-5.24250E-003	6.04601E-001	5.40543E-001	-2.69500E-002	-3.79087E-002	7.05259E-001	-4.38826E-002	2.83083E-003	-2.12161E-004	2.44678E-002	2.18754E-002	-1.09065E-003	-1.53414E-003	2.85414E-002	-1.77590E-003
	80	80	1.10003E+000	4.06547E-002	0.00000E+000	4.47214E-002	4.05307E-001	4.18994E-002	4.94668E+001	11	...........	6.99561E-002	-5.28681E-003	6.04643E-001	5.40356E-001	-2.68129E-002	-3.79450E-002	7.05152E-001	-4.39871E-002	2.84405E-003	-2.14934E-004	2.45816E-002	2.19680E-002	-1.09007E-003	-1.54264E-003	2.86677E-002	-1.78828E-003
	81	81	1.10011E+000	4.06181E-002	0.00000E+000	4.46843E-002	4.04941E-001	4.18590E-002	4.85198E+001	11	...........	6.98669E-002	-5.29889E-003	6.04640E-001	5.40231E-001	-2.68299E-002	-3.79333E-002	7.05186E-001	-4.40021E-002	2.83786E-003	-2.15231E-004	2.45593E-002	2.19431E-002	-1.08978E-003	-1.54078E-003	2.86433E-002	-1.78728E-003
	82	82	1.10011E+000	4.01795E-002	0.00000E+000	4.42018E-002	4.00580E-001	4.17802E-002	4.89633E+001	11	...........	6.97328E-002	-5.24819E-003	6.04703E-001	5.40116E-001	-2.68697E-002	-3.78887E-002	7.05167E-001	-4.39369E-002	2.80183E-003	-2.10870E-004	2.42967E-002	2.17016E-002	-1.07961E-003	-1.52235E-003	2.83332E-002	-1.76536E-003
	83	83	1.10003E+000	4.03299E-002	0.00000E+000	4.43641E-002	4.02076E-001	4.18397E-002	4.80456E+001	11	...........	6.98428E-002	-5.25806E-003	6.04798E-001	5.40130E-001	-2.69322E-002	-3.79218E-002	7.05126E-001	-4.38726E-002	2.81676E-003	-2.12057E-004	2.43915E-002	2.17834E-002	-1.08617E-003	-1.52938E-003	2.84377E-002	-1.76938E-003
	84	84	1.10010E+000	4.02984E-002	0.00000E+000	4.43325E-002	4.01764E-001	4.16626E-002	4.86147E+001	11	...........	6.95667E-002	-5.22556E-003	6.04810E-001	5.39978E-001	-2.68146E-002	-3.79707E-002	7.05093E-001	-4.38978E-002	2.80343E-003	-2.10582E-004	2.43729E-002	2.17603E-002	-1.08059E-003	-1.53016E-003	2.84141E-002	-1.76901E-003
	85	85	1.10012E+000	3.98852E-002	0.00000E+000	4.38784E-002	3.97656E-001	4.17372E-002	4.92123E+001	11	...........	6.96708E-002	-5.26875E-003	6.04784E-001	5.40048E-001	-2.68193E-002	-3.79740E-002	7.05167E-001	-4.38764E-002	2.77884E-003	-2.10145E-004	2.41220E-002	2.15399E-002	-1.06969E-003	-1.51460E-003	2.81258E-002	-1.75002E-003
	86	86	1.10003E+000	4.00619E-002	0.00000E+000	4.40691E-002	3.99409E-001	4.17568E-002	4.86773E+001	11	...........	6.96908E-002	-5.30486E-003	6.04742E-001	5.40171E-001	-2.68836E-002	-3.79517E-002	7.05181E-001	-4.39265E-002	2.79194E-003	-2.12523E-004	2.42271E-002	2.16403E-002	-1.07701E-003	-1.52041E-003	2.82509E-002	-1.75978E-003
	87	87	1.10010E+000	4.00627E-002	0.00000E+000	4.40730E-002	3.99418E-001	4.17160E-002	4.88664E+001	11	...........	6.96103E-002	-5.31639E-003	6.04894E-001	5.40135E-001	-2.69094E-002	-3.79912E-002	7.05249E-001	-4.38446E-002	2.78877E-003	-2.12989E-004	2.42337E-002	2.16392E-002	-1.07806E-003	-1.52203E-003	2.82542E-002	-1.75653E-003
	88	88	1.10012E+000	3.95674E-002	0.00000E+000	4.35290E-002	3.94492E-001	4.15808E-002	4.80575E+001	11	...........	6.93962E-002	-5.27167E-003	6.04993E-001	5.40026E-001	-2.67979E-002	-3.80058E-002	7.05302E-001	-4.39972E-002	2.74583E-003	-2.08586E-004	2.39380E-002	2.13674E-002	-1.06032E-003	-1.50379E-003	2.79070E-002	-1.74086E-003
	89	89	1.10002E+000	3.97696E-002	0.00000E+000	4.37475E-002	3.96504E-001	4.17637E-002	4.91911E+001	11	...........	6.97387E-002	-5.25778E-003	6.04847E-001	5.40017E-001	-2.68042E-002	-3.80010E-002	7.05146E-001	-4.40933E-002	2.77348E-003	-2.09100E-004	2.40545E-002	2.14762E-002	-1.06599E-003	-1.51128E-003	2.80434E-002	-1.75357E-003
	90	90	1.10010E+000	3.97437E-002	0.00000E+000	4.37220E-002	3.96251E-001	4.16155E-002	4.93547E+001	11	...........	6.94636E-002	-5.27514E-003	6.04988E-001	5.40059E-001	-2.67975E-002	-3.80139E-002	7.05212E-001	-4.39758E-002	2.76074E-003	-2.09653E-004	2.40445E-002	2.14639E-002	-1.06503E-003	-1.51081E-003	2.80277E-002	-1.74776E-003
	91	91	1.10013E+000	3.93050E-002	0.00000E+000	4.32404E-002	3.91885E-001	4.16024E-002	4.93317E+001	11	...........	6.94489E-002	-5.26139E-003	6.04776E-001	5.39825E-001	-2.68425E-002	-3.80086E-002	7.05266E-001	-4.39792E-002	2.72969E-003	-2.06799E-004	2.37707E-002	2.12178E-002	-1.05504E-003	-1.49393E-003	2.77205E-002	-1.72860E-003
	92	92	1.10002E+000	3.94615E-002	0.00000E+000	4.34086E-002	3.93448E-001	4.15934E-002	4.93456E+001	11	...........	6.94471E-002	-5.29444E-003	6.04777E-001	5.39737E-001	-2.69224E-002	-3.80285E-002	7.05291E-001	-4.39371E-002	2.74049E-003	-2.08927E-004	2.38654E-002	2.12988E-002	-1.06240E-003	-1.50066E-003	2.78319E-002	-1.73382E-003
	93	93	1.10010E+000	3.94986E-002	0.00000E+000	4.34523E-002	3.93814E-001	4.15457E-002	4.93462E+001	11	...........	6.93747E-002	-5.29514E-003	6.04804E-001	5.39851E-001	-2.69106E-002	-3.80375E-002	7.05181E-001	-4.38626E-002	2.74020E-003	-2.09151E-004	2.38889E-002	2.13233E-002	-1.06293E-003	-1.50243E-003	2.78537E-002	-1.73251E-003
	94	94	1.10013E+000	3.90123E-002	0.00000E+000	4.29186E-002	3.88981E-001	4.15259E-002	4.86169E+001	11	...........	6.93230E-002	-5.23389E-003	6.04922E-001	5.39803E-001	-2.68237E-002	-3.80357E-002	7.05194E-001	-4.38699E-002	2.70445E-003	-2.04186E-004	2.35994E-002	2.10590E-002	-1.04646E-003	-1.48386E-003	2.75113E-002	-1.71147E-003
	95	95	1.10002E+000	3.91186E-002	0.00000E+000	4.30314E-002	3.90039E-001	4.15354E-002	4.88731E+001	11	...........	6.93421E-002	-5.25556E-003	6.05071E-001	5.39715E-001	-2.68335E-002	-3.80033E-002	7.05263E-001	-4.38703E-002	2.71257E-003	-2.05590E-004	2.36695E-002	2.11129E-002	-1.04969E-003	-1.48664E-003	2.75889E-002	-1.71614E-003
	96	96	1.10009E+000	3.91114E-002	0.00000E+000	4.30262E-002	3.89965E-001	4.13219E-002	4.58586E+001	11	...........	6.89715E-002	-5.21792E-003	6.05063E-001	5.39645E-001	-2.68444E-002	-3.79956E-002	7.05213E-001	-4.39061E-002	2.69757E-003	-2.04080E-004	2.36649E-002	2.11062E-002	-1.04992E-003	-1.48606E-003	2.75818E-002	-1.71723E-003
	97	97	1.10013E+000	3.87905E-002	0.00000E+000	4.26747E-002	3.86775E-001	4.15760E-002	4.86149E+001	11	...........	6.94081E-002	-5.26667E-003	6.05196E-001	5.39697E-001	-2.68568E-002	-3.79801E-002	7.05119E-001	-4.39964E-002	2.69238E-003	-2.04297E-004	2.34759E-002	2.09351E-002	-1.04179E-003	-1.47327E-003	2.73520E-002	-1.70664E-003
	98	98	1.10002E+000	3.88569E-002	0.00000E+000	4.27434E-002	3.87438E-001	4.14252E-002	4.93228E+001	11	...........	6.91793E-002	-5.29750E-003	6.05145E-001	5.39662E-001	-2.69336E-002	-3.79710E-002	7.05255E-001	-4.41101E-002	2.68809E-003	-2.05844E-004	2.35140E-002	2.09696E-002	-1.04656E-003	-1.47543E-003	2.74040E-002	-1.71398E-003
	99	99	1.10009E+000	3.89008E-002	0.00000E+000	4.27945E-002	3.87872E-001	4.14012E-002	4.91599E+001	11	...........	6.91507E-002	-5.24403E-003	6.05073E-001	5.39565E-001	-2.69765E-002	-3.80210E-002	7.05091E-001	-4.40215E-002	2.69002E-003	-2.03997E-004	2.35379E-002	2.09895E-002	-1.04941E-003	-1.47905E-003	2.74286E-002	-1.71247E-003
	100	100	1.10013E+000	3.84691E-002	0.00000E+000	4.23211E-002	3.83579E-001	4.14119E-002	4.92761E+001	11	...........	6.91682E-002	-5.20181E-003	6.05262E-001	5.39543E-001	-2.69162E-002	-3.80239E-002	7.05113E-001	-4.40324E-002	2.66084E-003	-2.00109E-004	2.32839E-002	2.07557E-002	-1.03544E-003	-1.46274E-003	2.71251E-002	-1.69388E-003
	101	101	1.10002E+000	3.86125E-002	0.00000E+000	4.24746E-002	3.85005E-001	4.14042E-002	4.86847E+001	11	...........	6.91387E-002	-5.26597E-003	6.05425E-001	5.39557E-001	-2.68476E-002	-3.80300E-002	7.05186E-001	-4.40869E-002	2.66962E-003	-2.03332E-004	2.33770E-002	2.08336E-002	-1.03665E-003	-1.46843E-003	2.72290E-002	-1.70231E-003
	102	102	1.10009E+000	3.85498E-002	0.00000E+000	4.24081E-002	3.84380E-001	4.11450E-002	4.79387E+001	11	...........	6.87108E-002	-5.26333E-003	6.05490E-001	5.39554E-001	-2.68451E-002	-3.80435E-002	7.05245E-001	-4.39940E-002	2.64879E-003	-2.02900E-004	2.33415E-002	2.07997E-002	-1.03487E-003	-1.46657E-003	2.71870E-002	-1.69596E-003
	103	103	1.10014E+000	3.81923E-002	0.00000E+000	4.20170E-002	3.80824E-001	4.15113E-002	4.90867E+001	11	...........	6.93018E-002	-5.17069E-003	6.05597E-001	5.39404E-001	-2.68450E-002	-3.80207E-002	7.05260E-001	-4.39589E-002	2.64680E-003	-1.97481E-004	2.31292E-002	2.06011E-002	-1.02527E-003	-1.45210E-003	2.69355E-002	-1.67889E-003
	104	104	1.10002E+000	3.82660E-002	0.00000E+000	4.20934E-002	3.81556E-001	4.12436E-002	4.92830E+001	11	...........	6.88814E-002	-5.16139E-003	6.05622E-001	5.39426E-001	-2.69037E-002	-3.80157E-002	7.05272E-001	-4.40385E-002	2.63581E-003	-1.97506E-004	2.31747E-002	2.06417E-002	-1.02950E-003	-1.45471E-003	2.69879E-002	-1.68518E-003
	105	105	1.10009E+000	3.83278E-002	0.00000E+000	4.21639E-002	3.82179E-001	4.12687E-002	4.92630E+001	11	...........	6.89296E-002	-5.21000E-003	6.05587E-001	5.39383E-001	-2.69949E-002	-3.80096E-002	7.05144E-001	-4.40885E-002	2.64192E-003	-1.99688E-004	2.32109E-002	2.06734E-002	-1.03465E-003	-1.45682E-003	2.70266E-002	-1.68982E-003
	106	106	1.10014E+000	3.79080E-002	0.00000E+000	4.17042E-002	3.78006E-001	4.13016E-002	4.92976E+001	11	...........	6.89589E-002	-5.29250E-003	6.05578E-001	5.39462E-001	-2.69910E-002	-3.80394E-002	7.05162E-001	-4.39765E-002	2.61409E-003	-2.00628E-004	2.29563E-002	2.04499E-002	-1.02317E-003	-1.44200E-003	2.67313E-002	-1.66706E-003
	107	107	1.10002E+000	3.80118E-002	0.00000E+000	4.18137E-002	3.79034E-001	4.12337E-002	4.93604E+001	11	...........	6.88736E-002	-5.29833E-003	6.05406E-001	5.39429E-001	-2.69560E-002	-3.80350E-002	7.05220E-001	-4.39415E-002	2.61801E-003	-2.01399E-004	2.30125E-002	2.05046E-002	-1.02464E-003	-1.44578E-003	2.68067E-002	-1.67029E-003
	108	108	1.10009E+000	3.80287E-002	0.00000E+000	4.18348E-002	3.79202E-001	4.11679E-002	4.75135E+001	11	...........	6.87415E-002	-5.28028E-003	6.05441E-001	5.39382E-001	-2.68699E-002	-3.80574E-002	7.05329E-001	-4.38911E-002	2.61415E-003	-2.00802E-004	2.30241E-002	2.05120E-002	-1.02183E-003	-1.44727E-003	2.68227E-002	-1.66912E-003
	109	109	1.10014E+000	3.76343E-002	0.00000E+000	4.14031E-002	3.75282E-001	4.11139E-002	4.89431E+001	11	...........	6.86636E-002	-5.22875E-003	6.05487E-001	5.39446E-001	-2.68594E-002	-3.80951E-002	7.05282E-001	-4.39251E-002	2.58411E-003	-1.96780E-004	2.27871E-002	2.03017E-002	-1.01084E-003	-1.43368E-003	2.65428E-002	-1.65309E-003
	110	110	1.10002E+000	3.77081E-002	0.00000E+000	4.14797E-002	3.76017E-001	4.11686E-002	4.92904E+001	11	...........	6.87540E-002	-5.25819E-003	6.05449E-001	5.39602E-001	-2.68508E-002	-3.81210E-002	7.05285E-001	-4.39636E-002	2.59258E-003	-1.98276E-004	2.28303E-002	2.03474E-002	-1.01249E-003	-1.43747E-003	2.65950E-002	-1.65778E-003
	111	111	1.10008E+000	3.77842E-002	0.00000E+000	4.15657E-002	3.76777E-001	4.10981E-002	4.92481E+001	11	...........	6.86262E-002	-5.21806E-003	6.05362E-001	5.39555E-001	-2.68976E-002	-3.81337E-002	7.05257E-001	-4.39890E-002	2.59299E-003	-1.97160E-004	2.28731E-002	2.03867E-002	-1.01631E-003	-1.44085E-003	2.66476E-002	-1.66209E-003
	112	112	1.10015E+000	3.73833E-002	0.00000E+000	4.11272E-002	3.72787E-001	4.11740E-002	4.73365E+001	11	...........	6.87612E-002	-5.23250E-003	6.05495E-001	5.39571E-001	-2.70197E-002	-3.81460E-002	7.05118E-001	-4.39160E-002	2.57052E-003	-1.95608E-004	2.26354E-002	2.01710E-002	-1.01009E-003	-1.42602E-003	2.63596E-002	-1.64173E-003
	113	113	1.10002E+000	3.74070E-002	0.00000E+000	4.11484E-002	3.73019E-001	4.07880E-002	4.80124E+001	11	...........	6.81081E-002	-5.18278E-003	6.05551E-001	5.39478E-001	-2.70653E-002	-3.81293E-002	7.05158E-001	-4.39732E-002	2.54772E-003	-1.93872E-004	2.26518E-002	2.01803E-002	-1.01243E-003	-1.42630E-003	2.63778E-002	-1.64491E-003
	114	114	1.10008E+000	3.75042E-002	0.00000E+000	4.12576E-002	3.73988E-001	4.11847E-002	4.92665E+001	11	...........	6.87686E-002	-5.28153E-003	6.05636E-001	5.39452E-001	-2.69886E-002	-3.81031E-002	7.04985E-001	-4.39357E-002	2.57911E-003	-1.98079E-004	2.27139E-002	2.02317E-002	-1.01219E-003	-1.42902E-003	2.64399E-002	-1.64777E-003
	115	115	1.10015E+000	3.71639E-002	0.00000E+000	4.08858E-002	3.70603E-001	4.10775E-002	4.93035E+001	11	...........	6.86114E-002	-5.25139E-003	6.05473E-001	5.39350E-001	-2.68790E-002	-3.81040E-002	7.05035E-001	-4.39112E-002	2.54986E-003	-1.95162E-004	2.25017E-002	2.00443E-002	-9.98929E-004	-1.41609E-003	2.62018E-002	-1.63191E-003
	116	116	1.10002E+000	3.71423E-002	0.00000E+000	4.08573E-002	3.70383E-001	4.10193E-002	4.93907E+001	11	...........	6.84793E-002	-5.21944E-003	6.05342E-001	5.39290E-001	-2.68599E-002	-3.81006E-002	7.05040E-001	-4.39100E-002	2.54348E-003	-1.93862E-004	2.24838E-002	2.00305E-002	-9.97637E-004	-1.41514E-003	2.61868E-002	-1.63092E-003
	117	117	1.10008E+000	3.71980E-002	0.00000E+000	4.09206E-002	3.70941E-001	4.09124E-002	4.67880E+001	11	...........	6.82778E-002	-5.26167E-003	6.05490E-001	5.39333E-001	-2.69139E-002	-3.80969E-002	7.05084E-001	-4.38946E-002	2.53979E-003	-1.95723E-004	2.25230E-002	2.00621E-002	-1.00114E-003	-1.41713E-003	2.62277E-002	-1.63279E-003
	118	118	1.10015E+000	3.68996E-002	0.00000E+000	4.05951E-002	3.67976E-001	4.09799E-002	4.90480E+001	11	...........	6.84161E-002	-5.14153E-003	6.05490E-001	5.39383E-001	-2.70206E-002	-3.80826E-002	7.05020E-001	-4.37054E-002	2.52453E-003	-1.89720E-004	2.23423E-002	1.99030E-002	-9.97048E-004	-1.40523E-003	2.60150E-002	-1.61271E-003
	119	119	1.10002E+000	3.68661E-002	0.00000E+000	4.05534E-002	3.67645E-001	4.10077E-002	4.93714E+001	11	...........	6.84638E-002	-5.25653E-003	6.05539E-001	5.39281E-001	-2.70332E-002	-3.81058E-002	7.05080E-001	-4.38199E-002	2.52399E-003	-1.93788E-004	2.23239E-002	1.98812E-002	-9.96609E-004	-1.40481E-003	2.59936E-002	-1.61547E-003
	120	120	1.10008E+000	3.69559E-002	0.00000E+000	4.06544E-002	3.68537E-001	4.08873E-002	4.92669E+001	11	...........	6.82860E-002	-5.24514E-003	6.05705E-001	5.39308E-001	-2.69064E-002	-3.81243E-002	7.05061E-001	-4.37953E-002	2.52357E-003	-1.93839E-004	2.23844E-002	1.99306E-002	-9.94351E-004	-1.40892E-003	2.60562E-002	-1.61849E-003
	121	121	1.10015E+000	3.66115E-002	0.00000E+000	4.02781E-002	3.65114E-001	4.08854E-002	4.93071E+001	11	...........	6.82717E-002	-5.17500E-003	6.05743E-001	5.39266E-001	-2.68554E-002	-3.81247E-002	7.05092E-001	-4.38060E-002	2.49953E-003	-1.89464E-004	2.21771E-002	1.97433E-002	-9.83216E-004	-1.39580E-003	2.58145E-002	-1.60380E-003
	122	122	1.10002E+000	3.65933E-002	0.00000E+000	4.02534E-002	3.64931E-001	4.08478E-002	4.94061E+001	11	...........	6.82707E-002	-5.18167E-003	6.05757E-001	5.39314E-001	-2.68840E-002	-3.81618E-002	7.05096E-001	-4.38200E-002	2.49825E-003	-1.89614E-004	2.21667E-002	1.97353E-002	-9.83775E-004	-1.39647E-003	2.58018E-002	-1.60352E-003
	123	123	1.10008E+000	3.66720E-002	0.00000E+000	4.03420E-002	3.65714E-001	4.09114E-002	4.66994E+001	11	...........	6.83037E-002	-5.18944E-003	6.05808E-001	5.39422E-001	-2.70101E-002	-3.81568E-002	7.05147E-001	-4.38707E-002	2.50483E-003	-1.90307E-004	2.22162E-002	1.97817E-002	-9.90515E-004	-1.39929E-003	2.58591E-002	-1.60882E-003
	124	124	1.10015E+000	3.63433E-002	0.00000E+000	3.99830E-002	3.62449E-001	4.07399E-002	4.85690E+001	11	...........	6.80236E-002	-5.19986E-003	6.05832E-001	5.39457E-001	-2.70385E-002	-3.81321E-002	7.05182E-001	-4.38406E-002	2.47220E-003	-1.88980E-004	2.20179E-002	1.96057E-002	-9.82667E-004	-1.38585E-003	2.56287E-002	-1.59331E-003
	125	125	1.10002E+000	3.63289E-002	0.00000E+000	3.99625E-002	3.62300E-001	4.08423E-002	4.85634E+001	11	...........	6.81912E-002	-5.27708E-003	6.05933E-001	5.39315E-001	-2.69093E-002	-3.81131E-002	7.05146E-001	-4.38646E-002	2.47731E-003	-1.91710E-004	2.20128E-002	1.95927E-002	-9.77584E-004	-1.38460E-003	2.56172E-002	-1.59355E-003
	126	126	1.10007E+000	3.64058E-002	0.00000E+000	4.00490E-002	3.63064E-001	4.06659E-002	4.75976E+001	11	...........	6.79103E-002	-5.23500E-003	6.05926E-001	5.39323E-001	-2.68492E-002	-3.81179E-002	7.05050E-001	-4.38904E-002	2.47233E-003	-1.90584E-004	2.20592E-002	1.96345E-002	-9.77466E-004	-1.38771E-003	2.56679E-002	-1.59787E-003
	127	127	1.10015E+000	3.61780E-002	0.00000E+000	3.98013E-002	3.60800E-001	4.10003E-002	4.88668E+001	11	...........	6.84432E-002	-5.24222E-003	6.05776E-001	5.39315E-001	-2.68382E-002	-3.81267E-002	7.05099E-001	-4.38122E-002	2.47614E-003	-1.89653E-004	2.19158E-002	1.95114E-002	-9.70952E-004	-1.37935E-003	2.55091E-002	-1.58504E-003
	128	128	1.10002E+000	3.60454E-002	0.00000E+000	3.96507E-002	3.59479E-001	4.07604E-002	4.90938E+001	11	...........	6.80774E-002	-5.27694E-003	6.05866E-001	5.39224E-001	-2.69187E-002	-3.81172E-002	7.05024E-001	-4.38097E-002	2.45388E-003	-1.90210E-004	2.18387E-002	1.94365E-002	-9.70297E-004	-1.37395E-003	2.54129E-002	-1.57914E-003
	129	129	1.10007E+000	3.61681E-002	0.00000E+000	3.97875E-002	3.60702E-001	4.07942E-002	4.89846E+001	11	...........	6.81099E-002	-5.24639E-003	6.05907E-001	5.39295E-001	-2.69379E-002	-3.80944E-002	7.05063E-001	-4.38567E-002	2.46340E-003	-1.89752E-004	2.19145E-002	1.95053E-002	-9.74293E-004	-1.37780E-003	2.55008E-002	-1.58621E-003
	130	130	1.10015E+000	3.58592E-002	0.00000E+000	3.94506E-002	3.57625E-001	4.07571E-002	4.90791E+001	11	...........	6.80483E-002	-5.24250E-003	6.05877E-001	5.39388E-001	-2.68260E-002	-3.81018E-002	7.05140E-001	-4.38136E-002	2.44016E-003	-1.87992E-004	2.17262E-002	1.93420E-002	-9.61958E-004	-1.36630E-003	2.52858E-002	-1.57112E-003
	131	131	1.10002E+000	3.57964E-002	0.00000E+000	3.93769E-002	3.57001E-001	4.07419E-002	4.90208E+001	11	...........	6.80237E-002	-5.21903E-003	6.05853E-001	5.39523E-001	-2.68140E-002	-3.81197E-002	7.05248E-001	-4.39086E-002	2.43501E-003	-1.86822E-004	2.16874E-002	1.93130E-002	-9.59846E-004	-1.36455E-003	2.52453E-002	-1.57177E-003
	132	132	1.10007E+000	3.59464E-002	0.00000E+000	3.95436E-002	3.58495E-001	4.07612E-002	4.91359E+001	11	...........	6.80333E-002	-5.19472E-003	6.05843E-001	5.39516E-001	-2.68204E-002	-3.81633E-002	7.05202E-001	-4.39054E-002	2.44555E-003	-1.86732E-004	2.17779E-002	1.93937E-002	-9.64097E-004	-1.37183E-003	2.53495E-002	-1.57824E-003
	133	133	1.10015E+000	3.55952E-002	0.00000E+000	3.91602E-002	3.55002E-001	4.07241E-002	4.92379E+001	11	...........	6.79842E-002	-5.25069E-003	6.05806E-001	5.39490E-001	-2.68703E-002	-3.81764E-002	7.05146E-001	-4.39490E-002	2.41991E-003	-1.86900E-004	2.15638E-002	1.92033E-002	-9.56454E-004	-1.35890E-003	2.50999E-002	-1.56438E-003
	134	134	1.10002E+000	3.55354E-002	0.00000E+000	3.90899E-002	3.54408E-001	4.06712E-002	4.92090E+001	11	...........	6.79150E-002	-5.27653E-003	6.05880E-001	5.39421E-001	-2.67983E-002	-3.81518E-002	7.05264E-001	-4.39150E-002	2.41339E-003	-1.87504E-004	2.15302E-002	1.91686E-002	-9.52290E-004	-1.35574E-003	2.50619E-002	-1.56054E-003
	135	135	1.10007E+000	3.56510E-002	0.00000E+000	3.92185E-002	3.55561E-001	4.06669E-002	4.73212E+001	11	...........	6.78957E-002	-5.24583E-003	6.05963E-001	5.39425E-001	-2.67926E-002	-3.81651E-002	7.05319E-001	-4.39583E-002	2.42055E-003	-1.87019E-004	2.16032E-002	1.92311E-002	-9.55185E-004	-1.36063E-003	2.51454E-002	-1.56716E-003
	136	136	1.10015E+000	3.52898E-002	0.00000E+000	3.88242E-002	3.51967E-001	4.04035E-002	4.85700E+001	11	...........	6.74653E-002	-5.19806E-003	6.05945E-001	5.39451E-001	-2.67896E-002	-3.82094E-002	7.05297E-001	-4.38669E-002	2.38083E-003	-1.83438E-004	2.13837E-002	1.90371E-002	-9.45398E-004	-1.34840E-003	2.48898E-002	-1.54805E-003
	137	137	1.10003E+000	3.53079E-002	0.00000E+000	3.88396E-002	3.52145E-001	4.07294E-002	4.89577E+001	11	...........	6.80014E-002	-5.24278E-003	6.05901E-001	5.39426E-001	-2.68665E-002	-3.82308E-002	7.05215E-001	-4.38701E-002	2.40099E-003	-1.85112E-004	2.13931E-002	1.90460E-002	-9.48601E-004	-1.34985E-003	2.48997E-002	-1.54896E-003
	138	138	1.10007E+000	3.53625E-002	0.00000E+000	3.89011E-002	3.52688E-001	4.05932E-002	4.81308E+001	11	...........	6.77788E-002	-5.24889E-003	6.05805E-001	5.39498E-001	-2.68593E-002	-3.81854E-002	7.05179E-001	-4.38010E-002	2.39682E-003	-1.85614E-004	2.14228E-002	1.90780E-002	-9.49812E-004	-1.35033E-003	2.49369E-002	-1.54891E-003
	139	139	1.10015E+000	3.50829E-002	0.00000E+000	3.85965E-002	3.49909E-001	4.03464E-002	4.70772E+001	11	...........	6.73517E-002	-5.23056E-003	6.05770E-001	5.39558E-001	-2.67842E-002	-3.81724E-002	7.05061E-001	-4.38894E-002	2.36289E-003	-1.83503E-004	2.12522E-002	1.89292E-002	-9.39666E-004	-1.33920E-003	2.47356E-002	-1.53977E-003
	140	140	1.10003E+000	3.50273E-002	0.00000E+000	3.85310E-002	3.49357E-001	4.05842E-002	4.84300E+001	11	...........	6.77672E-002	-5.28319E-003	6.05811E-001	5.39592E-001	-2.67874E-002	-3.82117E-002	7.05103E-001	-4.38353E-002	2.37370E-003	-1.85056E-004	2.12199E-002	1.89005E-002	-9.38289E-004	-1.33845E-003	2.46979E-002	-1.53543E-003
	141	141	1.10007E+000	3.51217E-002	0.00000E+000	3.86361E-002	3.50295E-001	4.05227E-002	4.90947E+001	11	...........	6.76686E-002	-5.28194E-003	6.05845E-001	5.39468E-001	-2.67829E-002	-3.82522E-002	7.05098E-001	-4.38725E-002	2.37663E-003	-1.85511E-004	2.12783E-002	1.89470E-002	-9.40661E-004	-1.34348E-003	2.47642E-002	-1.54088E-003
	142	142	1.10015E+000	3.48575E-002	0.00000E+000	3.83485E-002	3.47665E-001	4.05148E-002	4.91415E+001	11	...........	6.76415E-002	-5.29931E-003	6.05750E-001	5.39336E-001	-2.68264E-002	-3.82103E-002	7.05167E-001	-4.39304E-002	2.35781E-003	-1.84720E-004	2.11149E-002	1.87999E-002	-9.35100E-004	-1.33191E-003	2.45804E-002	-1.53130E-003
	143	143	1.10003E+000	3.47492E-002	0.00000E+000	3.82251E-002	3.46592E-001	4.05208E-002	4.90933E+001	11	...........	6.76419E-002	-5.31625E-003	6.05808E-001	5.39241E-001	-2.67836E-002	-3.81783E-002	7.05187E-001	-4.38633E-002	2.35050E-003	-1.84735E-004	2.10514E-002	1.87382E-002	-9.30709E-004	-1.32667E-003	2.45047E-002	-1.52422E-003
	144	144	1.10006E+000	3.48989E-002	0.00000E+000	3.83910E-002	3.48082E-001	4.04299E-002	4.82914E+001	11	...........	6.75058E-002	-5.31792E-003	6.05821E-001	5.39357E-001	-2.67949E-002	-3.81882E-002	7.05089E-001	-4.38424E-002	2.35588E-003	-1.85589E-004	2.11425E-002	1.88229E-002	-9.35110E-004	-1.33272E-003	2.46068E-002	-1.53005E-003
	145	145	1.10015E+000	3.45968E-002	0.00000E+000	3.80617E-002	3.45080E-001	4.03877E-002	4.87468E+001	11	...........	6.74381E-002	-5.31806E-003	6.05674E-001	5.39334E-001	-2.68056E-002	-3.81781E-002	7.05129E-001	-4.38793E-002	2.33314E-003	-1.83988E-004	2.09544E-002	1.86592E-002	-9.27385E-004	-1.32084E-003	2.43952E-002	-1.51808E-003
	146	146	1.10003E+000	3.45235E-002	0.00000E+000	3.79769E-002	3.44346E-001	4.05037E-002	4.89405E+001	11	...........	6.76153E-002	-5.31069E-003	6.05651E-001	5.39363E-001	-2.68386E-002	-3.82162E-002	7.05091E-001	-4.38585E-002	2.33431E-003	-1.83344E-004	2.09092E-002	1.86207E-002	-9.26562E-004	-1.31936E-003	2.43422E-002	-1.51415E-003
	147	147	1.10006E+000	3.46644E-002	0.00000E+000	3.81330E-002	3.45748E-001	4.04389E-002	4.87406E+001	11	...........	6.75296E-002	-5.32208E-003	6.05684E-001	5.39454E-001	-2.69331E-002	-3.82294E-002	7.05093E-001	-4.38464E-002	2.34087E-003	-1.84487E-004	2.09956E-002	1.86998E-002	-9.33617E-004	-1.32520E-003	2.44416E-002	-1.51991E-003
	148	148	1.10015E+000	3.43656E-002	0.00000E+000	3.78073E-002	3.42779E-001	4.02089E-002	4.80642E+001	11	...........	6.71337E-002	-5.25639E-003	6.05641E-001	5.39486E-001	-2.69639E-002	-3.82149E-002	7.05051E-001	-4.37556E-002	2.30709E-003	-1.80639E-004	2.08132E-002	1.85398E-002	-9.26630E-004	-1.31328E-003	2.42295E-002	-1.50369E-003
	149	149	1.10003E+000	3.42854E-002	0.00000E+000	3.77151E-002	3.41983E-001	4.05303E-002	4.91972E+001	11	...........	6.76742E-002	-5.23917E-003	6.05675E-001	5.39467E-001	-2.70100E-002	-3.81893E-002	7.05071E-001	-4.38571E-002	2.32023E-003	-1.79627E-004	2.07658E-002	1.84958E-002	-9.26047E-004	-1.30933E-003	2.41736E-002	-1.50366E-003
	150	150	1.10006E+000	3.44019E-002	0.00000E+000	3.78443E-002	3.43140E-001	4.04214E-002	4.86176E+001	11	...........	6.75001E-002	-5.25764E-003	6.05712E-001	5.39411E-001	-2.69846E-002	-3.81676E-002	7.05143E-001	-4.38382E-002	2.32214E-003	-1.80873E-004	2.08377E-002	1.85568E-002	-9.28322E-004	-1.31304E-003	2.42583E-002	-1.50812E-003
	151	151	1.10015E+000	3.41405E-002	0.00000E+000	3.75596E-002	3.40538E-001	4.02297E-002	4.81829E+001	11	...........	6.71368E-002	-5.27833E-003	6.05557E-001	5.39475E-001	-2.69501E-002	-3.81531E-002	7.05055E-001	-4.38693E-002	2.29208E-003	-1.80205E-004	2.06740E-002	1.84179E-002	-9.20090E-004	-1.30256E-003	2.40709E-002	-1.49772E-003
	152	152	1.10004E+000	3.40155E-002	0.00000E+000	3.74183E-002	3.39298E-001	4.03348E-002	4.89045E+001	11	...........	6.73456E-002	-5.28306E-003	6.05653E-001	5.39466E-001	-2.69767E-002	-3.81643E-002	7.05096E-001	-4.38374E-002	2.29079E-003	-1.79706E-004	2.06016E-002	1.83502E-002	-9.17625E-004	-1.29818E-003	2.39842E-002	-1.49115E-003
	153	153	1.10006E+000	3.41352E-002	0.00000E+000	3.75509E-002	3.40487E-001	4.03304E-002	4.64958E+001	11	...........	6.73429E-002	-5.27333E-003	6.05662E-001	5.39434E-001	-2.69849E-002	-3.81376E-002	7.05077E-001	-4.39031E-002	2.29876E-003	-1.80006E-004	2.06744E-002	1.84137E-002	-9.21133E-004	-1.30183E-003	2.40679E-002	-1.49864E-003
	154	154	1.10014E+000	3.39457E-002	0.00000E+000	3.73452E-002	3.38603E-001	4.02069E-002	4.85743E+001	11	...........	6.71514E-002	-5.24000E-003	6.05543E-001	5.39328E-001	-2.70164E-002	-3.81524E-002	7.05058E-001	-4.38756E-002	2.27950E-003	-1.77876E-004	2.05556E-002	1.83079E-002	-9.17092E-004	-1.29511E-003	2.39337E-002	-1.48939E-003
	155	155	1.10004E+000	3.37945E-002	0.00000E+000	3.71752E-002	3.37101E-001	4.03550E-002	4.90803E+001	11	...........	6.73874E-002	-5.28833E-003	6.05458E-001	5.39217E-001	-2.69851E-002	-3.81465E-002	7.05187E-001	-4.38815E-002	2.27732E-003	-1.78716E-004	2.04611E-002	1.82225E-002	-9.11948E-004	-1.28914E-003	2.38314E-002	-1.48295E-003
	156	156	1.10006E+000	3.39188E-002	0.00000E+000	3.73127E-002	3.38331E-001	4.02432E-002	4.90090E+001	11	...........	6.71904E-002	-5.26153E-003	6.05341E-001	5.39154E-001	-2.69222E-002	-3.81547E-002	7.05187E-001	-4.38917E-002	2.27902E-003	-1.78465E-004	2.05324E-002	1.82874E-002	-9.13168E-004	-1.29416E-003	2.39191E-002	-1.48875E-003
	157	157	1.10015E+000	3.36821E-002	0.00000E+000	3.70552E-002	3.35987E-001	4.02421E-002	4.89633E+001	11	...........	6.71811E-002	-5.27806E-003	6.05313E-001	5.39235E-001	-2.68539E-002	-3.81556E-002	7.04988E-001	-4.38701E-002	2.26280E-003	-1.77776E-004	2.03882E-002	1.81626E-002	-9.04495E-004	-1.28516E-003	2.37455E-002	-1.47764E-003
	158	158	1.10004E+000	3.35133E-002	0.00000E+000	3.68660E-002	3.34306E-001	4.02007E-002	4.90176E+001	11	...........	6.71261E-002	-5.24500E-003	6.05294E-001	5.39227E-001	-2.68453E-002	-3.81544E-002	7.04996E-001	-4.39264E-002	2.24961E-003	-1.75777E-004	2.02854E-002	1.80713E-002	-8.99673E-004	-1.27868E-003	2.36267E-002	-1.47212E-003
	159	159	1.10006E+000	3.36832E-002	0.00000E+000	3.70535E-002	3.35993E-001	4.02211E-002	4.90231E+001	11	...........	6.71410E-002	-5.20500E-003	6.05260E-001	5.39229E-001	-2.68739E-002	-3.81383E-002	7.05151E-001	-4.39640E-002	2.26153E-003	-1.75321E-004	2.03871E-002	1.81630E-002	-9.05200E-004	-1.28462E-003	2.37518E-002	-1.48085E-003
	160	160	1.10014E+000	3.34760E-002	0.00000E+000	3.68284E-002	3.33932E-001	4.02168E-002	4.92612E+001	11	...........	6.71261E-002	-5.19042E-003	6.05090E-001	5.39382E-001	-2.70012E-002	-3.81542E-002	7.05197E-001	-4.39067E-002	2.24711E-003	-1.73754E-004	2.02560E-002	1.80564E-002	-9.03894E-004	-1.27725E-003	2.36072E-002	-1.46982E-003
	161	161	1.10005E+000	3.33155E-002	0.00000E+000	3.66486E-002	3.32333E-001	4.01677E-002	4.92577E+001	11	...........	6.70730E-002	-5.20208E-003	6.04872E-001	5.39412E-001	-2.70015E-002	-3.81790E-002	7.05061E-001	-4.38931E-002	2.23457E-003	-1.73310E-004	2.01516E-002	1.79708E-002	-8.99569E-004	-1.27195E-003	2.34894E-002	-1.46232E-003
	162	162	1.10006E+000	3.34455E-002	0.00000E+000	3.67920E-002	3.33629E-001	4.02021E-002	4.87245E+001	11	...........	6.71187E-002	-5.23250E-003	6.04979E-001	5.39420E-001	-2.68757E-002	-3.81340E-002	7.05134E-001	-4.38767E-002	2.24482E-003	-1.75003E-004	2.02338E-002	1.80411E-002	-8.98870E-004	-1.27541E-003	2.35835E-002	-1.46748E-003
	163	163	1.10014E+000	3.31694E-002	0.00000E+000	3.64911E-002	3.30885E-001	3.97641E-002	4.57971E+001	11	...........	6.63943E-002	-5.28514E-003	6.05112E-001	5.39372E-001	-2.68422E-002	-3.80950E-002	7.05109E-001	-4.39089E-002	2.20226E-003	-1.75305E-004	2.00712E-002	1.78907E-002	-8.90342E-004	-1.26359E-003	2.33881E-002	-1.45643E-003
	164	164	1.10005E+000	3.30599E-002	0.00000E+000	3.63674E-002	3.29794E-001	4.03100E-002	4.65630E+001	11	...........	6.72976E-002	-5.21889E-003	6.04966E-001	5.39347E-001	-2.69492E-002	-3.80958E-002	7.05139E-001	-4.39478E-002	2.22485E-003	-1.72536E-004	2.00001E-002	1.78307E-002	-8.90937E-004	-1.25944E-003	2.33118E-002	-1.45291E-003
	165	165	1.10006E+000	3.31775E-002	0.00000E+000	3.64972E-002	3.30968E-001	3.99303E-002	4.86645E+001	11	...........	6.66711E-002	-5.20319E-003	6.04714E-001	5.39391E-001	-2.70362E-002	-3.81258E-002	7.05135E-001	-4.40306E-002	2.21198E-003	-1.72629E-004	2.00629E-002	1.78956E-002	-8.96995E-004	-1.26492E-003	2.33946E-002	-1.46082E-003
	166	166	1.10014E+000	3.30563E-002	0.00000E+000	3.63666E-002	3.29762E-001	4.02217E-002	4.90598E+001	11	...........	6.71485E-002	-5.28111E-003	6.04680E-001	5.39441E-001	-2.69239E-002	-3.81542E-002	7.05185E-001	-4.39625E-002	2.21968E-003	-1.74574E-004	1.99885E-002	1.78320E-002	-8.90005E-004	-1.26124E-003	2.33108E-002	-1.45324E-003
	167	167	1.10005E+000	3.27747E-002	0.00000E+000	3.60538E-002	3.26961E-001	4.00565E-002	4.92217E+001	11	...........	6.68618E-002	-5.28306E-003	6.04721E-001	5.39410E-001	-2.68662E-002	-3.81308E-002	7.05234E-001	-4.38968E-002	2.19137E-003	-1.73150E-004	1.98196E-002	1.76790E-002	-8.80533E-004	-1.24973E-003	2.31138E-002	-1.43870E-003
	168	168	1.10006E+000	3.29632E-002	0.00000E+000	3.62614E-002	3.28836E-001	4.00799E-002	4.92833E+001	11	...........	6.68883E-002	-5.29361E-003	6.04594E-001	5.39552E-001	-2.68836E-002	-3.81283E-002	7.05244E-001	-4.39143E-002	2.20486E-003	-1.74495E-004	1.99294E-002	1.77854E-002	-8.86171E-004	-1.25683E-003	2.32471E-002	-1.44756E-003
	169	169	1.10014E+000	3.27969E-002	0.00000E+000	3.60811E-002	3.27182E-001	4.00634E-002	4.93236E+001	11	...........	6.68639E-002	-5.27375E-003	6.04600E-001	5.39532E-001	-2.69787E-002	-3.81064E-002	7.05236E-001	-4.39518E-002	2.19293E-003	-1.72963E-004	1.98290E-002	1.76950E-002	-8.84820E-004	-1.24977E-003	2.31296E-002	-1.44148E-003
	170	170	1.10005E+000	3.25622E-002	0.00000E+000	3.58201E-002	3.24845E-001	4.00388E-002	4.89625E+001	11	...........	6.68265E-002	-5.29778E-003	6.04726E-001	5.39538E-001	-2.70094E-002	-3.81131E-002	7.05384E-001	-4.38669E-002	2.17602E-003	-1.72507E-004	1.96912E-002	1.75685E-002	-8.79486E-004	-1.24104E-003	2.29688E-002	-1.42840E-003
	171	171	1.10006E+000	3.26917E-002	0.00000E+000	3.59627E-002	3.26134E-001	3.99745E-002	4.81410E+001	11	...........	6.67368E-002	-5.27861E-003	6.04831E-001	5.39714E-001	-2.68982E-002	-3.80843E-002	7.05123E-001	-4.38706E-002	2.18174E-003	-1.72567E-004	1.97729E-002	1.76441E-002	-8.79347E-004	-1.24504E-003	2.30516E-002	-1.43420E-003
	172	172	1.10013E+000	3.25847E-002	0.00000E+000	3.58476E-002	3.25069E-001	3.99881E-002	4.91358E+001	11	...........	6.67649E-002	-5.22931E-003	6.04929E-001	5.39732E-001	-2.68281E-002	-3.80775E-002	7.05194E-001	-4.39062E-002	2.17551E-003	-1.70395E-004	1.97114E-002	1.75870E-002	-8.74185E-004	-1.24074E-003	2.29785E-002	-1.43067E-003
	173	173	1.10005E+000	3.23286E-002	0.00000E+000	3.55633E-002	3.22522E-001	3.99750E-002	4.94064E+001	11	...........	6.67400E-002	-5.25875E-003	6.04796E-001	5.39718E-001	-2.68303E-002	-3.80756E-002	7.05274E-001	-4.40204E-002	2.15761E-003	-1.70008E-004	1.95522E-002	1.74484E-002	-8.67386E-004	-1.23093E-003	2.28005E-002	-1.42312E-003
	174	174	1.10006E+000	3.24895E-002	0.00000E+000	3.57403E-002	3.24120E-001	3.99357E-002	4.87767E+001	11	...........	6.66839E-002	-5.29264E-003	6.04659E-001	5.39782E-001	-2.68815E-002	-3.80735E-002	7.05216E-001	-4.40243E-002	2.16653E-003	-1.71955E-004	1.96451E-002	1.75373E-002	-8.73368E-004	-1.23699E-003	2.29121E-002	-1.43033E-003
	175	175	1.10013E+000	3.23296E-002	0.00000E+000	3.55668E-002	3.22529E-001	3.99920E-002	4.88098E+001	11	...........	6.67736E-002	-5.30181E-003	6.04707E-001	5.39563E-001	-2.69707E-002	-3.80807E-002	7.05242E-001	-4.39951E-002	2.15876E-003	-1.71405E-004	1.95499E-002	1.74438E-002	-8.71951E-004	-1.23113E-003	2.28002E-002	-1.42234E-003
	176	176	1.10006E+000	3.20811E-002	0.00000E+000	3.52912E-002	3.20058E-001	3.98257E-002	4.74040E+001	11	...........	6.65007E-002	-5.29611E-003	6.04779E-001	5.39486E-001	-2.69415E-002	-3.81004E-002	7.05157E-001	-4.39118E-002	2.13342E-003	-1.69905E-004	1.94020E-002	1.73073E-002	-8.64315E-004	-1.22231E-003	2.26222E-002	-1.40874E-003
	177	177	1.10005E+000	3.22485E-002	0.00000E+000	3.54751E-002	3.21726E-001	3.97370E-002	4.77101E+001	11	...........	6.63461E-002	-5.21153E-003	6.04762E-001	5.39495E-001	-2.68637E-002	-3.80856E-002	7.05065E-001	-4.39810E-002	2.13956E-003	-1.68064E-004	1.95027E-002	1.73979E-002	-8.66316E-004	-1.22820E-003	2.27373E-002	-1.41832E-003
	178	178	1.10013E+000	3.21538E-002	0.00000E+000	3.53735E-002	3.20782E-001	4.00543E-002	4.91536E+001	11	...........	6.68519E-002	-5.28250E-003	6.04929E-001	5.39458E-001	-2.68303E-002	-3.80594E-002	7.05138E-001	-4.40515E-002	2.14955E-003	-1.69853E-004	1.94508E-002	1.73456E-002	-8.62696E-004	-1.22376E-003	2.26729E-002	-1.41643E-003
	179	179	1.10006E+000	3.18915E-002	0.00000E+000	3.50826E-002	3.18180E-001	3.98712E-002	4.92530E+001	11	...........	6.65885E-002	-5.30250E-003	6.04912E-001	5.39493E-001	-2.68975E-002	-3.80528E-002	7.05188E-001	-4.40444E-002	2.12361E-003	-1.69105E-004	1.92916E-002	1.72052E-002	-8.57802E-004	-1.21356E-003	2.24895E-002	-1.40464E-003
	180	180	1.10005E+000	3.20538E-002	0.00000E+000	3.52609E-002	3.19792E-001	3.98731E-002	4.92337E+001	11	...........	6.65825E-002	-5.24278E-003	6.05039E-001	5.39495E-001	-2.69772E-002	-3.80560E-002	7.05125E-001	-4.39750E-002	2.13422E-003	-1.68051E-004	1.93938E-002	1.72929E-002	-8.64722E-004	-1.21984E-003	2.26019E-002	-1.40957E-003
	181	181	1.10013E+000	3.19041E-002	0.00000E+000	3.50987E-002	3.18304E-001	3.98594E-002	4.81963E+001	11	...........	6.65665E-002	-5.20611E-003	6.04991E-001	5.39413E-001	-2.68749E-002	-3.80562E-002	7.05219E-001	-4.40060E-002	2.12375E-003	-1.66096E-004	1.93017E-002	1.72095E-002	-8.57418E-004	-1.21415E-003	2.24994E-002	-1.40397E-003
	182	182	1.10006E+000	3.16334E-002	0.00000E+000	3.47987E-002	3.15610E-001	3.97611E-002	4.89611E+001	11	...........	6.64149E-002	-5.19486E-003	6.05026E-001	5.39411E-001	-2.68203E-002	-3.80387E-002	7.05159E-001	-4.41062E-002	2.10093E-003	-1.64331E-004	1.91391E-002	1.70634E-002	-8.48417E-004	-1.20330E-003	2.23066E-002	-1.39523E-003
	183	183	1.10005E+000	3.18117E-002	0.00000E+000	3.49946E-002	3.17384E-001	3.98731E-002	4.90119E+001	11	...........	6.65878E-002	-5.22833E-003	6.05169E-001	5.39488E-001	-2.68226E-002	-3.80411E-002	7.05058E-001	-4.40090E-002	2.11827E-003	-1.66322E-004	1.92515E-002	1.71620E-002	-8.53274E-004	-1.21015E-003	2.24291E-002	-1.40000E-003
	184	184	1.10013E+000	3.16958E-002	0.00000E+000	3.48695E-002	3.16234E-001	3.98000E-002	4.90635E+001	11	...........	6.64678E-002	-5.26597E-003	6.05380E-001	5.39433E-001	-2.68928E-002	-3.80667E-002	7.05098E-001	-4.40269E-002	2.10675E-003	-1.66909E-004	1.91880E-002	1.70978E-002	-8.52388E-004	-1.20655E-003	2.23487E-002	-1.39547E-003
	185	185	1.10007E+000	3.14381E-002	0.00000E+000	3.45840E-002	3.13668E-001	3.97718E-002	4.90509E+001	11	...........	6.64421E-002	-5.20528E-003	6.05246E-001	5.39367E-001	-2.69199E-002	-3.80586E-002	7.05187E-001	-4.40265E-002	2.08881E-003	-1.63644E-004	1.90278E-002	1.69567E-002	-8.46309E-004	-1.19649E-003	2.21697E-002	-1.38411E-003
	186	186	1.10005E+000	3.15975E-002	0.00000E+000	3.47589E-002	3.15256E-001	3.97673E-002	4.90942E+001	11	...........	6.64222E-002	-5.19042E-003	6.05327E-001	5.39512E-001	-2.68656E-002	-3.80694E-002	7.05283E-001	-4.39558E-002	2.09877E-003	-1.64004E-004	1.91268E-002	1.70472E-002	-8.48884E-004	-1.20290E-003	2.22852E-002	-1.38889E-003
	187	187	1.10013E+000	3.14605E-002	0.00000E+000	3.46106E-002	3.13889E-001	3.97448E-002	4.90979E+001	11	...........	6.64082E-002	-5.27861E-003	6.05499E-001	5.39597E-001	-2.67997E-002	-3.80732E-002	7.05350E-001	-4.38713E-002	2.08924E-003	-1.66068E-004	1.90493E-002	1.69760E-002	-8.43134E-004	-1.19780E-003	2.21907E-002	-1.38021E-003
	188	188	1.10007E+000	3.11560E-002	0.00000E+000	3.42738E-002	3.10863E-001	3.96292E-002	4.55009E+001	11	...........	6.61785E-002	-5.29639E-003	6.05580E-001	5.39654E-001	-2.67981E-002	-3.80797E-002	7.05209E-001	-4.38108E-002	2.06185E-003	-1.65014E-004	1.88674E-002	1.68134E-002	-8.34919E-004	-1.18641E-003	2.19715E-002	-1.36497E-003
	189	189	1.10005E+000	3.13699E-002	0.00000E+000	3.45084E-002	3.12990E-001	3.96412E-002	4.82191E+001	11	...........	6.61987E-002	-5.29389E-003	6.05559E-001	5.39695E-001	-2.67842E-002	-3.80746E-002	7.05020E-001	-4.38906E-002	2.07664E-003	-1.66069E-004	1.89963E-002	1.69302E-002	-8.40215E-004	-1.19439E-003	2.21164E-002	-1.37684E-003
	190	190	1.10012E+000	3.12629E-002	0.00000E+000	3.43931E-002	3.11928E-001	3.96237E-002	4.92794E+001	11	...........	6.61776E-002	-5.24972E-003	6.05499E-001	5.39882E-001	-2.68156E-002	-3.80872E-002	7.04935E-001	-4.39228E-002	2.06891E-003	-1.64122E-004	1.89297E-002	1.68783E-002	-8.38332E-004	-1.19072E-003	2.20383E-002	-1.37315E-003
	191	191	1.10007E+000	3.09938E-002	0.00000E+000	3.40954E-002	3.09250E-001	3.97195E-002	4.89179E+001	11	...........	6.63393E-002	-5.23222E-003	6.05356E-001	5.39914E-001	-2.68529E-002	-3.80879E-002	7.04823E-001	-4.39350E-002	2.05611E-003	-1.62166E-004	1.87623E-002	1.67340E-002	-8.32273E-004	-1.18049E-003	2.18451E-002	-1.36171E-003
	192	192	1.10005E+000	3.11144E-002	0.00000E+000	3.42273E-002	3.10451E-001	3.94946E-002	4.72961E+001	11	...........	6.59408E-002	-5.26986E-003	6.05215E-001	5.39955E-001	-2.68129E-002	-3.81233E-002	7.04817E-001	-4.39342E-002	2.05171E-003	-1.63968E-004	1.88309E-002	1.68004E-002	-8.34267E-004	-1.18618E-003	2.19300E-002	-1.36698E-003
	193	193	1.10012E+000	3.10658E-002	0.00000E+000	3.41762E-002	3.09966E-001	3.97457E-002	4.90616E+001	11	...........	6.63668E-002	-5.26667E-003	6.05347E-001	5.39974E-001	-2.67775E-002	-3.81046E-002	7.04942E-001	-4.39118E-002	2.06174E-003	-1.63613E-004	1.88056E-002	1.67747E-002	-8.31864E-004	-1.18375E-003	2.18996E-002	-1.36415E-003
	194	194	1.10007E+000	3.07667E-002	0.00000E+000	3.38457E-002	3.06993E-001	3.95842E-002	4.92470E+001	11	...........	6.61086E-002	-5.26347E-003	6.05260E-001	5.40096E-001	-2.67951E-002	-3.80906E-002	7.05008E-001	-4.39542E-002	2.03395E-003	-1.61940E-004	1.86219E-002	1.66170E-002	-8.24399E-004	-1.17192E-003	2.16908E-002	-1.35233E-003
	195	195	1.10005E+000	3.09253E-002	0.00000E+000	3.40194E-002	3.08571E-001	3.95698E-002	4.92174E+001	11	...........	6.60897E-002	-5.26278E-003	6.05002E-001	5.40079E-001	-2.67793E-002	-3.80754E-002	7.04942E-001	-4.39194E-002	2.04385E-003	-1.62753E-004	1.87099E-002	1.67021E-002	-8.28159E-004	-1.17749E-003	2.18005E-002	-1.35822E-003
	196	196	1.10012E+000	3.08549E-002	0.00000E+000	3.39442E-002	3.07875E-001	3.95808E-002	4.93556E+001	11	...........	6.61050E-002	-5.28028E-003	6.05122E-001	5.40135E-001	-2.67968E-002	-3.80613E-002	7.04982E-001	-4.38614E-002	2.03967E-003	-1.62923E-004	1.86710E-002	1.66658E-002	-8.26814E-004	-1.17438E-003	2.17522E-002	-1.35334E-003
	197	197	1.10008E+000	3.05645E-002	0.00000E+000	3.36233E-002	3.04985E-001	3.95782E-002	4.93805E+001	11	...........	6.61058E-002	-5.24486E-003	6.05311E-001	5.40027E-001	-2.68599E-002	-3.80646E-002	7.04998E-001	-4.38589E-002	2.02049E-003	-1.60306E-004	1.85010E-002	1.65056E-002	-8.20958E-004	-1.16342E-003	2.15479E-002	-1.34052E-003
	198	198	1.10005E+000	3.07264E-002	0.00000E+000	3.38006E-002	3.06600E-001	3.95788E-002	4.92025E+001	11	...........	6.61219E-002	-5.23958E-003	6.05452E-001	5.39840E-001	-2.68074E-002	-3.80756E-002	7.05045E-001	-4.40085E-002	2.03169E-003	-1.60994E-004	1.86034E-002	1.65873E-002	-8.23695E-004	-1.16993E-003	2.16635E-002	-1.35222E-003
	199	199	1.10012E+000	3.06390E-002	0.00000E+000	3.37065E-002	3.05731E-001	3.95276E-002	4.72002E+001	11	...........	6.60278E-002	-5.21667E-003	6.05551E-001	5.39555E-001	-2.67874E-002	-3.80822E-002	7.05065E-001	-4.39396E-002	2.02303E-003	-1.59834E-004	1.85535E-002	1.65314E-002	-8.20738E-004	-1.16680E-003	2.16025E-002	-1.34627E-003
	200	200	1.10008E+000	3.02926E-002	0.00000E+000	3.33243E-002	3.02282E-001	3.93103E-002	4.70156E+001	11	...........	6.56317E-002	-5.22278E-003	6.05527E-001	5.39476E-001	-2.68022E-002	-3.81026E-002	7.05119E-001	-4.38771E-002	1.98815E-003	-1.58211E-004	1.83430E-002	1.63421E-002	-8.11908E-004	-1.15423E-003	2.13598E-002	-1.32915E-003
	201	201	1.10005E+000	3.04871E-002	0.00000E+000	3.35373E-002	3.04217E-001	3.95946E-002	4.89846E+001	11	...........	6.61258E-002	-5.19042E-003	6.05725E-001	5.39260E-001	-2.68225E-002	-3.81142E-002	7.05097E-001	-4.38168E-002	2.01599E-003	-1.58241E-004	1.84668E-002	1.64405E-002	-8.17741E-004	-1.16199E-003	2.14964E-002	-1.33585E-003
	202	202	1.10012E+000	3.04476E-002	0.00000E+000	3.34958E-002	3.03826E-001	3.95347E-002	4.93072E+001	11	...........	6.60340E-002	-5.22222E-003	6.05852E-001	5.39286E-001	-2.69161E-002	-3.80914E-002	7.05085E-001	-4.39001E-002	2.01058E-003	-1.59004E-004	1.84467E-002	1.64199E-002	-8.19530E-004	-1.15979E-003	2.14681E-002	-1.33665E-003
	203	203	1.10008E+000	3.01069E-002	0.00000E+000	3.31202E-002	3.00440E-001	3.95160E-002	4.91761E+001	11	...........	6.59908E-002	-5.25847E-003	6.05739E-001	5.39102E-001	-2.68989E-002	-3.81015E-002	7.05167E-001	-4.38443E-002	1.98678E-003	-1.58316E-004	1.82370E-002	1.62307E-002	-8.09843E-004	-1.14712E-003	2.12304E-002	-1.32002E-003
	204	204	1.10005E+000	3.02748E-002	0.00000E+000	3.33037E-002	3.02103E-001	3.94479E-002	4.78979E+001	11	...........	6.58762E-002	-5.23125E-003	6.05588E-001	5.38999E-001	-2.68065E-002	-3.80651E-002	7.05196E-001	-4.38886E-002	1.99439E-003	-1.58375E-004	1.83340E-002	1.63181E-002	-8.11562E-004	-1.15241E-003	2.13497E-002	-1.32872E-003
	205	205	1.10011E+000	3.01813E-002	0.00000E+000	3.32029E-002	3.01176E-001	3.92370E-002	4.81087E+001	11	...........	6.55133E-002	-5.24750E-003	6.05573E-001	5.38870E-001	-2.67992E-002	-3.80518E-002	7.05190E-001	-4.37953E-002	1.97728E-003	-1.58377E-004	1.82770E-002	1.62638E-002	-8.08835E-004	-1.14845E-003	2.12836E-002	-1.32180E-003
	206	206	1.10009E+000	2.99476E-002	0.00000E+000	3.29449E-002	2.98854E-001	3.96472E-002	4.91801E+001	11	...........	6.62128E-002	-5.29972E-003	6.05631E-001	5.38858E-001	-2.68154E-002	-3.80501E-002	7.05079E-001	-4.37876E-002	1.98291E-003	-1.58714E-004	1.81372E-002	1.61375E-002	-8.03056E-004	-1.13951E-003	2.11154E-002	-1.31133E-003
	207	207	1.10005E+000	3.00569E-002	0.00000E+000	3.30640E-002	2.99944E-001	3.94138E-002	4.93470E+001	11	...........	6.58154E-002	-5.26764E-003	6.05589E-001	5.38999E-001	-2.69075E-002	-3.80582E-002	7.05025E-001	-4.38436E-002	1.97821E-003	-1.58329E-004	1.82022E-002	1.62007E-002	-8.08757E-004	-1.14391E-003	2.11909E-002	-1.31780E-003
	208	208	1.10011E+000	3.00068E-002	0.00000E+000	3.30108E-002	2.99442E-001	3.93890E-002	4.92443E+001	11	...........	6.57532E-002	-5.21236E-003	6.05530E-001	5.39136E-001	-2.68982E-002	-3.80972E-002	7.05055E-001	-4.38618E-002	1.97304E-003	-1.56406E-004	1.81700E-002	1.61777E-002	-8.07129E-004	-1.14318E-003	2.11565E-002	-1.31615E-003
	209	209	1.10009E+000	2.96973E-002	0.00000E+000	3.26697E-002	2.96367E-001	3.93473E-002	4.89582E+001	11	...........	6.57186E-002	-5.23819E-003	6.05450E-001	5.39222E-001	-2.68231E-002	-3.81126E-002	7.05098E-001	-4.38533E-002	1.95166E-003	-1.55560E-004	1.79802E-002	1.60135E-002	-7.96572E-004	-1.13184E-003	2.09395E-002	-1.30233E-003
	210	210	1.10004E+000	2.98669E-002	0.00000E+000	3.28549E-002	2.98050E-001	3.93985E-002	4.92984E+001	11	...........	6.57714E-002	-5.29069E-003	6.05390E-001	5.39256E-001	-2.68158E-002	-3.80776E-002	7.05027E-001	-4.37775E-002	1.96439E-003	-1.58017E-004	1.80811E-002	1.61059E-002	-8.00906E-004	-1.13726E-003	2.10570E-002	-1.30750E-003
	211	211	1.10011E+000	2.98207E-002	0.00000E+000	3.28060E-002	2.97595E-001	3.93382E-002	4.94918E+001	11	...........	6.56906E-002	-5.27861E-003	6.05527E-001	5.39198E-001	-2.68004E-002	-3.80828E-002	7.04996E-001	-4.38436E-002	1.95894E-003	-1.57412E-004	1.80572E-002	1.60792E-002	-7.99206E-004	-1.13565E-003	2.10235E-002	-1.30745E-003
	212	212	1.10009E+000	2.94944E-002	0.00000E+000	3.24466E-002	2.94352E-001	3.93229E-002	4.95056E+001	11	...........	6.56613E-002	-5.25583E-003	6.05578E-001	5.39251E-001	-2.68229E-002	-3.80999E-002	7.04913E-001	-4.38632E-002	1.93664E-003	-1.55017E-004	1.78611E-002	1.59049E-002	-7.91125E-004	-1.12373E-003	2.07910E-002	-1.29372E-003
	213	213	1.10004E+000	2.96330E-002	0.00000E+000	3.25976E-002	2.95734E-001	3.93998E-002	4.65211E+001	11	...........	6.57774E-002	-5.23639E-003	6.05486E-001	5.39277E-001	-2.68985E-002	-3.81358E-002	7.05063E-001	-4.39361E-002	1.94918E-003	-1.55170E-004	1.79424E-002	1.59804E-002	-7.97082E-004	-1.13008E-003	2.08931E-002	-1.30196E-003
	214	214	1.10010E+000	2.95970E-002	0.00000E+000	3.25597E-002	2.95374E-001	3.91092E-002	4.83730E+001	11	...........	6.53054E-002	-5.20625E-003	6.05464E-001	5.39333E-001	-2.69292E-002	-3.81479E-002	7.05155E-001	-4.39418E-002	1.93284E-003	-1.54089E-004	1.79199E-002	1.59626E-002	-7.97021E-004	-1.12906E-003	2.08704E-002	-1.30054E-003
	215	215	1.10010E+000	2.92925E-002	0.00000E+000	3.22246E-002	2.92346E-001	3.92242E-002	4.92883E+001	11	...........	6.57336E-002	-5.25597E-003	6.05431E-001	5.39399E-001	-2.68582E-002	-3.81443E-002	7.05080E-001	-4.38457E-002	1.92550E-003	-1.53961E-004	1.77346E-002	1.58004E-002	-7.86744E-004	-1.11734E-003	2.06536E-002	-1.28435E-003
	216	216	1.10004E+000	2.94324E-002	0.00000E+000	3.23770E-002	2.93733E-001	3.93021E-002	4.92757E+001	11	...........	6.56251E-002	-5.29889E-003	6.05387E-001	5.39501E-001	-2.68031E-002	-3.81343E-002	7.05167E-001	-4.39019E-002	1.93151E-003	-1.55959E-004	1.78180E-002	1.58788E-002	-7.88879E-004	-1.12239E-003	2.07548E-002	-1.29214E-003
	217	217	1.10010E+000	2.94104E-002	0.00000E+000	3.23545E-002	2.93510E-001	3.93089E-002	4.86554E+001	11	...........	6.56379E-002	-5.25028E-003	6.05294E-001	5.39409E-001	-2.68147E-002	-3.81183E-002	7.05143E-001	-4.39139E-002	1.93044E-003	-1.54413E-004	1.78020E-002	1.58642E-002	-7.88633E-004	-1.12108E-003	2.07385E-002	-1.29153E-003
	218	218	1.10010E+000	2.90624E-002	0.00000E+000	3.19716E-002	2.90054E-001	3.90478E-002	4.76131E+001	11	...........	6.51900E-002	-5.21903E-003	6.05372E-001	5.39450E-001	-2.68047E-002	-3.81144E-002	7.05182E-001	-4.37971E-002	1.89458E-003	-1.51677E-004	1.75936E-002	1.56777E-002	-7.79010E-004	-1.10770E-003	2.04943E-002	-1.27285E-003
	219	219	1.10004E+000	2.92484E-002	0.00000E+000	3.21745E-002	2.91903E-001	3.94300E-002	4.90713E+001	11	...........	6.58508E-002	-5.20722E-003	6.05481E-001	5.39478E-001	-2.68064E-002	-3.81143E-002	7.05211E-001	-4.36396E-002	1.92603E-003	-1.52303E-004	1.77094E-002	1.57789E-002	-7.84044E-004	-1.11478E-003	2.06263E-002	-1.27639E-003
	220	220	1.10010E+000	2.92249E-002	0.00000E+000	3.21503E-002	2.91669E-001	3.92241E-002	4.92870E+001	11	...........	6.55015E-002	-5.25264E-003	6.05646E-001	5.39473E-001	-2.67940E-002	-3.81271E-002	7.05170E-001	-4.37933E-002	1.91428E-003	-1.53508E-004	1.77000E-002	1.57661E-002	-7.83053E-004	-1.11426E-003	2.06085E-002	-1.27986E-003
	221	221	1.10011E+000	2.88960E-002	0.00000E+000	3.17886E-002	2.88402E-001	3.92173E-002	4.92456E+001	11	...........	6.54821E-002	-5.29125E-003	6.05655E-001	5.39539E-001	-2.68778E-002	-3.81351E-002	7.05194E-001	-4.38707E-002	1.89217E-003	-1.52896E-004	1.75010E-002	1.55905E-002	-7.76659E-004	-1.10195E-003	2.03773E-002	-1.26769E-003
	222	222	1.10004E+000	2.90239E-002	0.00000E+000	3.19275E-002	2.89672E-001	3.92481E-002	4.92613E+001	11	...........	6.55385E-002	-5.29125E-003	6.05607E-001	5.39627E-001	-2.69089E-002	-3.81435E-002	7.05156E-001	-4.38826E-002	1.90218E-003	-1.53573E-004	1.75771E-002	1.56621E-002	-7.81001E-004	-1.10707E-003	2.04664E-002	-1.27365E-003
	223	223	1.10010E+000	2.90292E-002	0.00000E+000	3.19350E-002	2.89724E-001	3.91850E-002	4.93242E+001	11	...........	6.54233E-002	-5.20208E-003	6.05588E-001	5.39735E-001	-2.69007E-002	-3.82075E-002	7.05151E-001	-4.38049E-002	1.89919E-003	-1.51012E-004	1.75797E-002	1.56681E-002	-7.80905E-004	-1.10913E-003	2.04700E-002	-1.27162E-003
	224	224	1.10011E+000	2.87240E-002	0.00000E+000	3.15995E-002	2.86687E-001	3.92328E-002	4.92789E+001	11	...........	6.55221E-002	-5.16306E-003	6.05532E-001	5.39766E-001	-2.68762E-002	-3.82372E-002	7.05076E-001	-4.39489E-002	1.88206E-003	-1.48304E-004	1.73933E-002	1.55042E-002	-7.71993E-004	-1.09833E-003	2.02526E-002	-1.26239E-003
	225	225	1.10004E+000	2.87892E-002	0.00000E+000	3.16694E-002	2.87334E-001	3.92266E-002	4.61169E+001	11	...........	6.54596E-002	-5.25333E-003	6.05515E-001	5.39761E-001	-2.68271E-002	-3.82358E-002	7.05086E-001	-4.39476E-002	1.88453E-003	-1.51239E-004	1.74323E-002	1.55393E-002	-7.72331E-004	-1.10078E-003	2.02989E-002	-1.26522E-003
	226	225.097	1.10065E+000	2.88883E-002	0.00000E+000	3.17959E-002	2.88324E-001	3.89638E-002	4.79360E+001	11	...........	6.50733E-002	-5.30172E-003	6.05336E-001	5.39840E-001	-2.67457E-002	-3.82759E-002	7.05072E-001	-4.40187E-002	1.87986E-003	-1.53158E-004	1.74872E-002	1.55951E-002	-7.72638E-004	-1.10573E-003	2.03683E-002	-1.27163E-003
STARTTIMEOFFSET	QUANT	618254.1	Start Time Offset (s)
