EXPLAIN
TAG	PWR800_CHARGE
TITLE	LABEL	PWR Charge	Test Identifier
DATE	LABEL	10/12/2022	Date
TIME	LABEL	13:00:36	Time
NOTES	NOTES	1	Notes...
	
PSTAT	PSTAT	REF3000-21114	Potentiostat
CAPACITY	QUANT	5.30000E-002	Capacity (A-hr)
CELLTYPE	SELECTOR	1	Cell Type
WORKINGCONNECTION	SELECTOR	0	Working Connection
MAXCHARGETIME	VARIABLEANDUNITS	7.20000E+003	s	2.00000E+000	hour(s)	Max Charge Time
CHARGEMODE	MULTIPARAM	0	1.00000E-001	Charge Mode	Constant Current	Amp(s)
CHARGECURRENT	QUANT	0.1	Charge Current (A)
VOLTAGEFINISH	TWOPARAM	T	2.50000E-002	7.20000E+003	Voltage Finish	I (A) <	Max Time(s)
SAMPLETIME	QUANT	1.00000E+000	Sample Period (s)
CHARGESTOPAT1	MULTIPARAM	2	1.10000E+000	Stop At 1	|Voltage| > Limit	V
CHARGESTOPAT2	MULTIPARAM	0	0.00000E+000	Stop At 2	None	N/A
AESELECTOR	AESELECTOR	0x1	T	Set Limits	AE Channels
AESBHCSELECTOR	TOGGLE	F	Save Both Half Cells
IRCOMP	TOGGLE	F	IR Measure
EOC	QUANT	0.2728687	Open Circuit (V)
SEQUENCER	TOGGLE	TRUE	Run as Sequence
PSTATMODEL	IQUANT	5	Pstat Model
PSTATSECTION	LABEL	REF3000-21114	Pstat Section
PSTATSERIALNO	LABEL	21114	Pstat Serial Number
CTRLMODE	IQUANT	0	Control Mode
ELECTROMETER	IQUANT	0	RE=0 or CS=1
IESTAB	IQUANT	0	I/E Stability
CASPEED	IQUANT	4	Control Amp Speed
CONVENTION	IQUANT	1	Current Convention
ICHRANGE	IQUANT	2	Ich Range
ICHRANGEMODE	TOGGLE	T	Ich Auto Range
ICHOFFSETENABLE	TOGGLE	F	Ich Offset Enable
ICHOFFSET	QUANT	0	Ich Offset (V)
ICHFILTER	IQUANT	1	Ich Filter
VCHRANGE	IQUANT	3	Vch Range
VCHRANGEMODE	TOGGLE	T	Vch Auto Range
VCHOFFSETENABLE	TOGGLE	F	Vch Offset Enable
VCHOFFSET	QUANT	0	Vch Offset (V)
VCHFILTER	IQUANT	1	Vch Filter
ACHRANGE	IQUANT	2	Ach Range
ACHOFFSETENABLE	TOGGLE	F	Ach Offset Enable
ACHOFFSET	QUANT	0	Ach Offset (V)
ACHFILTER	IQUANT	1	Ach Filter
IERANGELOWERLIMIT	IQUANT	9	I/E Range Lower Limit
IERANGEMODE	TOGGLE	F	I/E AutoRange
IERANGE	IQUANT	9	I/E Range
POSFEEDENABLE	TOGGLE	F	Positive Feedback IR Comp
POSFEEDRESISTANCE	QUANT	0	Positive Feedback Resistance (ohm)
ACHSELECT	IQUANT	1	Ach Select
SENSECABLEID	IQUANT	13	Sense Cable ID
PWRCABLEID	IQUANT	13	Power Cable ID
DCCALDATE	LABEL		DC Calibration Date
ACCALDATE	LABEL		AC Calibration Date
THERMOSELECT	IQUANT	1	Thermo Select
FRAMEWORKVERSION	LABEL	7.8.6	Framework Version
INSTRUMENTVERSION	LABEL	4.50	Instrument Version
COMPLIANCEVOLTAGE	IQUANT	0	Compliance Voltage
CURVE	TABLE	59
	Pt	T	Vf	Im	Vu	Pwr	Sig	Ach	Temp	IERange	Over	Vf1	Vf2	Vf3	Vf4	Vf5	Vf6	Vf7	Vf8	Pwr1	Pwr2	Pwr3	Pwr4	Pwr5	Pwr6	Pwr7	Pwr8
	#	s	V	A	V	W	V	V	deg C	#	bits	V	V	V	V	V	V	V	V	W	W	W	W	W	W	W	W
	0	1	5.40381E-001	9.98523E-002	0.00000E+000	5.39583E-002	9.94000E-001	3.59624E-002	3.34991E+001	11	...........	5.97336E-002	-4.03639E-003	5.63232E-001	6.61118E-001	-3.08057E-002	-3.96943E-002	6.50335E-001	-4.33586E-002	5.96454E-003	-4.03043E-004	5.62400E-002	6.60142E-002	-3.07602E-003	-3.96357E-003	6.49374E-002	-4.32946E-003
	1	2	8.47314E-001	9.98527E-002	0.00000E+000	8.46066E-002	9.94000E-001	3.64827E-002	3.67607E+001	11	...........	6.06143E-002	-4.13236E-003	5.63192E-001	6.60890E-001	-3.07732E-002	-3.96958E-002	6.50367E-001	-4.34126E-002	6.05250E-003	-4.12627E-004	5.62363E-002	6.59916E-002	-3.07279E-003	-3.96374E-003	6.49409E-002	-4.33487E-003
	2	2.04667	1.09380E+000	9.98535E-002	0.00000E+000	1.09220E-001	9.94000E-001	3.74875E-002	4.11702E+001	11	...........	6.21399E-002	-4.37202E-003	5.63190E-001	6.60720E-001	-3.06399E-002	-3.97708E-002	6.50411E-001	-4.34792E-002	6.20488E-003	-4.36562E-004	5.62365E-002	6.59752E-002	-3.05950E-003	-3.97126E-003	6.49458E-002	-4.34155E-003
	3	3	1.10109E+000	6.72744E-002	0.00000E+000	7.40751E-002	6.70012E-001	3.64424E-002	4.09692E+001	11	...........	6.05242E-002	-4.21824E-003	5.63287E-001	6.60630E-001	-3.08049E-002	-3.96793E-002	6.50321E-001	-4.34025E-002	4.07173E-003	-2.83780E-004	3.78948E-002	4.44435E-002	-2.07238E-003	-2.66940E-003	4.37500E-002	-2.91988E-003
	4	4	1.10071E+000	5.15623E-002	0.00000E+000	5.67554E-002	5.13770E-001	3.65127E-002	3.88281E+001	11	...........	6.06682E-002	-4.47028E-003	5.63514E-001	6.60562E-001	-3.08217E-002	-3.96487E-002	6.50235E-001	-4.33581E-002	3.12819E-003	-2.30498E-004	2.90561E-002	3.40601E-002	-1.58924E-003	-2.04438E-003	3.35276E-002	-2.23564E-003
	5	5	1.10075E+000	4.55839E-002	0.00000E+000	5.01764E-002	4.54326E-001	3.64492E-002	3.88434E+001	11	...........	6.05401E-002	-4.23611E-003	5.63410E-001	6.60726E-001	-3.07957E-002	-3.96475E-002	6.50072E-001	-4.33551E-002	2.75965E-003	-1.93098E-004	2.56824E-002	3.01184E-002	-1.40379E-003	-1.80729E-003	2.96328E-002	-1.97629E-003
	6	6	1.10061E+000	4.22551E-002	0.00000E+000	4.65064E-002	4.21229E-001	3.63634E-002	3.77640E+001	11	...........	6.03789E-002	-4.20833E-003	5.63532E-001	6.60763E-001	-3.08229E-002	-3.96583E-002	6.49903E-001	-4.34249E-002	2.55132E-003	-1.77824E-004	2.38121E-002	2.79206E-002	-1.30243E-003	-1.67577E-003	2.74617E-002	-1.83492E-003
	7	7	1.10064E+000	4.01452E-002	0.00000E+000	4.41855E-002	4.00250E-001	3.61508E-002	3.87697E+001	11	...........	6.00653E-002	-4.06153E-003	5.63465E-001	6.61110E-001	-3.08060E-002	-3.96425E-002	6.49992E-001	-4.34296E-002	2.41133E-003	-1.63051E-004	2.26204E-002	2.65404E-002	-1.23671E-003	-1.59146E-003	2.60941E-002	-1.74349E-003
	8	8	1.10072E+000	3.82008E-002	0.00000E+000	4.20485E-002	3.80911E-001	3.63621E-002	3.72788E+001	11	...........	6.04044E-002	-4.11611E-003	5.63530E-001	6.61333E-001	-3.07918E-002	-3.96567E-002	6.50187E-001	-4.34779E-002	2.30750E-003	-1.57239E-004	2.15273E-002	2.52634E-002	-1.17627E-003	-1.51492E-003	2.48377E-002	-1.66089E-003
	9	9	1.10059E+000	3.68746E-002	0.00000E+000	4.05840E-002	3.67729E-001	3.61332E-002	3.79167E+001	11	...........	6.00265E-002	-4.19583E-003	5.63616E-001	6.61057E-001	-3.08156E-002	-3.96654E-002	6.50158E-001	-4.34172E-002	2.21346E-003	-1.54720E-004	2.07831E-002	2.43762E-002	-1.13631E-003	-1.46265E-003	2.39743E-002	-1.60099E-003
	10	10	1.10063E+000	3.60064E-002	0.00000E+000	3.96298E-002	3.59097E-001	3.64641E-002	3.75675E+001	11	...........	6.05843E-002	-4.00722E-003	5.63554E-001	6.61134E-001	-3.07269E-002	-3.96640E-002	6.50106E-001	-4.32029E-002	2.18142E-003	-1.44286E-004	2.02916E-002	2.38051E-002	-1.10637E-003	-1.42816E-003	2.34080E-002	-1.55558E-003
	11	11	1.10071E+000	3.49306E-002	0.00000E+000	3.84486E-002	3.48401E-001	3.61047E-002	3.73935E+001	11	...........	5.99474E-002	-3.95153E-003	5.63601E-001	6.61030E-001	-3.07850E-002	-3.96407E-002	6.50062E-001	-4.32865E-002	2.09400E-003	-1.38029E-004	1.96869E-002	2.30902E-002	-1.07534E-003	-1.38467E-003	2.27071E-002	-1.51202E-003
	12	12	1.10059E+000	3.43582E-002	0.00000E+000	3.78143E-002	3.42709E-001	3.61870E-002	3.79926E+001	11	...........	6.01122E-002	-3.92583E-003	5.63614E-001	6.60996E-001	-3.07843E-002	-3.96444E-002	6.50061E-001	-4.34329E-002	2.06535E-003	-1.34885E-004	1.93648E-002	2.27106E-002	-1.05769E-003	-1.36211E-003	2.23349E-002	-1.49228E-003
	13	13	1.10063E+000	3.40420E-002	0.00000E+000	3.74676E-002	3.39566E-001	3.64908E-002	3.75488E+001	11	...........	6.06244E-002	-4.07903E-003	5.63667E-001	6.61082E-001	-3.07237E-002	-3.96431E-002	6.50062E-001	-4.34012E-002	2.06378E-003	-1.38858E-004	1.91883E-002	2.25045E-002	-1.04590E-003	-1.34953E-003	2.21294E-002	-1.47746E-003
	14	14	1.10071E+000	3.34588E-002	0.00000E+000	3.68282E-002	3.33766E-001	3.60062E-002	3.81809E+001	11	...........	5.97839E-002	-4.11500E-003	5.63696E-001	6.60833E-001	-3.07939E-002	-3.96529E-002	6.49931E-001	-4.33307E-002	2.00030E-003	-1.37683E-004	1.88606E-002	2.21107E-002	-1.03033E-003	-1.32674E-003	2.17459E-002	-1.44979E-003
	15	15	1.10059E+000	3.31287E-002	0.00000E+000	3.64611E-002	3.30484E-001	3.61692E-002	3.66639E+001	11	...........	6.00593E-002	-4.01736E-003	5.63716E-001	6.60758E-001	-3.06804E-002	-3.96581E-002	6.49965E-001	-4.34142E-002	1.98969E-003	-1.33090E-004	1.86752E-002	2.18900E-002	-1.01640E-003	-1.31382E-003	2.15325E-002	-1.43825E-003
	16	16	1.10062E+000	3.31274E-002	0.00000E+000	3.64608E-002	3.30474E-001	3.61635E-002	3.80866E+001	11	...........	6.00621E-002	-3.99264E-003	5.63795E-001	6.61054E-001	-3.06985E-002	-3.96432E-002	6.49997E-001	-4.33240E-002	1.98970E-003	-1.32266E-004	1.86770E-002	2.18990E-002	-1.01696E-003	-1.31328E-003	2.15327E-002	-1.43521E-003
	17	17	1.10070E+000	3.27070E-002	0.00000E+000	3.60007E-002	3.26295E-001	3.62210E-002	3.78124E+001	11	...........	6.01825E-002	-3.96208E-003	5.63831E-001	6.60872E-001	-3.07385E-002	-3.96517E-002	6.50074E-001	-4.33901E-002	1.96839E-003	-1.29588E-004	1.84412E-002	2.16151E-002	-1.00536E-003	-1.29689E-003	2.12620E-002	-1.41916E-003
	18	18	1.10059E+000	3.24854E-002	0.00000E+000	3.57532E-002	3.24093E-001	3.59003E-002	3.70215E+001	11	...........	5.96674E-002	-4.01000E-003	5.63828E-001	6.60743E-001	-3.07035E-002	-3.96533E-002	6.50069E-001	-4.34657E-002	1.93832E-003	-1.30266E-004	1.83162E-002	2.14645E-002	-9.97413E-004	-1.28815E-003	2.11177E-002	-1.41200E-003
	19	19	1.10062E+000	3.24942E-002	0.00000E+000	3.57638E-002	3.24175E-001	3.58967E-002	3.70123E+001	11	...........	5.96458E-002	-4.03611E-003	5.63812E-001	6.60920E-001	-3.07637E-002	-3.96474E-002	6.50092E-001	-4.33418E-002	1.93814E-003	-1.31150E-004	1.83206E-002	2.14761E-002	-9.99643E-004	-1.28831E-003	2.11242E-002	-1.40836E-003
	20	20	1.10070E+000	3.22672E-002	0.00000E+000	3.55165E-002	3.21920E-001	3.60969E-002	3.65635E+001	11	...........	6.01479E-002	-4.01458E-003	5.63770E-001	6.61266E-001	-3.07260E-002	-3.96353E-002	6.50194E-001	-4.33675E-002	1.94080E-003	-1.29539E-004	1.81912E-002	2.13372E-002	-9.91440E-004	-1.27892E-003	2.09799E-002	-1.39935E-003
	21	21	1.10060E+000	3.20648E-002	0.00000E+000	3.52904E-002	3.19909E-001	3.59120E-002	3.74736E+001	11	...........	5.99547E-002	-3.92347E-003	5.63711E-001	6.61413E-001	-3.07121E-002	-3.96343E-002	6.50090E-001	-4.33708E-002	1.92244E-003	-1.25805E-004	1.80753E-002	2.12081E-002	-9.84778E-004	-1.27087E-003	2.08450E-002	-1.39068E-003
	22	22	1.10062E+000	3.21166E-002	0.00000E+000	3.53482E-002	3.20420E-001	3.55670E-002	3.73595E+001	11	...........	5.93529E-002	-3.95569E-003	5.63750E-001	6.61512E-001	-3.07503E-002	-3.96282E-002	6.50047E-001	-4.33086E-002	1.90622E-003	-1.27044E-004	1.81057E-002	2.12456E-002	-9.87596E-004	-1.27272E-003	2.08773E-002	-1.39093E-003
	23	23	1.10070E+000	3.18597E-002	0.00000E+000	3.50680E-002	3.17865E-001	3.61212E-002	3.68506E+001	11	...........	6.02822E-002	-4.03764E-003	5.63855E-001	6.61686E-001	-3.07707E-002	-3.96251E-002	6.50090E-001	-4.33756E-002	1.92058E-003	-1.28638E-004	1.79643E-002	2.10811E-002	-9.80346E-004	-1.26245E-003	2.07117E-002	-1.38193E-003
	24	24	1.10060E+000	3.16448E-002	0.00000E+000	3.48283E-002	3.15729E-001	3.56995E-002	3.70266E+001	11	...........	5.96004E-002	-4.03667E-003	5.63832E-001	6.61601E-001	-3.07211E-002	-3.96160E-002	6.50199E-001	-4.33887E-002	1.88605E-003	-1.27740E-004	1.78424E-002	2.09363E-002	-9.72165E-004	-1.25364E-003	2.05754E-002	-1.37303E-003
	25	25	1.10062E+000	3.17479E-002	0.00000E+000	3.49424E-002	3.16753E-001	3.57297E-002	3.62652E+001	11	...........	5.96421E-002	-4.15306E-003	5.63801E-001	6.61697E-001	-3.07222E-002	-3.96065E-002	6.50205E-001	-4.33632E-002	1.89351E-003	-1.31851E-004	1.78995E-002	2.10075E-002	-9.75366E-004	-1.25742E-003	2.06427E-002	-1.37669E-003
	26	26	1.10070E+000	3.15543E-002	0.00000E+000	3.47317E-002	3.14825E-001	3.57505E-002	3.69007E+001	11	...........	5.96807E-002	-3.95667E-003	5.63683E-001	6.61831E-001	-3.07417E-002	-3.95889E-002	6.50232E-001	-4.34146E-002	1.88318E-003	-1.24850E-004	1.77866E-002	2.08836E-002	-9.70030E-004	-1.24920E-003	2.05176E-002	-1.36991E-003
	27	27	1.10060E+000	3.13897E-002	0.00000E+000	3.45475E-002	3.13193E-001	3.59437E-002	3.79219E+001	11	...........	6.00081E-002	-3.90111E-003	5.63596E-001	6.61770E-001	-3.07844E-002	-3.96082E-002	6.50267E-001	-4.34039E-002	1.88363E-003	-1.22455E-004	1.76911E-002	2.07727E-002	-9.66313E-004	-1.24329E-003	2.04117E-002	-1.36243E-003
	28	28	1.10062E+000	3.14396E-002	0.00000E+000	3.46029E-002	3.13692E-001	3.53799E-002	3.72019E+001	11	...........	5.90596E-002	-3.89181E-003	5.63668E-001	6.61823E-001	-3.07806E-002	-3.96147E-002	6.50206E-001	-4.33751E-002	1.85681E-003	-1.22357E-004	1.77215E-002	2.08074E-002	-9.67728E-004	-1.24547E-003	2.04422E-002	-1.36370E-003
	29	29	1.10070E+000	3.12264E-002	0.00000E+000	3.43708E-002	3.11577E-001	3.58796E-002	3.60872E+001	11	...........	5.98821E-002	-3.86792E-003	5.63590E-001	6.61653E-001	-3.07326E-002	-3.96140E-002	6.50202E-001	-4.33549E-002	1.86990E-003	-1.20781E-004	1.75989E-002	2.06610E-002	-9.59670E-004	-1.23700E-003	2.03035E-002	-1.35382E-003
	30	30	1.10060E+000	3.10572E-002	0.00000E+000	3.41816E-002	3.09893E-001	3.56108E-002	3.74859E+001	11	...........	5.94596E-002	-4.02708E-003	5.63699E-001	6.61566E-001	-3.07412E-002	-3.96122E-002	6.50063E-001	-4.33233E-002	1.84665E-003	-1.25070E-004	1.75069E-002	2.05464E-002	-9.54736E-004	-1.23024E-003	2.01891E-002	-1.34550E-003
	31	31	1.10062E+000	3.11305E-002	0.00000E+000	3.42628E-002	3.10622E-001	3.58343E-002	3.63365E+001	11	...........	5.97962E-002	-4.22333E-003	5.63648E-001	6.61736E-001	-3.07311E-002	-3.96371E-002	6.50037E-001	-4.32835E-002	1.86149E-003	-1.31474E-004	1.75466E-002	2.06002E-002	-9.56674E-004	-1.23392E-003	2.02360E-002	-1.34744E-003
	32	32	1.10069E+000	3.09970E-002	0.00000E+000	3.41181E-002	3.09292E-001	3.57751E-002	3.63889E+001	11	...........	5.97154E-002	-4.11486E-003	5.63590E-001	6.61674E-001	-3.07543E-002	-3.96493E-002	6.50106E-001	-4.33622E-002	1.85100E-003	-1.27548E-004	1.74696E-002	2.05099E-002	-9.53290E-004	-1.22901E-003	2.01513E-002	-1.34410E-003
	33	33	1.10061E+000	3.07550E-002	0.00000E+000	3.38491E-002	3.06889E-001	3.57055E-002	3.62411E+001	11	...........	5.95872E-002	-3.90750E-003	5.63733E-001	6.61658E-001	-3.07879E-002	-3.96311E-002	6.50169E-001	-4.34122E-002	1.83260E-003	-1.20175E-004	1.73376E-002	2.03493E-002	-9.46882E-004	-1.21885E-003	1.99959E-002	-1.33514E-003
	34	34	1.10062E+000	3.08743E-002	0.00000E+000	3.39808E-002	3.08076E-001	3.58222E-002	3.59880E+001	11	...........	5.97839E-002	-3.89375E-003	5.63898E-001	6.61549E-001	-3.07932E-002	-3.96196E-002	6.50134E-001	-4.34161E-002	1.84579E-003	-1.20217E-004	1.74100E-002	2.04249E-002	-9.50719E-004	-1.22323E-003	2.00724E-002	-1.34044E-003
	35	35	1.10069E+000	3.06529E-002	0.00000E+000	3.37394E-002	3.05874E-001	3.55659E-002	3.55506E+001	11	...........	5.93431E-002	-3.96125E-003	5.64002E-001	6.61597E-001	-3.07837E-002	-3.96142E-002	6.50131E-001	-4.34115E-002	1.81904E-003	-1.21424E-004	1.72883E-002	2.02799E-002	-9.43612E-004	-1.21429E-003	1.99284E-002	-1.33069E-003
	36	36	1.10061E+000	3.05010E-002	0.00000E+000	3.35696E-002	3.04365E-001	3.58640E-002	3.58269E+001	11	...........	5.98708E-002	-3.88764E-003	5.64208E-001	6.61639E-001	-3.08064E-002	-3.96344E-002	6.50275E-001	-4.33817E-002	1.82612E-003	-1.18577E-004	1.72089E-002	2.01807E-002	-9.39626E-004	-1.20889E-003	1.98341E-002	-1.32319E-003
	37	37	1.10062E+000	3.05587E-002	0.00000E+000	3.36335E-002	3.04938E-001	3.53281E-002	3.60745E+001	11	...........	5.89586E-002	-3.93028E-003	5.64372E-001	6.61485E-001	-3.08044E-002	-3.96414E-002	6.50279E-001	-4.33974E-002	1.80170E-003	-1.20104E-004	1.72465E-002	2.02141E-002	-9.41344E-004	-1.21139E-003	1.98717E-002	-1.32617E-003
	38	38	1.10069E+000	3.03886E-002	0.00000E+000	3.34485E-002	3.03243E-001	3.59779E-002	3.46647E+001	11	...........	6.00324E-002	-3.88736E-003	5.64517E-001	6.61559E-001	-3.07800E-002	-3.96382E-002	6.50235E-001	-4.33371E-002	1.82430E-003	-1.18132E-004	1.71549E-002	2.01039E-002	-9.35362E-004	-1.20455E-003	1.97597E-002	-1.31695E-003
	39	39	1.10061E+000	3.02066E-002	0.00000E+000	3.32456E-002	3.01437E-001	3.50932E-002	3.61294E+001	11	...........	5.85765E-002	-3.89542E-003	5.64296E-001	6.61642E-001	-3.07551E-002	-3.96432E-002	6.50203E-001	-4.33208E-002	1.76940E-003	-1.17667E-004	1.70455E-002	1.99860E-002	-9.29008E-004	-1.19749E-003	1.96404E-002	-1.30857E-003
	40	40	1.10062E+000	3.03691E-002	0.00000E+000	3.34247E-002	3.03049E-001	3.65238E-002	3.45161E+001	11	...........	6.09494E-002	-3.94083E-003	5.64370E-001	6.61729E-001	-3.07549E-002	-3.96297E-002	6.50301E-001	-4.34029E-002	1.85098E-003	-1.19680E-004	1.71394E-002	2.00961E-002	-9.33997E-004	-1.20352E-003	1.97491E-002	-1.31811E-003
	41	41	1.10069E+000	3.00977E-002	0.00000E+000	3.31281E-002	3.00349E-001	3.47497E-002	3.51445E+001	11	...........	5.79968E-002	-3.84694E-003	5.64025E-001	6.61978E-001	-3.07799E-002	-3.96360E-002	6.50321E-001	-4.34386E-002	1.74557E-003	-1.15784E-004	1.69758E-002	1.99240E-002	-9.26402E-004	-1.19295E-003	1.95732E-002	-1.30740E-003
	42	42	1.10061E+000	2.99664E-002	0.00000E+000	3.29814E-002	2.99043E-001	3.59168E-002	3.42363E+001	11	...........	5.99417E-002	-3.99667E-003	5.64144E-001	6.61929E-001	-3.07708E-002	-3.96372E-002	6.50337E-001	-4.33810E-002	1.79623E-003	-1.19766E-004	1.69053E-002	1.98356E-002	-9.22090E-004	-1.18778E-003	1.94882E-002	-1.29997E-003
	43	43	1.10061E+000	3.00866E-002	0.00000E+000	3.31137E-002	3.00239E-001	3.53492E-002	3.64794E+001	11	...........	5.89914E-002	-3.93778E-003	5.63945E-001	6.61875E-001	-3.07825E-002	-3.96406E-002	6.50236E-001	-4.33276E-002	1.77485E-003	-1.18474E-004	1.69672E-002	1.99136E-002	-9.26141E-004	-1.19265E-003	1.95634E-002	-1.30358E-003
	44	44	1.10069E+000	2.99443E-002	0.00000E+000	3.29593E-002	2.98823E-001	3.57681E-002	3.68556E+001	11	...........	5.96996E-002	-4.00889E-003	5.63827E-001	6.61818E-001	-3.07965E-002	-3.96328E-002	6.50271E-001	-4.32367E-002	1.78766E-003	-1.20043E-004	1.68834E-002	1.98177E-002	-9.22179E-004	-1.18677E-003	1.94719E-002	-1.29469E-003
	45	45	1.10061E+000	2.97201E-002	0.00000E+000	3.27104E-002	2.96597E-001	3.55942E-002	3.53656E+001	11	...........	5.94019E-002	-3.94694E-003	5.63832E-001	6.61720E-001	-3.07817E-002	-3.96358E-002	6.50242E-001	-4.32360E-002	1.76543E-003	-1.17304E-004	1.67572E-002	1.96664E-002	-9.14836E-004	-1.17798E-003	1.93253E-002	-1.28498E-003
	46	46	1.10061E+000	2.98007E-002	0.00000E+000	3.27991E-002	2.97395E-001	3.50525E-002	3.57858E+001	11	...........	5.85074E-002	-3.97972E-003	5.63745E-001	6.61741E-001	-3.07775E-002	-3.96006E-002	6.50249E-001	-4.32746E-002	1.74356E-003	-1.18598E-004	1.68000E-002	1.97204E-002	-9.17191E-004	-1.18012E-003	1.93779E-002	-1.28961E-003
	47	47	1.10068E+000	2.97389E-002	0.00000E+000	3.27331E-002	2.96784E-001	3.60002E-002	3.63328E+001	11	...........	6.00801E-002	-4.05375E-003	5.63245E-001	6.61855E-001	-3.07614E-002	-3.95825E-002	6.50275E-001	-4.33592E-002	1.78672E-003	-1.20554E-004	1.67503E-002	1.96828E-002	-9.14809E-004	-1.17714E-003	1.93384E-002	-1.28945E-003
	48	48	1.10062E+000	2.94993E-002	0.00000E+000	3.24674E-002	2.94396E-001	3.52588E-002	3.63842E+001	11	...........	5.91229E-002	-4.15972E-003	5.61342E-001	6.61760E-001	-3.07618E-002	-3.95801E-002	6.50257E-001	-4.33796E-002	1.74408E-003	-1.22709E-004	1.65592E-002	1.95214E-002	-9.07451E-004	-1.16759E-003	1.91821E-002	-1.27967E-003
	49	49	1.10061E+000	2.95827E-002	0.00000E+000	3.25590E-002	2.95229E-001	3.53517E-002	3.61042E+001	11	...........	5.90076E-002	-4.02639E-003	5.61410E-001	6.61686E-001	-3.07812E-002	-3.95819E-002	6.50230E-001	-4.33383E-002	1.74560E-003	-1.19111E-004	1.66080E-002	1.95744E-002	-9.10592E-004	-1.17094E-003	1.92355E-002	-1.28206E-003
	50	50	1.10069E+000	2.94911E-002	0.00000E+000	3.24605E-002	2.94320E-001	3.54610E-002	3.56586E+001	11	...........	5.91617E-002	-4.07931E-003	5.61534E-001	6.61568E-001	-3.07628E-002	-3.95908E-002	6.50274E-001	-4.33237E-002	1.74474E-003	-1.20303E-004	1.65603E-002	1.95104E-002	-9.07228E-004	-1.16758E-003	1.91773E-002	-1.27767E-003
	51	51	1.10061E+000	2.92501E-002	0.00000E+000	3.21931E-002	2.91922E-001	3.58362E-002	3.50053E+001	11	...........	5.98039E-002	-3.96681E-003	5.61772E-001	6.61608E-001	-3.07836E-002	-3.96146E-002	6.50181E-001	-4.33857E-002	1.74927E-003	-1.16030E-004	1.64319E-002	1.93521E-002	-9.00424E-004	-1.15873E-003	1.90179E-002	-1.26904E-003
	52	52	1.10062E+000	2.93480E-002	0.00000E+000	3.23008E-002	2.92897E-001	3.43964E-002	3.60588E+001	11	...........	5.74035E-002	-3.93944E-003	5.61945E-001	6.61663E-001	-3.07685E-002	-3.96036E-002	6.50222E-001	-4.33790E-002	1.68468E-003	-1.15615E-004	1.64919E-002	1.94185E-002	-9.02992E-004	-1.16229E-003	1.90827E-002	-1.27309E-003
	53	53	1.10068E+000	2.93118E-002	0.00000E+000	3.22629E-002	2.92538E-001	3.64141E-002	3.62599E+001	11	...........	6.07604E-002	-4.08389E-003	5.62325E-001	6.61684E-001	-3.07614E-002	-3.95972E-002	6.50408E-001	-4.34224E-002	1.78100E-003	-1.19706E-004	1.64827E-002	1.93951E-002	-9.01671E-004	-1.16067E-003	1.90646E-002	-1.27279E-003
	54	54	1.10062E+000	2.90030E-002	0.00000E+000	3.19213E-002	2.89471E-001	3.51338E-002	3.63132E+001	11	...........	5.86362E-002	-3.94306E-003	5.62332E-001	6.61690E-001	-3.07600E-002	-3.95818E-002	6.50221E-001	-4.32842E-002	1.70063E-003	-1.14360E-004	1.63093E-002	1.91910E-002	-8.92132E-004	-1.14799E-003	1.88584E-002	-1.25537E-003
	55	55	1.10061E+000	2.91391E-002	0.00000E+000	3.20709E-002	2.90825E-001	3.53823E-002	3.54571E+001	11	...........	5.90744E-002	-4.01958E-003	5.62588E-001	6.61518E-001	-3.07681E-002	-3.95993E-002	6.50029E-001	-4.32328E-002	1.72137E-003	-1.17127E-004	1.63933E-002	1.92760E-002	-8.96552E-004	-1.15389E-003	1.89412E-002	-1.25976E-003
	56	56	1.10068E+000	2.89903E-002	0.00000E+000	3.19091E-002	2.89347E-001	3.54765E-002	3.60751E+001	11	...........	5.92283E-002	-3.96042E-003	5.62598E-001	6.61585E-001	-3.07794E-002	-3.95985E-002	6.50102E-001	-4.33301E-002	1.71705E-003	-1.14814E-004	1.63099E-002	1.91796E-002	-8.92307E-004	-1.14797E-003	1.88467E-002	-1.25616E-003
	57	57	1.10062E+000	2.87513E-002	0.00000E+000	3.16443E-002	2.86969E-001	3.53430E-002	3.61557E+001	11	...........	5.89950E-002	-3.99431E-003	5.62699E-001	6.61728E-001	-3.07579E-002	-3.95897E-002	6.50140E-001	-4.33396E-002	1.69618E-003	-1.14841E-004	1.61783E-002	1.90255E-002	-8.84329E-004	-1.13825E-003	1.86924E-002	-1.24607E-003
	58	57.895	1.10067E+000	2.88484E-002	0.00000E+000	3.17526E-002	2.87945E-001	3.50080E-002	3.47441E+001	11	...........	5.84156E-002	-3.87322E-003	5.62654E-001	6.61847E-001	-3.07325E-002	-3.95838E-002	6.50076E-001	-4.32421E-002	1.68519E-003	-1.11736E-004	1.62317E-002	1.90932E-002	-8.86581E-004	-1.14193E-003	1.87536E-002	-1.24746E-003
STARTTIMEOFFSET	QUANT	492650.8	Start Time Offset (s)
