EXPLAIN
TAG	PWR800_CHARGE
TITLE	LABEL	PWR Charge	Test Identifier
DATE	LABEL	10/18/2022	Date
TIME	LABEL	11:30:27	Time
NOTES	NOTES	1	Notes...
	
PSTAT	PSTAT	REF3000-21114	Potentiostat
CAPACITY	QUANT	5.30000E-002	Capacity (A-hr)
CELLTYPE	SELECTOR	1	Cell Type
WORKINGCONNECTION	SELECTOR	0	Working Connection
MAXCHARGETIME	VARIABLEANDUNITS	7.20000E+003	s	2.00000E+000	hour(s)	Max Charge Time
CHARGEMODE	MULTIPARAM	0	1.00000E-001	Charge Mode	Constant Current	Amp(s)
CHARGECURRENT	QUANT	0.1	Charge Current (A)
VOLTAGEFINISH	TWOPARAM	T	2.50000E-002	7.20000E+003	Voltage Finish	I (A) <	Max Time(s)
SAMPLETIME	QUANT	1.00000E+000	Sample Period (s)
CHARGESTOPAT1	MULTIPARAM	2	1.10000E+000	Stop At 1	|Voltage| > Limit	V
CHARGESTOPAT2	MULTIPARAM	0	0.00000E+000	Stop At 2	None	N/A
AESELECTOR	AESELECTOR	0x1	T	Set Limits	AE Channels
AESBHCSELECTOR	TOGGLE	F	Save Both Half Cells
IRCOMP	TOGGLE	F	IR Measure
EOC	QUANT	0.2555927	Open Circuit (V)
SEQUENCER	TOGGLE	TRUE	Run as Sequence
PSTATMODEL	IQUANT	5	Pstat Model
PSTATSECTION	LABEL	REF3000-21114	Pstat Section
PSTATSERIALNO	LABEL	21114	Pstat Serial Number
CTRLMODE	IQUANT	0	Control Mode
ELECTROMETER	IQUANT	0	RE=0 or CS=1
IESTAB	IQUANT	0	I/E Stability
CASPEED	IQUANT	4	Control Amp Speed
CONVENTION	IQUANT	1	Current Convention
ICHRANGE	IQUANT	2	Ich Range
ICHRANGEMODE	TOGGLE	T	Ich Auto Range
ICHOFFSETENABLE	TOGGLE	F	Ich Offset Enable
ICHOFFSET	QUANT	0	Ich Offset (V)
ICHFILTER	IQUANT	1	Ich Filter
VCHRANGE	IQUANT	3	Vch Range
VCHRANGEMODE	TOGGLE	T	Vch Auto Range
VCHOFFSETENABLE	TOGGLE	F	Vch Offset Enable
VCHOFFSET	QUANT	0	Vch Offset (V)
VCHFILTER	IQUANT	1	Vch Filter
ACHRANGE	IQUANT	2	Ach Range
ACHOFFSETENABLE	TOGGLE	F	Ach Offset Enable
ACHOFFSET	QUANT	0	Ach Offset (V)
ACHFILTER	IQUANT	1	Ach Filter
IERANGELOWERLIMIT	IQUANT	9	I/E Range Lower Limit
IERANGEMODE	TOGGLE	F	I/E AutoRange
IERANGE	IQUANT	9	I/E Range
POSFEEDENABLE	TOGGLE	F	Positive Feedback IR Comp
POSFEEDRESISTANCE	QUANT	0	Positive Feedback Resistance (ohm)
ACHSELECT	IQUANT	1	Ach Select
SENSECABLEID	IQUANT	13	Sense Cable ID
PWRCABLEID	IQUANT	13	Power Cable ID
DCCALDATE	LABEL		DC Calibration Date
ACCALDATE	LABEL		AC Calibration Date
THERMOSELECT	IQUANT	1	Thermo Select
FRAMEWORKVERSION	LABEL	7.8.6	Framework Version
INSTRUMENTVERSION	LABEL	4.50	Instrument Version
COMPLIANCEVOLTAGE	IQUANT	0	Compliance Voltage
CURVE	TABLE	49
	Pt	T	Vf	Im	Vu	Pwr	Sig	Ach	Temp	IERange	Over	Vf1	Vf2	Vf3	Vf4	Vf5	Vf6	Vf7	Vf8	Pwr1	Pwr2	Pwr3	Pwr4	Pwr5	Pwr6	Pwr7	Pwr8
	#	s	V	A	V	W	V	V	deg C	#	bits	V	V	V	V	V	V	V	V	W	W	W	W	W	W	W	W
	0	1	5.53163E-001	9.98558E-002	0.00000E+000	5.52365E-002	9.94000E-001	3.70768E-002	3.91239E+001	11	...........	6.15818E-002	-5.26681E-003	6.08106E-001	5.28003E-001	-2.65996E-002	-3.79857E-002	7.05513E-001	-4.39911E-002	6.14930E-003	-5.25921E-004	6.07229E-002	5.27241E-002	-2.65612E-003	-3.79309E-003	7.04495E-002	-4.39277E-003
	1	2	7.84249E-001	9.98559E-002	0.00000E+000	7.83119E-002	9.94000E-001	3.76888E-002	4.19750E+001	11	...........	6.25755E-002	-5.30833E-003	6.08303E-001	5.27993E-001	-2.66776E-002	-3.79587E-002	7.05530E-001	-4.38882E-002	6.24854E-003	-5.30068E-004	6.07427E-002	5.27233E-002	-2.66392E-003	-3.79041E-003	7.04513E-002	-4.38250E-003
	2	2.2	1.04579E+000	9.98562E-002	0.00000E+000	1.04429E-001	9.94000E-001	3.83929E-002	4.71129E+001	11	...........	6.36917E-002	-5.35278E-003	6.08298E-001	5.27987E-001	-2.66465E-002	-3.79819E-002	7.05609E-001	-4.38778E-002	6.36001E-003	-5.34508E-004	6.07423E-002	5.27228E-002	-2.66082E-003	-3.79273E-003	7.04594E-002	-4.38147E-003
	3	3	1.10101E+000	6.60257E-002	0.00000E+000	7.26950E-002	6.57592E-001	3.80226E-002	4.71913E+001	11	...........	6.30917E-002	-5.36979E-003	6.08306E-001	5.27987E-001	-2.65969E-002	-3.79675E-002	7.05545E-001	-4.38632E-002	4.16567E-003	-3.54544E-004	4.01638E-002	3.48608E-002	-1.75608E-003	-2.50683E-003	4.65841E-002	-2.89610E-003
	4	4	1.10037E+000	4.69474E-002	0.00000E+000	5.16594E-002	4.67887E-001	3.78146E-002	4.65958E+001	11	...........	6.27455E-002	-5.37181E-003	6.08239E-001	5.28006E-001	-2.66164E-002	-3.79671E-002	7.05586E-001	-4.38608E-002	2.94574E-003	-2.52193E-004	2.85553E-002	2.47885E-002	-1.24957E-003	-1.78246E-003	3.31254E-002	-2.05915E-003
	5	5	1.10035E+000	4.10319E-002	0.00000E+000	4.51497E-002	4.09067E-001	3.76133E-002	4.40631E+001	11	...........	6.24280E-002	-5.32125E-003	6.08289E-001	5.28118E-001	-2.66200E-002	-3.79594E-002	7.05477E-001	-4.38671E-002	2.56154E-003	-2.18341E-004	2.49593E-002	2.16697E-002	-1.09227E-003	-1.55755E-003	2.89471E-002	-1.79995E-003
	6	6	1.10033E+000	3.77762E-002	0.00000E+000	4.15665E-002	3.76705E-001	3.78169E-002	4.20515E+001	11	...........	6.27708E-002	-5.30458E-003	6.08274E-001	5.28126E-001	-2.66444E-002	-3.79161E-002	7.05522E-001	-4.38457E-002	2.37125E-003	-2.00387E-004	2.29783E-002	1.99506E-002	-1.00653E-003	-1.43233E-003	2.66520E-002	-1.65633E-003
	7	7	1.10027E+000	3.59539E-002	0.00000E+000	3.95591E-002	3.58581E-001	3.77994E-002	4.41206E+001	11	...........	6.27260E-002	-5.19403E-003	6.08283E-001	5.28141E-001	-2.65989E-002	-3.79342E-002	7.05502E-001	-4.38042E-002	2.25525E-003	-1.86746E-004	2.18702E-002	1.89888E-002	-9.56335E-004	-1.36388E-003	2.53656E-002	-1.57493E-003
	8	8	1.10032E+000	3.45622E-002	0.00000E+000	3.80294E-002	3.44743E-001	3.77369E-002	4.37854E+001	11	...........	6.26283E-002	-5.29736E-003	6.08267E-001	5.28120E-001	-2.66039E-002	-3.79672E-002	7.05532E-001	-4.38140E-002	2.16457E-003	-1.83089E-004	2.10231E-002	1.82530E-002	-9.19489E-004	-1.31223E-003	2.43847E-002	-1.51431E-003
	9	9	1.10032E+000	3.32534E-002	0.00000E+000	3.65893E-002	3.31725E-001	3.78800E-002	4.28024E+001	11	...........	6.28622E-002	-5.13986E-003	6.08051E-001	5.28043E-001	-2.66499E-002	-3.79746E-002	7.05535E-001	-4.38878E-002	2.09038E-003	-1.70918E-004	2.02197E-002	1.75592E-002	-8.86198E-004	-1.26278E-003	2.34614E-002	-1.45942E-003
	10	10	1.10026E+000	3.25607E-002	0.00000E+000	3.58253E-002	3.24841E-001	3.77607E-002	4.34889E+001	11	...........	6.26968E-002	-5.10694E-003	6.07998E-001	5.28008E-001	-2.65844E-002	-3.79325E-002	7.05603E-001	-4.38874E-002	2.04145E-003	-1.66286E-004	1.97968E-002	1.71923E-002	-8.65608E-004	-1.23511E-003	2.29749E-002	-1.42900E-003
	11	11	1.10031E+000	3.20055E-002	0.00000E+000	3.52158E-002	3.19319E-001	3.77497E-002	4.41658E+001	11	...........	6.26706E-002	-5.22083E-003	6.08118E-001	5.27988E-001	-2.66058E-002	-3.79021E-002	7.05663E-001	-4.38565E-002	2.00580E-003	-1.67095E-004	1.94631E-002	1.68985E-002	-8.51532E-004	-1.21307E-003	2.25851E-002	-1.40365E-003
	12	12	1.10031E+000	3.12888E-002	0.00000E+000	3.44276E-002	3.12199E-001	3.76831E-002	4.29517E+001	11	...........	6.25508E-002	-5.26472E-003	6.07803E-001	5.27963E-001	-2.65936E-002	-3.79290E-002	7.05615E-001	-4.38581E-002	1.95714E-003	-1.64727E-004	1.90175E-002	1.65194E-002	-8.32083E-004	-1.18676E-003	2.20779E-002	-1.37227E-003
	13	13	1.10026E+000	3.10149E-002	0.00000E+000	3.41245E-002	3.09477E-001	3.78053E-002	4.36957E+001	11	...........	6.27482E-002	-5.21722E-003	6.07705E-001	5.27967E-001	-2.66204E-002	-3.78932E-002	7.05668E-001	-4.38533E-002	1.94613E-003	-1.61812E-004	1.88479E-002	1.63749E-002	-8.25630E-004	-1.17525E-003	2.18862E-002	-1.36011E-003
	14	14	1.10030E+000	3.07804E-002	0.00000E+000	3.38677E-002	3.07144E-001	3.76082E-002	4.30623E+001	11	...........	6.24321E-002	-5.18444E-003	6.07424E-001	5.27948E-001	-2.65922E-002	-3.79037E-002	7.05708E-001	-4.38475E-002	1.92168E-003	-1.59579E-004	1.86967E-002	1.62504E-002	-8.18519E-004	-1.16669E-003	2.17220E-002	-1.34964E-003
	15	15	1.10031E+000	3.03115E-002	0.00000E+000	3.33522E-002	3.02488E-001	3.77228E-002	4.38080E+001	11	...........	6.26087E-002	-5.17306E-003	6.07435E-001	5.27876E-001	-2.66058E-002	-3.79101E-002	7.05696E-001	-4.38685E-002	1.89776E-003	-1.56803E-004	1.84123E-002	1.60007E-002	-8.06462E-004	-1.14911E-003	2.13907E-002	-1.32972E-003
	16	16	1.10026E+000	3.02139E-002	0.00000E+000	3.32431E-002	3.01514E-001	3.77479E-002	4.31550E+001	11	...........	6.26672E-002	-5.18944E-003	6.07355E-001	5.27952E-001	-2.66306E-002	-3.79132E-002	7.05662E-001	-4.39443E-002	1.89342E-003	-1.56793E-004	1.83506E-002	1.59515E-002	-8.04613E-004	-1.14551E-003	2.13208E-002	-1.32773E-003
	17	17	1.10030E+000	3.00691E-002	0.00000E+000	3.30849E-002	3.00078E-001	3.73619E-002	4.38611E+001	11	...........	6.20222E-002	-5.16681E-003	6.07283E-001	5.27901E-001	-2.66306E-002	-3.78653E-002	7.05560E-001	-4.39631E-002	1.86495E-003	-1.55361E-004	1.82604E-002	1.58735E-002	-8.00756E-004	-1.13857E-003	2.12155E-002	-1.32193E-003
	18	18	1.10031E+000	2.97616E-002	0.00000E+000	3.27472E-002	2.97019E-001	3.78397E-002	4.32282E+001	11	...........	6.28140E-002	-5.19931E-003	6.07212E-001	5.27885E-001	-2.66361E-002	-3.78553E-002	7.05574E-001	-4.39187E-002	1.86945E-003	-1.54740E-004	1.80716E-002	1.57107E-002	-7.92734E-004	-1.12663E-003	2.09990E-002	-1.30709E-003
	19	19	1.10026E+000	2.96846E-002	0.00000E+000	3.26606E-002	2.96251E-001	3.74567E-002	4.29061E+001	11	...........	6.21487E-002	-5.24361E-003	6.06968E-001	5.27904E-001	-2.66257E-002	-3.78975E-002	7.05536E-001	-4.38926E-002	1.84486E-003	-1.55654E-004	1.80176E-002	1.56706E-002	-7.90372E-004	-1.12497E-003	2.09435E-002	-1.30293E-003
	20	20	1.10029E+000	2.96664E-002	0.00000E+000	3.26417E-002	2.96071E-001	3.75423E-002	4.27998E+001	11	...........	6.25293E-002	-5.27764E-003	6.06935E-001	5.27901E-001	-2.66825E-002	-3.79171E-002	7.05626E-001	-4.40804E-002	1.85502E-003	-1.56568E-004	1.80056E-002	1.56609E-002	-7.91573E-004	-1.12486E-003	2.09334E-002	-1.30771E-003
	21	21	1.10032E+000	2.93734E-002	0.00000E+000	3.23200E-002	2.93160E-001	3.72682E-002	4.27566E+001	11	...........	6.21682E-002	-5.24361E-003	6.07023E-001	5.27929E-001	-2.66525E-002	-3.78949E-002	7.05601E-001	-4.39649E-002	1.82609E-003	-1.54023E-004	1.78303E-002	1.55071E-002	-7.82874E-004	-1.11310E-003	2.07259E-002	-1.29140E-003
	22	22	1.10026E+000	2.93544E-002	0.00000E+000	3.22973E-002	2.92969E-001	3.72667E-002	4.37662E+001	11	...........	6.21996E-002	-5.19500E-003	6.06873E-001	5.27951E-001	-2.66487E-002	-3.78800E-002	7.05480E-001	-4.39260E-002	1.82583E-003	-1.52496E-004	1.78144E-002	1.54977E-002	-7.82258E-004	-1.11195E-003	2.07089E-002	-1.28942E-003
	23	23	1.10029E+000	2.93531E-002	0.00000E+000	3.22970E-002	2.92963E-001	3.73873E-002	4.27483E+001	11	...........	6.24060E-002	-5.23375E-003	6.06995E-001	5.27953E-001	-2.66356E-002	-3.79282E-002	7.05431E-001	-4.38803E-002	1.83181E-003	-1.53627E-004	1.78172E-002	1.54971E-002	-7.81836E-004	-1.11331E-003	2.07066E-002	-1.28802E-003
	24	24	1.10032E+000	2.90695E-002	0.00000E+000	3.19856E-002	2.90145E-001	3.72622E-002	4.39070E+001	11	...........	6.22051E-002	-5.22306E-003	6.06971E-001	5.27961E-001	-2.66793E-002	-3.79289E-002	7.05440E-001	-4.38004E-002	1.80827E-003	-1.51831E-004	1.76443E-002	1.53475E-002	-7.75553E-004	-1.10257E-003	2.05067E-002	-1.27325E-003
	25	25	1.10026E+000	2.90877E-002	0.00000E+000	3.20039E-002	2.90327E-001	3.73752E-002	4.42878E+001	11	...........	6.24005E-002	-5.13556E-003	6.07006E-001	5.27920E-001	-2.66554E-002	-3.79090E-002	7.05386E-001	-4.38235E-002	1.81509E-003	-1.49381E-004	1.76564E-002	1.53559E-002	-7.75344E-004	-1.10268E-003	2.05180E-002	-1.27472E-003
	26	26	1.10029E+000	2.90605E-002	0.00000E+000	3.19750E-002	2.90058E-001	3.71162E-002	4.22173E+001	11	...........	6.19444E-002	-5.23111E-003	6.06906E-001	5.27897E-001	-2.66961E-002	-3.78994E-002	7.05271E-001	-4.38240E-002	1.80014E-003	-1.52019E-004	1.76370E-002	1.53410E-002	-7.75802E-004	-1.10138E-003	2.04955E-002	-1.27355E-003
	27	27	1.10032E+000	2.87990E-002	0.00000E+000	3.16881E-002	2.87460E-001	3.70308E-002	4.20529E+001	11	...........	6.19818E-002	-5.14875E-003	6.06793E-001	5.27819E-001	-2.66632E-002	-3.79174E-002	7.05306E-001	-4.37281E-002	1.78501E-003	-1.48279E-004	1.74750E-002	1.52007E-002	-7.67873E-004	-1.09198E-003	2.03121E-002	-1.25932E-003
	28	28	1.10026E+000	2.88287E-002	0.00000E+000	3.17189E-002	2.87754E-001	3.74218E-002	4.33500E+001	11	...........	6.24618E-002	-5.16181E-003	6.06817E-001	5.27882E-001	-2.66715E-002	-3.79346E-002	7.05475E-001	-4.37887E-002	1.80069E-003	-1.48808E-004	1.74937E-002	1.52182E-002	-7.68905E-004	-1.09360E-003	2.03379E-002	-1.26237E-003
	29	29	1.10029E+000	2.88360E-002	0.00000E+000	3.17279E-002	2.87828E-001	3.71802E-002	4.32207E+001	11	...........	6.20335E-002	-5.20222E-003	6.06710E-001	5.27827E-001	-2.66289E-002	-3.79096E-002	7.05477E-001	-4.38126E-002	1.78880E-003	-1.50011E-004	1.74951E-002	1.52204E-002	-7.67870E-004	-1.09316E-003	2.03431E-002	-1.26338E-003
	30	30	1.10032E+000	2.85795E-002	0.00000E+000	3.14466E-002	2.85278E-001	3.70714E-002	4.33431E+001	11	...........	6.18143E-002	-5.19764E-003	6.06760E-001	5.27898E-001	-2.66400E-002	-3.79060E-002	7.05542E-001	-4.38636E-002	1.76662E-003	-1.48546E-004	1.73409E-002	1.50871E-002	-7.61358E-004	-1.08333E-003	2.01640E-002	-1.25360E-003
	31	31	1.10025E+000	2.85778E-002	0.00000E+000	3.14429E-002	2.85264E-001	3.72957E-002	4.33139E+001	11	...........	6.22504E-002	-5.18028E-003	6.06619E-001	5.27922E-001	-2.66339E-002	-3.79360E-002	7.05403E-001	-4.38490E-002	1.77898E-003	-1.48041E-004	1.73358E-002	1.50869E-002	-7.61138E-004	-1.08413E-003	2.01589E-002	-1.25311E-003
	32	32	1.10029E+000	2.86096E-002	0.00000E+000	3.14788E-002	2.85579E-001	3.71250E-002	4.25736E+001	11	...........	6.19464E-002	-5.27486E-003	6.06499E-001	5.27893E-001	-2.66886E-002	-3.79386E-002	7.05493E-001	-4.38608E-002	1.77226E-003	-1.50912E-004	1.73517E-002	1.51028E-002	-7.63552E-004	-1.08541E-003	2.01839E-002	-1.25484E-003
	33	33	1.10032E+000	2.83879E-002	0.00000E+000	3.12358E-002	2.83373E-001	3.72594E-002	4.36703E+001	11	...........	6.21953E-002	-5.27458E-003	6.06362E-001	5.27888E-001	-2.66717E-002	-3.79156E-002	7.05428E-001	-4.38450E-002	1.76559E-003	-1.49734E-004	1.72133E-002	1.49856E-002	-7.57151E-004	-1.07634E-003	2.00256E-002	-1.24467E-003
	34	34	1.10026E+000	2.83784E-002	0.00000E+000	3.12235E-002	2.83273E-001	3.71322E-002	4.34110E+001	11	...........	6.19781E-002	-5.29931E-003	6.06165E-001	5.27907E-001	-2.66993E-002	-3.79343E-002	7.05369E-001	-4.38283E-002	1.75884E-003	-1.50386E-004	1.72020E-002	1.49811E-002	-7.57683E-004	-1.07651E-003	2.00172E-002	-1.24378E-003
	35	35	1.10029E+000	2.84052E-002	0.00000E+000	3.12538E-002	2.83546E-001	3.69626E-002	4.23650E+001	11	...........	6.16519E-002	-5.27847E-003	6.06183E-001	5.27914E-001	-2.66532E-002	-3.79289E-002	7.05503E-001	-4.38226E-002	1.75123E-003	-1.49936E-004	1.72188E-002	1.49955E-002	-7.57089E-004	-1.07738E-003	2.00400E-002	-1.24479E-003
	36	36	1.10032E+000	2.81761E-002	0.00000E+000	3.10028E-002	2.81263E-001	3.72719E-002	4.26905E+001	11	...........	6.22043E-002	-5.26306E-003	6.06182E-001	5.27869E-001	-2.66444E-002	-3.79499E-002	7.05537E-001	-4.38393E-002	1.75268E-003	-1.48292E-004	1.70799E-002	1.48733E-002	-7.50737E-004	-1.06928E-003	1.98793E-002	-1.23522E-003
	37	37	1.10025E+000	2.81761E-002	0.00000E+000	3.10009E-002	2.81263E-001	3.70237E-002	4.20709E+001	11	...........	6.17476E-002	-5.22778E-003	6.06182E-001	5.27842E-001	-2.66825E-002	-3.79322E-002	7.05420E-001	-4.38682E-002	1.73981E-003	-1.47298E-004	1.70798E-002	1.48725E-002	-7.51808E-004	-1.06878E-003	1.98760E-002	-1.23603E-003
	38	38	1.10029E+000	2.82155E-002	0.00000E+000	3.10451E-002	2.81656E-001	3.71762E-002	4.35867E+001	11	...........	6.20315E-002	-5.19819E-003	6.06103E-001	5.27828E-001	-2.66407E-002	-3.79128E-002	7.05519E-001	-4.38333E-002	1.75025E-003	-1.46670E-004	1.71015E-002	1.48929E-002	-7.51681E-004	-1.06973E-003	1.99066E-002	-1.23678E-003
	39	39	1.10032E+000	2.79713E-002	0.00000E+000	3.07775E-002	2.79230E-001	3.70102E-002	4.21846E+001	11	...........	6.17500E-002	-5.22375E-003	6.06111E-001	5.27818E-001	-2.66226E-002	-3.78957E-002	7.05618E-001	-4.38929E-002	1.72723E-003	-1.46115E-004	1.69537E-002	1.47637E-002	-7.44670E-004	-1.05999E-003	1.97370E-002	-1.22774E-003
	40	40	1.10025E+000	2.79653E-002	0.00000E+000	3.07689E-002	2.79172E-001	3.70350E-002	4.15631E+001	11	...........	6.17789E-002	-5.19014E-003	6.06125E-001	5.27854E-001	-2.66539E-002	-3.79106E-002	7.05650E-001	-4.38828E-002	1.72766E-003	-1.45144E-004	1.69504E-002	1.47616E-002	-7.45383E-004	-1.06018E-003	1.97337E-002	-1.22719E-003
	41	41	1.10029E+000	2.80381E-002	0.00000E+000	3.08499E-002	2.79900E-001	3.71772E-002	4.25779E+001	11	...........	6.20367E-002	-5.24111E-003	6.06316E-001	5.27924E-001	-2.66531E-002	-3.79419E-002	7.05696E-001	-4.39186E-002	1.73939E-003	-1.46951E-004	1.70000E-002	1.48020E-002	-7.47302E-004	-1.06382E-003	1.97864E-002	-1.23140E-003
	42	42	1.10032E+000	2.78096E-002	0.00000E+000	3.05995E-002	2.77623E-001	3.69721E-002	4.27166E+001	11	...........	6.16658E-002	-5.18417E-003	6.06500E-001	5.27878E-001	-2.66293E-002	-3.79475E-002	7.05650E-001	-4.39243E-002	1.71490E-003	-1.44169E-004	1.68665E-002	1.46800E-002	-7.40549E-004	-1.05530E-003	1.96238E-002	-1.22152E-003
	43	43	1.10025E+000	2.77894E-002	0.00000E+000	3.05754E-002	2.77421E-001	3.70915E-002	4.25042E+001	11	...........	6.18835E-002	-5.23056E-003	6.06349E-001	5.27662E-001	-2.66542E-002	-3.79451E-002	7.05597E-001	-4.39264E-002	1.71970E-003	-1.45354E-004	1.68500E-002	1.46634E-002	-7.40702E-004	-1.05447E-003	1.96081E-002	-1.22069E-003
	44	44	1.10029E+000	2.78442E-002	0.00000E+000	3.06366E-002	2.77967E-001	3.68932E-002	4.27563E+001	11	...........	6.15158E-002	-5.18764E-003	6.06305E-001	5.27837E-001	-2.66814E-002	-3.79333E-002	7.05613E-001	-4.39064E-002	1.71286E-003	-1.44446E-004	1.68821E-002	1.46972E-002	-7.42922E-004	-1.05622E-003	1.96472E-002	-1.22254E-003
	45	45	1.10033E+000	2.76169E-002	0.00000E+000	3.03875E-002	2.75706E-001	3.70857E-002	4.09199E+001	11	...........	6.18653E-002	-5.21625E-003	6.06514E-001	5.27781E-001	-2.66939E-002	-3.79086E-002	7.05687E-001	-4.39211E-002	1.70852E-003	-1.44056E-004	1.67500E-002	1.45757E-002	-7.37201E-004	-1.04692E-003	1.94889E-002	-1.21296E-003
	46	46	1.10025E+000	2.75937E-002	0.00000E+000	3.03600E-002	2.75472E-001	3.69905E-002	4.26914E+001	11	...........	6.16707E-002	-5.24583E-003	6.06440E-001	5.27563E-001	-2.66154E-002	-3.78981E-002	7.05679E-001	-4.39392E-002	1.70172E-003	-1.44752E-004	1.67339E-002	1.45574E-002	-7.34417E-004	-1.04575E-003	1.94723E-002	-1.21244E-003
	47	47	1.10028E+000	2.76664E-002	0.00000E+000	3.04409E-002	2.76198E-001	3.70091E-002	4.33852E+001	11	...........	6.17354E-002	-5.32306E-003	6.06387E-001	5.27170E-001	-2.66031E-002	-3.78961E-002	7.05716E-001	-4.38511E-002	1.70800E-003	-1.47270E-004	1.67765E-002	1.45849E-002	-7.36011E-004	-1.04845E-003	1.95246E-002	-1.21320E-003
	48	47.4317	1.10038E+000	2.74251E-002	0.00000E+000	3.01781E-002	2.73799E-001	3.70259E-002	4.28127E+001	11	...........	6.17680E-002	-5.32207E-003	6.06383E-001	5.27211E-001	-2.66348E-002	-3.79138E-002	7.05626E-001	-4.39430E-002	1.69399E-003	-1.45958E-004	1.66301E-002	1.44588E-002	-7.30462E-004	-1.03979E-003	1.93519E-002	-1.20514E-003
STARTTIMEOFFSET	QUANT	1005504	Start Time Offset (s)
