EXPLAIN
TAG	PWR800_CHARGE
TITLE	LABEL	PWR Charge	Test Identifier
DATE	LABEL	10/14/2022	Date
TIME	LABEL	23:35:50	Time
NOTES	NOTES	1	Notes...
	
PSTAT	PSTAT	REF3000-21114	Potentiostat
CAPACITY	QUANT	5.30000E-002	Capacity (A-hr)
CELLTYPE	SELECTOR	1	Cell Type
WORKINGCONNECTION	SELECTOR	0	Working Connection
MAXCHARGETIME	VARIABLEANDUNITS	7.20000E+003	s	2.00000E+000	hour(s)	Max Charge Time
CHARGEMODE	MULTIPARAM	0	1.00000E-001	Charge Mode	Constant Current	Amp(s)
CHARGECURRENT	QUANT	0.1	Charge Current (A)
VOLTAGEFINISH	TWOPARAM	T	2.50000E-002	7.20000E+003	Voltage Finish	I (A) <	Max Time(s)
SAMPLETIME	QUANT	1.00000E+000	Sample Period (s)
CHARGESTOPAT1	MULTIPARAM	2	1.10000E+000	Stop At 1	|Voltage| > Limit	V
CHARGESTOPAT2	MULTIPARAM	0	0.00000E+000	Stop At 2	None	N/A
AESELECTOR	AESELECTOR	0x1	T	Set Limits	AE Channels
AESBHCSELECTOR	TOGGLE	F	Save Both Half Cells
IRCOMP	TOGGLE	F	IR Measure
EOC	QUANT	0.257121	Open Circuit (V)
SEQUENCER	TOGGLE	TRUE	Run as Sequence
PSTATMODEL	IQUANT	5	Pstat Model
PSTATSECTION	LABEL	REF3000-21114	Pstat Section
PSTATSERIALNO	LABEL	21114	Pstat Serial Number
CTRLMODE	IQUANT	0	Control Mode
ELECTROMETER	IQUANT	0	RE=0 or CS=1
IESTAB	IQUANT	0	I/E Stability
CASPEED	IQUANT	4	Control Amp Speed
CONVENTION	IQUANT	1	Current Convention
ICHRANGE	IQUANT	2	Ich Range
ICHRANGEMODE	TOGGLE	T	Ich Auto Range
ICHOFFSETENABLE	TOGGLE	F	Ich Offset Enable
ICHOFFSET	QUANT	0	Ich Offset (V)
ICHFILTER	IQUANT	1	Ich Filter
VCHRANGE	IQUANT	3	Vch Range
VCHRANGEMODE	TOGGLE	T	Vch Auto Range
VCHOFFSETENABLE	TOGGLE	F	Vch Offset Enable
VCHOFFSET	QUANT	0	Vch Offset (V)
VCHFILTER	IQUANT	1	Vch Filter
ACHRANGE	IQUANT	2	Ach Range
ACHOFFSETENABLE	TOGGLE	F	Ach Offset Enable
ACHOFFSET	QUANT	0	Ach Offset (V)
ACHFILTER	IQUANT	1	Ach Filter
IERANGELOWERLIMIT	IQUANT	9	I/E Range Lower Limit
IERANGEMODE	TOGGLE	F	I/E AutoRange
IERANGE	IQUANT	9	I/E Range
POSFEEDENABLE	TOGGLE	F	Positive Feedback IR Comp
POSFEEDRESISTANCE	QUANT	0	Positive Feedback Resistance (ohm)
ACHSELECT	IQUANT	1	Ach Select
SENSECABLEID	IQUANT	13	Sense Cable ID
PWRCABLEID	IQUANT	13	Power Cable ID
DCCALDATE	LABEL		DC Calibration Date
ACCALDATE	LABEL		AC Calibration Date
THERMOSELECT	IQUANT	1	Thermo Select
FRAMEWORKVERSION	LABEL	7.8.6	Framework Version
INSTRUMENTVERSION	LABEL	4.50	Instrument Version
COMPLIANCEVOLTAGE	IQUANT	0	Compliance Voltage
CURVE	TABLE	189
	Pt	T	Vf	Im	Vu	Pwr	Sig	Ach	Temp	IERange	Over	Vf1	Vf2	Vf3	Vf4	Vf5	Vf6	Vf7	Vf8	Pwr1	Pwr2	Pwr3	Pwr4	Pwr5	Pwr6	Pwr7	Pwr8
	#	s	V	A	V	W	V	V	deg C	#	bits	V	V	V	V	V	V	V	V	W	W	W	W	W	W	W	W
	0	1	5.28049E-001	9.98649E-002	0.00000E+000	5.27336E-002	9.94000E-001	4.12404E-002	4.10662E+001	11	...........	6.84937E-002	-5.28556E-003	6.09597E-001	5.37206E-001	-2.62999E-002	-3.71911E-002	7.06815E-001	-4.36261E-002	6.84012E-003	-5.27841E-004	6.08773E-002	5.36480E-002	-2.62643E-003	-3.71409E-003	7.05860E-002	-4.35672E-003
	1	2	6.78541E-001	9.98657E-002	0.00000E+000	6.77629E-002	9.94000E-001	4.10862E-002	4.33669E+001	11	...........	6.82340E-002	-5.32028E-003	6.09593E-001	5.37295E-001	-2.62878E-002	-3.71989E-002	7.06723E-001	-4.35703E-002	6.81424E-003	-5.31313E-004	6.08775E-002	5.36573E-002	-2.62525E-003	-3.71489E-003	7.05774E-002	-4.35117E-003
	2	2.82167	9.22353E-001	9.98664E-002	0.00000E+000	9.21121E-002	9.94000E-001	4.24158E-002	4.94393E+001	11	...........	7.04598E-002	-5.50710E-003	6.09708E-001	5.37349E-001	-2.62444E-002	-3.71908E-002	7.06708E-001	-4.35587E-002	7.03657E-003	-5.49974E-004	6.08894E-002	5.36632E-002	-2.62094E-003	-3.71412E-003	7.05764E-002	-4.35005E-003
	3	3	1.10175E+000	8.76313E-002	0.00000E+000	9.65474E-002	8.72344E-001	4.25070E-002	5.14660E+001	11	...........	7.05950E-002	-5.57944E-003	6.09843E-001	5.37371E-001	-2.61550E-002	-3.72290E-002	7.06731E-001	-4.35958E-002	6.18633E-003	-4.88934E-004	5.34413E-002	4.70905E-002	-2.29200E-003	-3.26242E-003	6.19318E-002	-3.82036E-003
	4	4	1.10049E+000	6.40779E-002	0.00000E+000	7.05173E-002	6.38155E-001	4.17976E-002	5.08019E+001	11	...........	6.93958E-002	-5.43306E-003	6.09856E-001	5.37386E-001	-2.62293E-002	-3.72243E-002	7.06587E-001	-4.36686E-002	4.44674E-003	-3.48139E-004	3.90783E-002	3.44346E-002	-1.68072E-003	-2.38526E-003	4.52766E-002	-2.79819E-003
	5	5	1.10029E+000	5.39664E-002	0.00000E+000	5.93787E-002	5.37613E-001	4.19513E-002	5.05314E+001	11	...........	6.96569E-002	-5.24069E-003	6.09888E-001	5.37323E-001	-2.62514E-002	-3.72387E-002	7.06497E-001	-4.34940E-002	3.75913E-003	-2.82821E-004	3.29135E-002	2.89974E-002	-1.41669E-003	-2.00964E-003	3.81271E-002	-2.34721E-003
	6	6	1.10036E+000	5.01104E-002	0.00000E+000	5.51396E-002	4.99279E-001	4.16341E-002	4.85320E+001	11	...........	6.91487E-002	-5.16861E-003	6.09930E-001	5.37218E-001	-2.62400E-002	-3.72179E-002	7.06643E-001	-4.35532E-002	3.46507E-003	-2.59001E-004	3.05638E-002	2.69202E-002	-1.31490E-003	-1.86501E-003	3.54102E-002	-2.18247E-003
	7	7	1.10027E+000	4.77123E-002	0.00000E+000	5.24965E-002	4.75443E-001	4.17617E-002	4.88255E+001	11	...........	6.93785E-002	-5.19472E-003	6.09738E-001	5.37135E-001	-2.61843E-002	-3.71574E-002	7.06639E-001	-4.35568E-002	3.31021E-003	-2.47852E-004	2.90920E-002	2.56280E-002	-1.24931E-003	-1.77286E-003	3.37154E-002	-2.07820E-003
	8	8	1.10024E+000	4.67386E-002	0.00000E+000	5.14236E-002	4.65758E-001	4.19608E-002	5.02048E+001	11	...........	6.96904E-002	-5.23278E-003	6.09698E-001	5.37149E-001	-2.61717E-002	-3.71364E-002	7.06633E-001	-4.34896E-002	3.25723E-003	-2.44573E-004	2.84965E-002	2.51056E-002	-1.22323E-003	-1.73570E-003	3.30270E-002	-2.03264E-003
	9	9	1.10033E+000	4.58381E-002	0.00000E+000	5.04372E-002	4.56805E-001	4.18121E-002	4.98301E+001	11	...........	6.94475E-002	-5.14986E-003	6.09632E-001	5.37124E-001	-2.62118E-002	-3.71275E-002	7.06635E-001	-4.34521E-002	3.18334E-003	-2.36060E-004	2.79444E-002	2.46208E-002	-1.20150E-003	-1.70186E-003	3.23908E-002	-1.99176E-003
	10	10	1.10026E+000	4.48135E-002	0.00000E+000	4.93067E-002	4.46615E-001	4.15717E-002	4.90641E+001	11	...........	6.90043E-002	-5.14542E-003	6.09478E-001	5.37098E-001	-2.62283E-002	-3.71203E-002	7.06452E-001	-4.35712E-002	3.09233E-003	-2.30584E-004	2.73129E-002	2.40693E-002	-1.17538E-003	-1.66349E-003	3.16586E-002	-1.95258E-003
	11	11	1.10023E+000	4.47317E-002	0.00000E+000	4.92151E-002	4.45801E-001	4.19457E-002	4.97815E+001	11	...........	6.96604E-002	-5.19028E-003	6.09521E-001	5.37173E-001	-2.61940E-002	-3.71236E-002	7.06627E-001	-4.36928E-002	3.11603E-003	-2.32170E-004	2.72649E-002	2.40287E-002	-1.17170E-003	-1.66060E-003	3.16086E-002	-1.95445E-003
	12	12	1.10032E+000	4.43205E-002	0.00000E+000	4.87668E-002	4.41716E-001	4.16327E-002	4.95209E+001	11	...........	6.91278E-002	-5.13361E-003	6.09511E-001	5.37396E-001	-2.61597E-002	-3.71010E-002	7.06640E-001	-4.35958E-002	3.06378E-003	-2.27524E-004	2.70138E-002	2.38176E-002	-1.15941E-003	-1.64433E-003	3.13186E-002	-1.93219E-003
	13	13	1.10027E+000	4.37447E-002	0.00000E+000	4.81309E-002	4.35989E-001	4.18100E-002	4.93368E+001	11	...........	6.94317E-002	-5.20833E-003	6.09543E-001	5.37458E-001	-2.62046E-002	-3.71335E-002	7.06629E-001	-4.36546E-002	3.03727E-003	-2.27837E-004	2.66643E-002	2.35109E-002	-1.14631E-003	-1.62439E-003	3.09113E-002	-1.90966E-003
	14	14	1.10022E+000	4.37828E-002	0.00000E+000	4.81708E-002	4.36370E-001	4.15531E-002	4.92571E+001	11	...........	6.90083E-002	-5.17431E-003	6.09454E-001	5.37543E-001	-2.62274E-002	-3.71328E-002	7.06740E-001	-4.35281E-002	3.02138E-003	-2.26545E-004	2.66836E-002	2.35351E-002	-1.14831E-003	-1.62578E-003	3.09430E-002	-1.90578E-003
	15	15	1.10032E+000	4.35800E-002	0.00000E+000	4.79520E-002	4.34350E-001	4.17667E-002	4.79109E+001	11	...........	6.93744E-002	-5.15944E-003	6.09321E-001	5.37576E-001	-2.62342E-002	-3.71486E-002	7.06702E-001	-4.37761E-002	3.02334E-003	-2.24849E-004	2.65542E-002	2.34276E-002	-1.14329E-003	-1.61894E-003	3.07981E-002	-1.90776E-003
	16	16	1.10027E+000	4.30076E-002	0.00000E+000	4.73200E-002	4.28659E-001	4.13781E-002	4.83103E+001	11	...........	6.87407E-002	-5.07611E-003	6.09284E-001	5.37733E-001	-2.62208E-002	-3.71651E-002	7.06735E-001	-4.38617E-002	2.95637E-003	-2.18311E-004	2.62039E-002	2.31266E-002	-1.12770E-003	-1.59838E-003	3.03950E-002	-1.88639E-003
	17	17	1.10022E+000	4.32129E-002	0.00000E+000	4.75438E-002	4.30696E-001	4.17473E-002	4.96158E+001	11	...........	6.93350E-002	-5.25694E-003	6.09237E-001	5.37768E-001	-2.61983E-002	-3.71764E-002	7.06591E-001	-4.38597E-002	2.99616E-003	-2.27168E-004	2.63269E-002	2.32385E-002	-1.13211E-003	-1.60650E-003	3.05338E-002	-1.89530E-003
	18	18	1.10032E+000	4.30503E-002	0.00000E+000	4.73690E-002	4.29084E-001	4.15174E-002	4.95595E+001	11	...........	6.89482E-002	-5.26472E-003	6.09257E-001	5.37662E-001	-2.62458E-002	-3.71747E-002	7.06654E-001	-4.37789E-002	2.96824E-003	-2.26648E-004	2.62287E-002	2.31465E-002	-1.12989E-003	-1.60038E-003	3.04217E-002	-1.88470E-003
	19	19	1.10028E+000	4.24814E-002	0.00000E+000	4.67413E-002	4.23424E-001	4.16433E-002	4.88207E+001	11	...........	6.91500E-002	-5.18056E-003	6.09207E-001	5.37541E-001	-2.62519E-002	-3.71489E-002	7.06668E-001	-4.37867E-002	2.93759E-003	-2.20077E-004	2.58800E-002	2.28355E-002	-1.11522E-003	-1.57814E-003	3.00203E-002	-1.86012E-003
	20	20	1.10022E+000	4.26549E-002	0.00000E+000	4.69299E-002	4.25152E-001	4.13257E-002	4.79880E+001	11	...........	6.88392E-002	-5.35000E-003	6.09276E-001	5.37559E-001	-2.62839E-002	-3.71451E-002	7.06539E-001	-4.38285E-002	2.93633E-003	-2.28204E-004	2.59886E-002	2.29295E-002	-1.12114E-003	-1.58442E-003	3.01373E-002	-1.86950E-003
	21	21	1.10031E+000	4.26090E-002	0.00000E+000	4.68831E-002	4.24694E-001	4.13400E-002	4.98515E+001	11	...........	6.90257E-002	-5.32847E-003	6.09427E-001	5.37544E-001	-2.62414E-002	-3.71204E-002	7.06596E-001	-4.39744E-002	2.94111E-003	-2.27041E-004	2.59671E-002	2.29042E-002	-1.11812E-003	-1.58166E-003	3.01073E-002	-1.87371E-003
	22	22	1.10028E+000	4.20822E-002	0.00000E+000	4.63022E-002	4.19457E-001	4.13363E-002	4.91669E+001	11	...........	6.89943E-002	-5.19389E-003	6.09556E-001	5.37570E-001	-2.62504E-002	-3.71128E-002	7.06692E-001	-4.37644E-002	2.90343E-003	-2.18570E-004	2.56515E-002	2.26221E-002	-1.10467E-003	-1.56179E-003	2.97391E-002	-1.84170E-003
	23	23	1.10022E+000	4.22332E-002	0.00000E+000	4.64659E-002	4.20957E-001	4.09674E-002	4.74445E+001	11	...........	6.83844E-002	-5.10847E-003	6.09491E-001	5.37804E-001	-2.62683E-002	-3.70997E-002	7.06756E-001	-4.36925E-002	2.88809E-003	-2.15747E-004	2.57408E-002	2.27132E-002	-1.10940E-003	-1.56684E-003	2.98485E-002	-1.84527E-003
	24	24	1.10031E+000	4.21635E-002	0.00000E+000	4.63929E-002	4.20268E-001	4.14116E-002	4.74460E+001	11	...........	6.91458E-002	-5.14819E-003	6.09543E-001	5.37890E-001	-2.62629E-002	-3.71037E-002	7.06762E-001	-4.37593E-002	2.91543E-003	-2.17066E-004	2.57005E-002	2.26793E-002	-1.10734E-003	-1.56443E-003	2.97996E-002	-1.84505E-003
	25	25	1.10028E+000	4.16692E-002	0.00000E+000	4.58479E-002	4.15353E-001	4.09400E-002	4.84850E+001	11	...........	6.83582E-002	-5.25292E-003	6.09415E-001	5.37916E-001	-2.62179E-002	-3.70912E-002	7.06703E-001	-4.37887E-002	2.84843E-003	-2.18885E-004	2.53938E-002	2.24145E-002	-1.09248E-003	-1.54556E-003	2.94477E-002	-1.82464E-003
	26	26	1.10022E+000	4.18898E-002	0.00000E+000	4.60881E-002	4.17546E-001	4.13202E-002	4.88794E+001	11	...........	6.89806E-002	-5.14486E-003	6.09348E-001	5.37932E-001	-2.62043E-002	-3.70790E-002	7.06645E-001	-4.37228E-002	2.88958E-003	-2.15517E-004	2.55255E-002	2.25339E-002	-1.09769E-003	-1.55323E-003	2.96012E-002	-1.83154E-003
	27	27	1.10030E+000	4.18078E-002	0.00000E+000	4.60012E-002	4.16731E-001	4.11208E-002	4.92359E+001	11	...........	6.86650E-002	-5.16486E-003	6.09068E-001	5.37924E-001	-2.62465E-002	-3.70662E-002	7.06647E-001	-4.38575E-002	2.87073E-003	-2.15931E-004	2.54638E-002	2.24894E-002	-1.09731E-003	-1.54966E-003	2.95434E-002	-1.83358E-003
	28	28	1.10029E+000	4.13650E-002	0.00000E+000	4.55135E-002	4.12330E-001	4.11003E-002	4.92807E+001	11	...........	6.86279E-002	-5.12208E-003	6.09139E-001	5.37913E-001	-2.62378E-002	-3.70681E-002	7.06661E-001	-4.38090E-002	2.83879E-003	-2.11875E-004	2.51970E-002	2.22508E-002	-1.08533E-003	-1.53332E-003	2.92310E-002	-1.81216E-003
	29	29	1.10022E+000	4.15123E-002	0.00000E+000	4.56726E-002	4.13796E-001	4.11027E-002	4.82511E+001	11	...........	6.86253E-002	-5.11833E-003	6.09018E-001	5.37911E-001	-2.62631E-002	-3.70682E-002	7.06678E-001	-4.37667E-002	2.84879E-003	-2.12474E-004	2.52817E-002	2.23299E-002	-1.09024E-003	-1.53879E-003	2.93358E-002	-1.81685E-003
	30	30	1.10030E+000	4.13910E-002	0.00000E+000	4.55425E-002	4.12587E-001	4.08071E-002	4.64880E+001	11	...........	6.81419E-002	-5.09653E-003	6.08978E-001	5.37887E-001	-2.62224E-002	-3.70636E-002	7.06636E-001	-4.37958E-002	2.82046E-003	-2.10950E-004	2.52062E-002	2.22637E-002	-1.08537E-003	-1.53410E-003	2.92483E-002	-1.81275E-003
	31	31	1.10029E+000	4.10640E-002	0.00000E+000	4.51824E-002	4.09335E-001	4.11443E-002	4.93097E+001	11	...........	6.86912E-002	-5.07306E-003	6.09022E-001	5.37723E-001	-2.61947E-002	-3.70867E-002	7.06665E-001	-4.38186E-002	2.82074E-003	-2.08320E-004	2.50089E-002	2.20811E-002	-1.07566E-003	-1.52293E-003	2.90185E-002	-1.79937E-003
	32	32	1.10022E+000	4.12318E-002	0.00000E+000	4.53639E-002	4.11003E-001	4.10811E-002	4.96527E+001	11	...........	6.85760E-002	-5.29819E-003	6.09100E-001	5.37892E-001	-2.62272E-002	-3.71194E-002	7.06752E-001	-4.38954E-002	2.82751E-003	-2.18454E-004	2.51143E-002	2.21783E-002	-1.08140E-003	-1.53050E-003	2.91406E-002	-1.80989E-003
	33	33	1.10030E+000	4.11376E-002	0.00000E+000	4.52638E-002	4.10066E-001	4.09418E-002	4.80849E+001	11	...........	6.83239E-002	-5.27292E-003	6.09193E-001	5.37838E-001	-2.62317E-002	-3.71444E-002	7.06624E-001	-4.38011E-002	2.81068E-003	-2.16915E-004	2.50608E-002	2.21254E-002	-1.07911E-003	-1.52803E-003	2.90688E-002	-1.80187E-003
	34	34	1.10029E+000	4.06824E-002	0.00000E+000	4.47627E-002	4.05540E-001	4.10025E-002	4.93078E+001	11	...........	6.84742E-002	-5.16208E-003	6.09362E-001	5.37741E-001	-2.62082E-002	-3.71428E-002	7.06677E-001	-4.37626E-002	2.78570E-003	-2.10006E-004	2.47903E-002	2.18766E-002	-1.06621E-003	-1.51106E-003	2.87493E-002	-1.78037E-003
	35	35	1.10022E+000	4.08677E-002	0.00000E+000	4.49633E-002	4.07382E-001	4.07911E-002	4.76796E+001	11	...........	6.81012E-002	-5.21542E-003	6.09549E-001	5.37693E-001	-2.62097E-002	-3.71407E-002	7.06722E-001	-4.37572E-002	2.78314E-003	-2.13142E-004	2.49109E-002	2.19743E-002	-1.07113E-003	-1.51785E-003	2.88821E-002	-1.78826E-003
	36	36	1.10029E+000	4.08686E-002	0.00000E+000	4.49674E-002	4.07392E-001	4.10214E-002	4.86296E+001	11	...........	6.84894E-002	-5.23194E-003	6.09549E-001	5.37791E-001	-2.62117E-002	-3.71399E-002	7.06807E-001	-4.39328E-002	2.79906E-003	-2.13822E-004	2.49114E-002	2.19787E-002	-1.07123E-003	-1.51785E-003	2.88862E-002	-1.79547E-003
	37	37	1.10030E+000	4.03842E-002	0.00000E+000	4.44349E-002	4.02578E-001	4.06737E-002	4.91586E+001	11	...........	6.79143E-002	-5.13361E-003	6.09553E-001	5.37996E-001	-2.61994E-002	-3.71260E-002	7.06704E-001	-4.38885E-002	2.74267E-003	-2.07317E-004	2.46163E-002	2.17266E-002	-1.05804E-003	-1.49930E-003	2.85397E-002	-1.77240E-003
	38	38	1.10021E+000	4.05447E-002	0.00000E+000	4.46078E-002	4.04176E-001	4.10964E-002	4.96591E+001	11	...........	6.86243E-002	-5.21375E-003	6.09505E-001	5.37929E-001	-2.61854E-002	-3.71454E-002	7.06599E-001	-4.36862E-002	2.78235E-003	-2.11390E-004	2.47122E-002	2.18102E-002	-1.06168E-003	-1.50605E-003	2.86489E-002	-1.77125E-003
	39	39	1.10029E+000	4.04861E-002	0.00000E+000	4.45465E-002	4.03590E-001	4.06669E-002	4.63624E+001	11	...........	6.79093E-002	-5.28514E-003	6.09504E-001	5.38053E-001	-2.61731E-002	-3.71410E-002	7.06631E-001	-4.37015E-002	2.74938E-003	-2.13975E-004	2.46764E-002	2.17836E-002	-1.05964E-003	-1.50369E-003	2.86087E-002	-1.76930E-003
	40	40	1.10031E+000	4.00643E-002	0.00000E+000	4.40830E-002	3.99395E-001	4.08608E-002	4.87281E+001	11	...........	6.82175E-002	-5.28556E-003	6.09532E-001	5.38050E-001	-2.61819E-002	-3.71283E-002	7.06602E-001	-4.35675E-002	2.73309E-003	-2.11762E-004	2.44205E-002	2.15566E-002	-1.04896E-003	-1.48752E-003	2.83095E-002	-1.74550E-003
	41	41	1.10021E+000	4.02725E-002	0.00000E+000	4.43083E-002	4.01466E-001	4.09088E-002	4.95785E+001	11	...........	6.82904E-002	-5.45903E-003	6.09595E-001	5.38043E-001	-2.61910E-002	-3.71237E-002	7.06663E-001	-4.36892E-002	2.75022E-003	-2.19849E-004	2.45499E-002	2.16683E-002	-1.05478E-003	-1.49507E-003	2.84591E-002	-1.75947E-003
	42	42	1.10029E+000	4.02079E-002	0.00000E+000	4.42403E-002	4.00822E-001	4.07487E-002	4.73039E+001	11	...........	6.80375E-002	-5.27625E-003	6.09447E-001	5.37996E-001	-2.61799E-002	-3.71167E-002	7.06726E-001	-4.38556E-002	2.73565E-003	-2.12147E-004	2.45046E-002	2.16317E-002	-1.05264E-003	-1.49238E-003	2.84160E-002	-1.76334E-003
	43	43	1.10031E+000	3.96882E-002	0.00000E+000	4.36694E-002	3.95656E-001	4.06925E-002	4.74411E+001	11	...........	6.79319E-002	-5.09444E-003	6.09466E-001	5.37839E-001	-2.61889E-002	-3.71078E-002	7.06765E-001	-4.38589E-002	2.69610E-003	-2.02189E-004	2.41886E-002	2.13459E-002	-1.03939E-003	-1.47274E-003	2.80502E-002	-1.74068E-003
	44	44	1.10021E+000	3.98983E-002	0.00000E+000	4.38964E-002	3.97744E-001	4.07913E-002	4.78089E+001	11	...........	6.80937E-002	-5.20972E-003	6.09390E-001	5.37698E-001	-2.61876E-002	-3.71360E-002	7.06764E-001	-4.37885E-002	2.71682E-003	-2.07859E-004	2.43136E-002	2.14532E-002	-1.04484E-003	-1.48166E-003	2.81987E-002	-1.74708E-003
	45	45	1.10028E+000	3.99423E-002	0.00000E+000	4.39479E-002	3.98181E-001	4.08047E-002	4.89499E+001	11	...........	6.81283E-002	-5.20625E-003	6.09350E-001	5.38023E-001	-2.61786E-002	-3.71690E-002	7.06693E-001	-4.36629E-002	2.72120E-003	-2.07950E-004	2.43388E-002	2.14899E-002	-1.04563E-003	-1.48462E-003	2.82269E-002	-1.74400E-003
	46	46	1.10032E+000	3.94826E-002	0.00000E+000	4.34434E-002	3.93612E-001	4.07992E-002	4.92715E+001	11	...........	6.81125E-002	-5.10806E-003	6.09401E-001	5.38242E-001	-2.61960E-002	-3.71861E-002	7.06763E-001	-4.35861E-002	2.68926E-003	-2.01679E-004	2.40607E-002	2.12512E-002	-1.03428E-003	-1.46820E-003	2.79048E-002	-1.72089E-003
	47	47	1.10021E+000	3.95785E-002	0.00000E+000	4.35446E-002	3.94567E-001	4.05712E-002	4.74927E+001	11	...........	6.77525E-002	-5.09931E-003	6.09524E-001	5.38505E-001	-2.61846E-002	-3.71718E-002	7.06830E-001	-4.36831E-002	2.68154E-003	-2.01823E-004	2.41240E-002	2.13132E-002	-1.03635E-003	-1.47120E-003	2.79753E-002	-1.72891E-003
	48	48	1.10028E+000	3.96656E-002	0.00000E+000	4.36432E-002	3.95431E-001	4.07714E-002	4.80122E+001	11	...........	6.80742E-002	-4.99319E-003	6.09498E-001	5.38498E-001	-2.62012E-002	-3.71672E-002	7.06811E-001	-4.37369E-002	2.70020E-003	-1.98058E-004	2.41761E-002	2.13598E-002	-1.03929E-003	-1.47426E-003	2.80361E-002	-1.73485E-003
	49	49	1.10032E+000	3.92023E-002	0.00000E+000	4.31352E-002	3.90823E-001	4.06517E-002	4.97972E+001	11	...........	6.78829E-002	-5.03861E-003	6.09475E-001	5.38483E-001	-2.62250E-002	-3.71754E-002	7.06740E-001	-4.37611E-002	2.66117E-003	-1.97525E-004	2.38929E-002	2.11098E-002	-1.02808E-003	-1.45736E-003	2.77059E-002	-1.71554E-003
	50	50	1.10021E+000	3.92944E-002	0.00000E+000	4.32321E-002	3.91740E-001	4.06128E-002	4.86708E+001	11	...........	6.78075E-002	-5.21208E-003	6.09525E-001	5.38504E-001	-2.62157E-002	-3.71353E-002	7.06675E-001	-4.37122E-002	2.66446E-003	-2.04806E-004	2.39509E-002	2.11602E-002	-1.03013E-003	-1.45921E-003	2.77684E-002	-1.71765E-003
	51	51	1.10028E+000	3.92655E-002	0.00000E+000	4.32029E-002	3.91453E-001	4.04598E-002	4.71967E+001	11	...........	6.75629E-002	-5.14222E-003	6.09531E-001	5.38293E-001	-2.62356E-002	-3.70996E-002	7.06731E-001	-4.36261E-002	2.65289E-003	-2.01912E-004	2.39335E-002	2.11363E-002	-1.03015E-003	-1.45673E-003	2.77501E-002	-1.71300E-003
	52	52	1.10033E+000	3.88774E-002	0.00000E+000	4.27778E-002	3.87595E-001	4.06948E-002	4.91267E+001	11	...........	6.79507E-002	-5.04111E-003	6.09671E-001	5.38119E-001	-2.62722E-002	-3.71117E-002	7.06764E-001	-4.35924E-002	2.64175E-003	-1.95985E-004	2.37025E-002	2.09207E-002	-1.02140E-003	-1.44281E-003	2.74772E-002	-1.69476E-003
	53	53	1.10020E+000	3.90327E-002	0.00000E+000	4.29440E-002	3.89139E-001	4.05407E-002	4.85099E+001	11	...........	6.76825E-002	-5.24278E-003	6.09590E-001	5.38168E-001	-2.62510E-002	-3.71142E-002	7.06922E-001	-4.35914E-002	2.64183E-003	-2.04640E-004	2.37940E-002	2.10062E-002	-1.02465E-003	-1.44867E-003	2.75931E-002	-1.70149E-003
	54	54	1.10028E+000	3.90524E-002	0.00000E+000	4.29685E-002	3.89336E-001	4.06352E-002	4.88685E+001	11	...........	6.78415E-002	-5.36375E-003	6.09588E-001	5.38142E-001	-2.62612E-002	-3.71257E-002	7.06922E-001	-4.35412E-002	2.64938E-003	-2.09467E-004	2.38059E-002	2.10157E-002	-1.02557E-003	-1.44985E-003	2.76070E-002	-1.70039E-003
	55	55	1.10033E+000	3.85850E-002	0.00000E+000	4.24562E-002	3.84689E-001	4.02502E-002	4.85355E+001	11	...........	6.72129E-002	-5.33153E-003	6.09689E-001	5.38066E-001	-2.62458E-002	-3.71342E-002	7.06866E-001	-4.34976E-002	2.59341E-003	-2.05717E-004	2.35249E-002	2.07613E-002	-1.01270E-003	-1.43282E-003	2.72744E-002	-1.67836E-003
	56	56	1.10021E+000	3.87387E-002	0.00000E+000	4.26206E-002	3.86216E-001	4.07427E-002	4.85344E+001	11	...........	6.80221E-002	-5.35042E-003	6.09830E-001	5.38039E-001	-2.62506E-002	-3.71381E-002	7.06872E-001	-4.34468E-002	2.63509E-003	-2.07268E-004	2.36240E-002	2.08429E-002	-1.01691E-003	-1.43868E-003	2.73833E-002	-1.68307E-003
	57	57	1.10027E+000	3.87053E-002	0.00000E+000	4.25864E-002	3.85881E-001	4.01774E-002	4.66314E+001	11	...........	6.70881E-002	-5.36736E-003	6.09726E-001	5.37978E-001	-2.62364E-002	-3.71267E-002	7.06931E-001	-4.35758E-002	2.59666E-003	-2.07745E-004	2.35996E-002	2.08226E-002	-1.01549E-003	-1.43700E-003	2.73620E-002	-1.68661E-003
	58	58	1.10033E+000	3.83650E-002	0.00000E+000	4.22142E-002	3.82499E-001	4.06600E-002	4.90905E+001	11	...........	6.79019E-002	-5.26222E-003	6.09847E-001	5.38029E-001	-2.62326E-002	-3.71351E-002	7.06960E-001	-4.36335E-002	2.60506E-003	-2.01885E-004	2.33968E-002	2.06414E-002	-1.00641E-003	-1.42469E-003	2.71225E-002	-1.67400E-003
	59	59	1.10021E+000	3.84608E-002	0.00000E+000	4.23147E-002	3.83454E-001	4.04850E-002	4.92397E+001	11	...........	6.76074E-002	-5.19472E-003	6.09605E-001	5.38108E-001	-2.62683E-002	-3.71565E-002	7.06870E-001	-4.37908E-002	2.60023E-003	-1.99793E-004	2.34459E-002	2.06960E-002	-1.01030E-003	-1.42907E-003	2.71868E-002	-1.68423E-003
	60	60	1.10027E+000	3.84804E-002	0.00000E+000	4.23390E-002	3.83646E-001	4.04483E-002	4.64711E+001	11	...........	6.75347E-002	-5.18208E-003	6.09519E-001	5.38047E-001	-2.62762E-002	-3.71708E-002	7.06881E-001	-4.36333E-002	2.59877E-003	-1.99409E-004	2.34546E-002	2.07043E-002	-1.01112E-003	-1.43035E-003	2.72011E-002	-1.67903E-003
	61	61	1.10033E+000	3.80747E-002	0.00000E+000	4.18948E-002	3.79618E-001	4.03029E-002	4.81991E+001	11	...........	6.73090E-002	-5.15194E-003	6.09453E-001	5.38056E-001	-2.62411E-002	-3.71876E-002	7.06917E-001	-4.36522E-002	2.56277E-003	-1.96159E-004	2.32047E-002	2.04863E-002	-9.99122E-004	-1.41591E-003	2.69156E-002	-1.66204E-003
	62	62	1.10021E+000	3.81744E-002	0.00000E+000	4.19997E-002	3.80606E-001	4.05372E-002	4.99008E+001	11	...........	6.76807E-002	-5.16028E-003	6.09593E-001	5.37989E-001	-2.62231E-002	-3.71922E-002	7.06818E-001	-4.36158E-002	2.58367E-003	-1.96991E-004	2.32709E-002	2.05374E-002	-1.00105E-003	-1.41979E-003	2.69824E-002	-1.66501E-003
	63	63	1.10027E+000	3.82137E-002	0.00000E+000	4.20453E-002	3.80995E-001	4.00921E-002	4.96068E+001	11	...........	6.74574E-002	-5.21403E-003	6.09630E-001	5.38037E-001	-2.62265E-002	-3.72193E-002	7.06803E-001	-4.36633E-002	2.57779E-003	-1.99247E-004	2.32962E-002	2.05604E-002	-1.00221E-003	-1.42229E-003	2.70095E-002	-1.66854E-003
	64	64	1.10034E+000	3.77535E-002	0.00000E+000	4.15416E-002	3.76418E-001	4.02661E-002	4.64746E+001	11	...........	6.72218E-002	-5.21139E-003	6.09657E-001	5.38007E-001	-2.62011E-002	-3.72400E-002	7.06773E-001	-4.36967E-002	2.53786E-003	-1.96748E-004	2.30167E-002	2.03117E-002	-9.89185E-004	-1.40594E-003	2.66832E-002	-1.64970E-003
	65	65	1.10020E+000	3.78931E-002	0.00000E+000	4.16902E-002	3.77807E-001	4.04170E-002	4.92171E+001	11	...........	6.74951E-002	-5.13958E-003	6.09604E-001	5.37905E-001	-2.62269E-002	-3.72226E-002	7.06752E-001	-4.36921E-002	2.55760E-003	-1.94755E-004	2.30998E-002	2.03829E-002	-9.93821E-004	-1.41048E-003	2.67811E-002	-1.65563E-003
	66	66	1.10027E+000	3.79698E-002	0.00000E+000	4.17769E-002	3.78571E-001	4.02949E-002	4.92258E+001	11	...........	6.72940E-002	-5.07861E-003	6.09632E-001	5.37831E-001	-2.62386E-002	-3.72167E-002	7.06790E-001	-4.37733E-002	2.55514E-003	-1.92834E-004	2.31476E-002	2.04213E-002	-9.96276E-004	-1.41311E-003	2.68367E-002	-1.66207E-003
	67	67	1.10034E+000	3.74730E-002	0.00000E+000	4.12330E-002	3.73633E-001	4.02193E-002	4.78828E+001	11	...........	6.71658E-002	-5.15875E-003	6.09632E-001	5.37787E-001	-2.62546E-002	-3.72187E-002	7.06770E-001	-4.38294E-002	2.51690E-003	-1.93314E-004	2.28448E-002	2.01525E-002	-9.83838E-004	-1.39470E-003	2.64848E-002	-1.64242E-003
	68	68	1.10021E+000	3.75941E-002	0.00000E+000	4.13613E-002	3.74838E-001	4.03025E-002	4.67888E+001	11	...........	6.72912E-002	-5.16833E-003	6.09691E-001	5.37807E-001	-2.62297E-002	-3.72358E-002	7.06915E-001	-4.36928E-002	2.52976E-003	-1.94299E-004	2.29208E-002	2.02184E-002	-9.86083E-004	-1.39985E-003	2.65759E-002	-1.64259E-003
	69	69	1.10026E+000	3.76734E-002	0.00000E+000	4.14505E-002	3.75626E-001	4.01845E-002	4.91152E+001	11	...........	6.70982E-002	-5.06347E-003	6.09648E-001	5.37830E-001	-2.62292E-002	-3.72535E-002	7.06849E-001	-4.36629E-002	2.52782E-003	-1.90758E-004	2.29675E-002	2.02619E-002	-9.88141E-004	-1.40346E-003	2.66294E-002	-1.64493E-003
	70	70	1.10034E+000	3.73009E-002	0.00000E+000	4.10438E-002	3.71921E-001	4.03461E-002	4.94929E+001	11	...........	6.73854E-002	-5.23403E-003	6.09606E-001	5.37568E-001	-2.61836E-002	-3.72508E-002	7.06854E-001	-4.36867E-002	2.51354E-003	-1.95234E-004	2.27389E-002	2.00518E-002	-9.76672E-004	-1.38949E-003	2.63663E-002	-1.62955E-003
	71	71	1.10021E+000	3.73087E-002	0.00000E+000	4.10472E-002	3.71995E-001	4.01178E-002	4.87209E+001	11	...........	6.70036E-002	-5.14431E-003	6.09542E-001	5.37426E-001	-2.61712E-002	-3.72425E-002	7.06949E-001	-4.37086E-002	2.49982E-003	-1.91927E-004	2.27412E-002	2.00507E-002	-9.76414E-004	-1.38947E-003	2.63753E-002	-1.63071E-003
	72	72	1.10026E+000	3.74185E-002	0.00000E+000	4.11702E-002	3.73092E-001	4.02059E-002	4.82645E+001	11	...........	6.71318E-002	-5.16458E-003	6.09545E-001	5.37339E-001	-2.61287E-002	-3.72554E-002	7.06940E-001	-4.36757E-002	2.51197E-003	-1.93251E-004	2.28083E-002	2.01064E-002	-9.77700E-004	-1.39404E-003	2.64527E-002	-1.63428E-003
	73	73	1.10034E+000	3.70180E-002	0.00000E+000	4.07325E-002	3.69106E-001	4.01652E-002	4.85560E+001	11	...........	6.70533E-002	-5.24847E-003	6.09682E-001	5.37310E-001	-2.61399E-002	-3.72464E-002	7.07037E-001	-4.38635E-002	2.48218E-003	-1.94288E-004	2.25692E-002	1.98901E-002	-9.67645E-004	-1.37879E-003	2.61731E-002	-1.62374E-003
	74	74	1.10020E+000	3.70063E-002	0.00000E+000	4.07144E-002	3.68988E-001	3.99923E-002	4.68286E+001	11	...........	6.67760E-002	-5.20069E-003	6.09779E-001	5.37291E-001	-2.61689E-002	-3.72086E-002	7.06952E-001	-4.38326E-002	2.47113E-003	-1.92458E-004	2.25656E-002	1.98831E-002	-9.68413E-004	-1.37695E-003	2.61617E-002	-1.62208E-003
	75	75	1.10026E+000	3.71651E-002	0.00000E+000	4.08914E-002	3.70570E-001	4.02267E-002	4.86495E+001	11	...........	6.71535E-002	-5.15458E-003	6.09845E-001	5.37186E-001	-2.61794E-002	-3.71901E-002	7.07024E-001	-4.37899E-002	2.49577E-003	-1.91571E-004	2.26650E-002	1.99646E-002	-9.72962E-004	-1.38218E-003	2.62766E-002	-1.62746E-003
	76	76	1.10034E+000	3.67905E-002	0.00000E+000	4.04821E-002	3.66840E-001	4.00418E-002	4.80907E+001	11	...........	6.68531E-002	-5.15625E-003	6.09759E-001	5.37050E-001	-2.61989E-002	-3.71743E-002	7.07078E-001	-4.37607E-002	2.45956E-003	-1.89701E-004	2.24333E-002	1.97583E-002	-9.63870E-004	-1.36766E-003	2.60137E-002	-1.60998E-003
	77	77	1.10021E+000	3.68002E-002	0.00000E+000	4.04879E-002	3.66944E-001	4.02323E-002	4.91581E+001	11	...........	6.71832E-002	-5.15236E-003	6.09729E-001	5.37093E-001	-2.61647E-002	-3.71854E-002	7.07029E-001	-4.38032E-002	2.47236E-003	-1.89608E-004	2.24382E-002	1.97652E-002	-9.62868E-004	-1.36843E-003	2.60188E-002	-1.61197E-003
	78	78	1.10026E+000	3.68899E-002	0.00000E+000	4.05885E-002	3.67834E-001	4.00948E-002	4.81440E+001	11	...........	6.69396E-002	-5.20681E-003	6.09760E-001	5.37245E-001	-2.61547E-002	-3.71950E-002	7.06911E-001	-4.37678E-002	2.46940E-003	-1.92079E-004	2.24940E-002	1.98189E-002	-9.64845E-004	-1.37212E-003	2.60779E-002	-1.61459E-003
	79	79	1.10034E+000	3.64689E-002	0.00000E+000	4.01283E-002	3.63649E-001	3.99597E-002	4.79185E+001	11	...........	6.67369E-002	-5.07000E-003	6.09730E-001	5.37162E-001	-2.61557E-002	-3.72251E-002	7.06976E-001	-4.39119E-002	2.43382E-003	-1.84897E-004	2.22362E-002	1.95897E-002	-9.53868E-004	-1.35756E-003	2.57826E-002	-1.60142E-003
	80	80	1.10021E+000	3.65311E-002	0.00000E+000	4.01918E-002	3.64265E-001	4.00964E-002	4.62842E+001	11	...........	6.69372E-002	-5.06681E-003	6.09933E-001	5.37074E-001	-2.61939E-002	-3.71931E-002	7.06922E-001	-4.38014E-002	2.44529E-003	-1.85096E-004	2.22815E-002	1.96199E-002	-9.56892E-004	-1.35870E-003	2.58246E-002	-1.60011E-003
	81	81	1.10026E+000	3.66044E-002	0.00000E+000	4.02743E-002	3.64996E-001	3.98872E-002	4.82477E+001	11	...........	6.66097E-002	-5.13333E-003	6.10038E-001	5.37150E-001	-2.62000E-002	-3.71974E-002	7.06909E-001	-4.36703E-002	2.43821E-003	-1.87903E-004	2.23301E-002	1.96621E-002	-9.59036E-004	-1.36159E-003	2.58760E-002	-1.59853E-003
	82	82	1.10035E+000	3.62953E-002	0.00000E+000	3.99374E-002	3.61919E-001	4.01138E-002	4.92844E+001	11	...........	6.69803E-002	-5.29667E-003	6.09994E-001	5.37326E-001	-2.62092E-002	-3.72004E-002	7.06817E-001	-4.35800E-002	2.43107E-003	-1.92244E-004	2.21399E-002	1.95024E-002	-9.51270E-004	-1.35020E-003	2.56541E-002	-1.58175E-003
	83	83	1.10021E+000	3.62861E-002	0.00000E+000	3.99222E-002	3.61826E-001	4.00215E-002	4.86561E+001	11	...........	6.68304E-002	-5.32181E-003	6.09934E-001	5.37223E-001	-2.62054E-002	-3.72125E-002	7.06790E-001	-4.36321E-002	2.42502E-003	-1.93108E-004	2.21322E-002	1.94937E-002	-9.50893E-004	-1.35030E-003	2.56467E-002	-1.58324E-003
	84	84	1.10026E+000	3.63346E-002	0.00000E+000	3.99774E-002	3.62312E-001	3.97946E-002	4.78740E+001	11	...........	6.64433E-002	-5.29722E-003	6.09868E-001	5.37200E-001	-2.61842E-002	-3.71750E-002	7.06764E-001	-4.37242E-002	2.41419E-003	-1.92473E-004	2.21593E-002	1.95190E-002	-9.51392E-004	-1.35074E-003	2.56800E-002	-1.58870E-003
	85	85	1.10035E+000	3.60481E-002	0.00000E+000	3.96654E-002	3.59464E-001	4.00404E-002	4.86915E+001	11	...........	6.68724E-002	-5.20181E-003	6.09929E-001	5.37247E-001	-2.61490E-002	-3.71704E-002	7.06723E-001	-4.37522E-002	2.41062E-003	-1.87515E-004	2.19868E-002	1.93667E-002	-9.42623E-004	-1.33992E-003	2.54760E-002	-1.57718E-003
	86	86	1.10021E+000	3.59529E-002	0.00000E+000	3.95557E-002	3.58512E-001	3.97962E-002	4.69468E+001	11	...........	6.64358E-002	-5.25444E-003	6.09875E-001	5.37331E-001	-2.61964E-002	-3.71878E-002	7.06710E-001	-4.37089E-002	2.38856E-003	-1.88913E-004	2.19268E-002	1.93186E-002	-9.41837E-004	-1.33701E-003	2.54083E-002	-1.57146E-003
	87	87	1.10025E+000	3.61318E-002	0.00000E+000	3.97541E-002	3.60295E-001	3.99940E-002	4.92361E+001	11	...........	6.67596E-002	-5.28611E-003	6.09783E-001	5.37173E-001	-2.62118E-002	-3.71697E-002	7.06610E-001	-4.36606E-002	2.41214E-003	-1.90997E-004	2.20325E-002	1.94090E-002	-9.47079E-004	-1.34301E-003	2.55311E-002	-1.57753E-003
	88	88	1.10035E+000	3.58241E-002	0.00000E+000	3.94189E-002	3.57236E-001	4.00249E-002	4.89519E+001	11	...........	6.68357E-002	-5.26736E-003	6.09702E-001	5.37145E-001	-2.62294E-002	-3.71658E-002	7.06588E-001	-4.36261E-002	2.39433E-003	-1.88699E-004	2.18421E-002	1.92428E-002	-9.39647E-004	-1.33143E-003	2.53129E-002	-1.56287E-003
	89	89	1.10021E+000	3.57024E-002	0.00000E+000	3.92802E-002	3.56026E-001	3.97535E-002	4.73103E+001	11	...........	6.63740E-002	-5.10014E-003	6.09630E-001	5.37105E-001	-2.62342E-002	-3.71532E-002	7.06667E-001	-4.35103E-002	2.36971E-003	-1.82087E-004	2.17653E-002	1.91760E-002	-9.36624E-004	-1.32646E-003	2.52297E-002	-1.55342E-003
	90	90	1.10025E+000	3.58697E-002	0.00000E+000	3.94657E-002	3.57686E-001	3.98893E-002	4.88159E+001	11	...........	6.66115E-002	-5.08694E-003	6.09653E-001	5.37271E-001	-2.62558E-002	-3.71396E-002	7.06659E-001	-4.36371E-002	2.38934E-003	-1.82467E-004	2.18681E-002	1.92718E-002	-9.41790E-004	-1.33219E-003	2.53477E-002	-1.56525E-003
	91	91	1.10034E+000	3.55537E-002	0.00000E+000	3.91213E-002	3.54548E-001	3.99342E-002	4.76190E+001	11	...........	6.66889E-002	-5.24194E-003	6.09633E-001	5.37356E-001	-2.62411E-002	-3.71571E-002	7.06639E-001	-4.35296E-002	2.37103E-003	-1.86370E-004	2.16747E-002	1.91050E-002	-9.32968E-004	-1.32107E-003	2.51236E-002	-1.54764E-003
	92	92	1.10021E+000	3.54286E-002	0.00000E+000	3.89790E-002	3.53306E-001	3.95757E-002	4.72272E+001	11	...........	6.61015E-002	-5.18292E-003	6.09641E-001	5.37476E-001	-2.62489E-002	-3.71772E-002	7.06601E-001	-4.34669E-002	2.34189E-003	-1.83624E-004	2.15987E-002	1.90420E-002	-9.29962E-004	-1.31714E-003	2.50339E-002	-1.53997E-003
	93	93	1.10025E+000	3.56367E-002	0.00000E+000	3.92094E-002	3.55374E-001	3.99124E-002	4.94021E+001	11	...........	6.66561E-002	-5.17472E-003	6.09822E-001	5.37487E-001	-2.62808E-002	-3.71992E-002	7.06518E-001	-4.33694E-002	2.37540E-003	-1.84410E-004	2.17320E-002	1.91543E-002	-9.36562E-004	-1.32566E-003	2.51780E-002	-1.54554E-003
	94	94	1.10034E+000	3.53325E-002	0.00000E+000	3.88779E-002	3.52344E-001	3.98680E-002	4.76621E+001	11	...........	6.65811E-002	-5.17514E-003	6.09782E-001	5.37568E-001	-2.62847E-002	-3.71917E-002	7.06631E-001	-4.33951E-002	2.35247E-003	-1.82850E-004	2.15451E-002	1.89936E-002	-9.28704E-004	-1.31407E-003	2.49670E-002	-1.53326E-003
	95	95	1.10021E+000	3.51865E-002	0.00000E+000	3.87127E-002	3.50897E-001	3.96210E-002	4.84744E+001	11	...........	6.61381E-002	-5.06556E-003	6.09567E-001	5.37506E-001	-2.62671E-002	-3.71868E-002	7.06686E-001	-4.35210E-002	2.32717E-003	-1.78239E-004	2.14485E-002	1.89129E-002	-9.24246E-004	-1.30847E-003	2.48658E-002	-1.53135E-003
	96	96	1.10025E+000	3.53830E-002	0.00000E+000	3.89302E-002	3.52852E-001	3.99324E-002	4.70503E+001	11	...........	6.66711E-002	-5.11236E-003	6.09643E-001	5.37448E-001	-2.62531E-002	-3.71737E-002	7.06796E-001	-4.36376E-002	2.35902E-003	-1.80891E-004	2.15710E-002	1.90165E-002	-9.28912E-004	-1.31532E-003	2.50086E-002	-1.54403E-003
	97	97	1.10034E+000	3.50781E-002	0.00000E+000	3.85979E-002	3.49816E-001	3.96629E-002	4.93405E+001	11	...........	6.62242E-002	-5.01847E-003	6.09590E-001	5.37502E-001	-2.62400E-002	-3.71600E-002	7.06681E-001	-4.36894E-002	2.32302E-003	-1.76038E-004	2.13832E-002	1.88546E-002	-9.20449E-004	-1.30350E-003	2.47890E-002	-1.53254E-003
	98	98	1.10022E+000	3.49593E-002	0.00000E+000	3.84628E-002	3.48635E-001	3.96964E-002	4.90742E+001	11	...........	6.62974E-002	-5.12319E-003	6.09521E-001	5.37512E-001	-2.62285E-002	-3.71883E-002	7.06726E-001	-4.36826E-002	2.31771E-003	-1.79103E-004	2.13084E-002	1.87910E-002	-9.16929E-004	-1.30008E-003	2.47066E-002	-1.52711E-003
	99	99	1.10025E+000	3.51364E-002	0.00000E+000	3.86588E-002	3.50400E-001	3.97948E-002	4.77733E+001	11	...........	6.64519E-002	-5.29333E-003	6.09431E-001	5.37420E-001	-2.62357E-002	-3.71942E-002	7.06863E-001	-4.36103E-002	2.33488E-003	-1.85989E-004	2.14132E-002	1.88830E-002	-9.21828E-004	-1.30687E-003	2.48366E-002	-1.53231E-003
	100	100	1.10034E+000	3.48239E-002	0.00000E+000	3.83182E-002	3.47291E-001	3.94791E-002	4.80833E+001	11	...........	6.59275E-002	-5.27833E-003	6.09388E-001	5.37296E-001	-2.62347E-002	-3.71944E-002	7.06915E-001	-4.36157E-002	2.29586E-003	-1.83812E-004	2.12213E-002	1.87108E-002	-9.13596E-004	-1.29526E-003	2.46176E-002	-1.51887E-003
	101	101	1.10022E+000	3.47447E-002	0.00000E+000	3.82268E-002	3.46505E-001	3.98317E-002	4.86626E+001	11	...........	6.65110E-002	-5.32361E-003	6.09459E-001	5.37365E-001	-2.62253E-002	-3.71756E-002	7.06843E-001	-4.36271E-002	2.31090E-003	-1.84967E-004	2.11755E-002	1.86706E-002	-9.11189E-004	-1.29165E-003	2.45590E-002	-1.51581E-003
	102	102	1.10025E+000	3.49003E-002	0.00000E+000	3.83990E-002	3.48053E-001	3.97072E-002	4.93022E+001	11	...........	6.63122E-002	-5.24542E-003	6.09517E-001	5.37403E-001	-2.62142E-002	-3.71601E-002	7.06733E-001	-4.36937E-002	2.31432E-003	-1.83067E-004	2.12723E-002	1.87555E-002	-9.14882E-004	-1.29690E-003	2.46652E-002	-1.52492E-003
	103	103	1.10034E+000	3.46181E-002	0.00000E+000	3.80917E-002	3.45249E-001	3.95542E-002	4.65720E+001	11	...........	6.60508E-002	-5.24708E-003	6.09382E-001	5.37356E-001	-2.62346E-002	-3.71494E-002	7.06640E-001	-4.36600E-002	2.28656E-003	-1.81644E-004	2.10957E-002	1.86023E-002	-9.08192E-004	-1.28604E-003	2.44625E-002	-1.51143E-003
	104	104	1.10022E+000	3.44319E-002	0.00000E+000	3.78826E-002	3.43395E-001	3.97683E-002	4.74084E+001	11	...........	6.64085E-002	-5.30056E-003	6.09227E-001	5.37390E-001	-2.62381E-002	-3.71436E-002	7.06535E-001	-4.35994E-002	2.28657E-003	-1.82508E-004	2.09768E-002	1.85034E-002	-9.03426E-004	-1.27892E-003	2.43273E-002	-1.50121E-003
	105	105	1.10025E+000	3.45615E-002	0.00000E+000	3.80263E-002	3.44684E-001	3.93437E-002	4.62442E+001	11	...........	6.56705E-002	-5.31750E-003	6.09206E-001	5.37426E-001	-2.62661E-002	-3.71426E-002	7.06575E-001	-4.35115E-002	2.26968E-003	-1.83781E-004	2.10551E-002	1.85743E-002	-9.07797E-004	-1.28371E-003	2.44203E-002	-1.50383E-003
	106	106	1.10034E+000	3.43991E-002	0.00000E+000	3.78507E-002	3.43070E-001	3.97805E-002	4.86135E+001	11	...........	6.64294E-002	-5.30972E-003	6.09307E-001	5.37377E-001	-2.62707E-002	-3.71301E-002	7.06533E-001	-4.35649E-002	2.28511E-003	-1.82650E-004	2.09596E-002	1.84853E-002	-9.03688E-004	-1.27724E-003	2.43041E-002	-1.49859E-003
	107	107	1.10022E+000	3.42347E-002	0.00000E+000	3.76659E-002	3.41435E-001	3.96413E-002	4.91821E+001	11	...........	6.61912E-002	-5.32778E-003	6.09246E-001	5.37225E-001	-2.62442E-002	-3.71290E-002	7.06649E-001	-4.36482E-002	2.26604E-003	-1.82395E-004	2.08574E-002	1.83918E-002	-8.98461E-004	-1.27110E-003	2.41919E-002	-1.49428E-003
	108	108	1.10025E+000	3.43670E-002	0.00000E+000	3.78122E-002	3.42753E-001	3.96365E-002	4.91288E+001	11	...........	6.61779E-002	-5.40083E-003	6.09283E-001	5.37184E-001	-2.62129E-002	-3.71210E-002	7.06623E-001	-4.36179E-002	2.27433E-003	-1.85610E-004	2.09392E-002	1.84614E-002	-9.00859E-004	-1.27574E-003	2.42845E-002	-1.49902E-003
	109	109	1.10034E+000	3.41562E-002	0.00000E+000	3.75833E-002	3.40651E-001	3.96405E-002	4.76136E+001	11	...........	6.61779E-002	-5.33153E-003	6.09262E-001	5.37176E-001	-2.62150E-002	-3.71375E-002	7.06848E-001	-4.37208E-002	2.26039E-003	-1.82105E-004	2.08101E-002	1.83479E-002	-8.95405E-004	-1.26848E-003	2.41433E-002	-1.49334E-003
	110	110	1.10023E+000	3.39371E-002	0.00000E+000	3.73385E-002	3.38473E-001	3.91148E-002	4.59249E+001	11	...........	6.53149E-002	-5.22875E-003	6.09186E-001	5.37222E-001	-2.62164E-002	-3.71428E-002	7.06827E-001	-4.36417E-002	2.21660E-003	-1.77449E-004	2.06740E-002	1.82318E-002	-8.89708E-004	-1.26052E-003	2.39876E-002	-1.48107E-003
	111	111	1.10025E+000	3.41790E-002	0.00000E+000	3.76053E-002	3.40880E-001	3.99120E-002	4.93090E+001	11	...........	6.66515E-002	-5.22347E-003	6.09186E-001	5.37326E-001	-2.62290E-002	-3.71542E-002	7.06768E-001	-4.35754E-002	2.27809E-003	-1.78533E-004	2.08214E-002	1.83653E-002	-8.96483E-004	-1.26989E-003	2.41566E-002	-1.48937E-003
	112	112	1.10033E+000	3.39501E-002	0.00000E+000	3.73564E-002	3.38604E-001	3.95682E-002	4.87347E+001	11	...........	6.60654E-002	-5.23403E-003	6.09380E-001	5.37152E-001	-2.62054E-002	-3.71751E-002	7.06623E-001	-4.37288E-002	2.24292E-003	-1.77696E-004	2.06885E-002	1.82363E-002	-8.89675E-004	-1.26210E-003	2.39899E-002	-1.48459E-003
	113	113	1.10023E+000	3.36819E-002	0.00000E+000	3.70578E-002	3.35935E-001	3.93806E-002	4.78730E+001	11	...........	6.57603E-002	-5.18333E-003	6.09393E-001	5.37041E-001	-2.62147E-002	-3.71937E-002	7.06651E-001	-4.37444E-002	2.21493E-003	-1.74584E-004	2.05255E-002	1.80886E-002	-8.82961E-004	-1.25276E-003	2.38013E-002	-1.47340E-003
	114	114	1.10025E+000	3.38841E-002	0.00000E+000	3.72808E-002	3.37946E-001	3.96304E-002	4.84323E+001	11	...........	6.61761E-002	-5.10500E-003	6.09344E-001	5.36900E-001	-2.62133E-002	-3.71740E-002	7.06690E-001	-4.36251E-002	2.24232E-003	-1.72978E-004	2.06470E-002	1.81923E-002	-8.88214E-004	-1.25961E-003	2.39455E-002	-1.47820E-003
	115	115	1.10033E+000	3.36674E-002	0.00000E+000	3.70453E-002	3.35797E-001	3.92850E-002	4.68844E+001	11	...........	6.55840E-002	-5.18292E-003	6.09350E-001	5.36761E-001	-2.62006E-002	-3.71812E-002	7.06609E-001	-4.37019E-002	2.20804E-003	-1.74495E-004	2.05152E-002	1.80713E-002	-8.82105E-004	-1.25180E-003	2.37897E-002	-1.47133E-003
	116	116	1.10023E+000	3.35000E-002	0.00000E+000	3.68578E-002	3.34132E-001	3.95257E-002	4.84044E+001	11	...........	6.60001E-002	-5.21625E-003	6.09328E-001	5.36771E-001	-2.61890E-002	-3.72150E-002	7.06632E-001	-4.36343E-002	2.21100E-003	-1.74744E-004	2.04125E-002	1.79818E-002	-8.77332E-004	-1.24670E-003	2.36722E-002	-1.46175E-003
	117	117	1.10024E+000	3.36899E-002	0.00000E+000	3.70671E-002	3.36017E-001	3.95338E-002	4.81294E+001	11	...........	6.60172E-002	-5.30056E-003	6.09468E-001	5.36688E-001	-2.62006E-002	-3.72129E-002	7.06593E-001	-4.35957E-002	2.22411E-003	-1.78575E-004	2.05329E-002	1.80810E-002	-8.82694E-004	-1.25370E-003	2.38050E-002	-1.46873E-003
	118	118	1.10033E+000	3.34669E-002	0.00000E+000	3.68246E-002	3.33800E-001	3.92915E-002	4.81429E+001	11	...........	6.56186E-002	-5.19736E-003	6.09442E-001	5.36675E-001	-2.62121E-002	-3.72051E-002	7.06582E-001	-4.36319E-002	2.19605E-003	-1.73939E-004	2.03961E-002	1.79608E-002	-8.77236E-004	-1.24514E-003	2.36471E-002	-1.46022E-003
	119	119	1.10024E+000	3.32252E-002	0.00000E+000	3.65556E-002	3.31398E-001	3.94953E-002	4.60859E+001	11	...........	6.59403E-002	-5.33014E-003	6.09451E-001	5.36814E-001	-2.62299E-002	-3.72039E-002	7.06573E-001	-4.36436E-002	2.19088E-003	-1.77095E-004	2.02491E-002	1.78357E-002	-8.71493E-004	-1.23611E-003	2.34760E-002	-1.45007E-003
	120	120	1.10024E+000	3.34127E-002	0.00000E+000	3.67620E-002	3.33266E-001	3.92762E-002	4.75545E+001	11	...........	6.55811E-002	-5.34347E-003	6.09365E-001	5.36854E-001	-2.62439E-002	-3.71839E-002	7.06731E-001	-4.35499E-002	2.19124E-003	-1.78540E-004	2.03605E-002	1.79377E-002	-8.76878E-004	-1.24241E-003	2.36138E-002	-1.45512E-003
	121	121	1.10033E+000	3.32766E-002	0.00000E+000	3.66151E-002	3.31908E-001	3.95501E-002	4.88355E+001	11	...........	6.60453E-002	-5.26694E-003	6.09380E-001	5.36979E-001	-2.62694E-002	-3.71685E-002	7.06992E-001	-4.35871E-002	2.19776E-003	-1.75266E-004	2.02781E-002	1.78688E-002	-8.74157E-004	-1.23684E-003	2.35263E-002	-1.45043E-003
	122	122	1.10024E+000	3.30134E-002	0.00000E+000	3.63226E-002	3.29294E-001	3.91658E-002	4.78535E+001	11	...........	6.54011E-002	-5.23278E-003	6.09556E-001	5.37072E-001	-2.62626E-002	-3.71854E-002	7.06963E-001	-4.35667E-002	2.15911E-003	-1.72752E-004	2.01235E-002	1.77306E-002	-8.67018E-004	-1.22762E-003	2.33392E-002	-1.43828E-003
	123	123	1.10024E+000	3.32012E-002	0.00000E+000	3.65294E-002	3.31159E-001	3.95599E-002	4.80654E+001	11	...........	6.60536E-002	-5.29653E-003	6.09492E-001	5.36983E-001	-2.62544E-002	-3.71903E-002	7.06801E-001	-4.36985E-002	2.19306E-003	-1.75851E-004	2.02359E-002	1.78285E-002	-8.71680E-004	-1.23476E-003	2.34667E-002	-1.45084E-003
	124	124	1.10033E+000	3.29970E-002	0.00000E+000	3.63075E-002	3.29130E-001	3.92333E-002	4.80634E+001	11	...........	6.55117E-002	-5.25472E-003	6.09441E-001	5.36962E-001	-2.62474E-002	-3.72075E-002	7.06755E-001	-4.38151E-002	2.16169E-003	-1.73390E-004	2.01097E-002	1.77182E-002	-8.66085E-004	-1.22774E-003	2.33208E-002	-1.44577E-003
	125	125	1.10024E+000	3.27559E-002	0.00000E+000	3.60393E-002	3.26734E-001	3.93762E-002	4.70368E+001	11	...........	6.57504E-002	-5.15569E-003	6.09355E-001	5.36945E-001	-2.62694E-002	-3.72021E-002	7.06695E-001	-4.37086E-002	2.15371E-003	-1.68879E-004	1.99600E-002	1.75881E-002	-8.60480E-004	-1.21859E-003	2.31484E-002	-1.43172E-003
	126	126	1.10024E+000	3.29737E-002	0.00000E+000	3.62791E-002	3.28897E-001	3.93347E-002	4.70352E+001	11	...........	6.56721E-002	-5.13958E-003	6.09296E-001	5.37086E-001	-2.62712E-002	-3.71762E-002	7.06636E-001	-4.37125E-002	2.16545E-003	-1.69471E-004	2.00907E-002	1.77097E-002	-8.66260E-004	-1.22584E-003	2.33004E-002	-1.44136E-003
	127	127	1.10032E+000	3.28113E-002	0.00000E+000	3.61030E-002	3.27285E-001	3.92747E-002	4.89807E+001	11	...........	6.55783E-002	-5.12181E-003	6.09367E-001	5.37046E-001	-2.62826E-002	-3.72056E-002	7.06612E-001	-4.36236E-002	2.15171E-003	-1.68053E-004	1.99941E-002	1.76212E-002	-8.62368E-004	-1.22076E-003	2.31849E-002	-1.43135E-003
	128	128	1.10024E+000	3.25766E-002	0.00000E+000	3.58422E-002	3.24951E-001	3.92845E-002	4.89267E+001	11	...........	6.55842E-002	-5.16375E-003	6.09382E-001	5.37143E-001	-2.62949E-002	-3.72074E-002	7.06529E-001	-4.36796E-002	2.13651E-003	-1.68218E-004	1.98516E-002	1.74983E-002	-8.56598E-004	-1.21209E-003	2.30163E-002	-1.42293E-003
	129	129	1.10024E+000	3.26929E-002	0.00000E+000	3.59700E-002	3.26105E-001	3.92501E-002	4.67449E+001	11	...........	6.55211E-002	-5.15861E-003	6.09339E-001	5.37224E-001	-2.62800E-002	-3.72018E-002	7.06552E-001	-4.36361E-002	2.14207E-003	-1.68650E-004	1.99210E-002	1.75634E-002	-8.59168E-004	-1.21623E-003	2.30992E-002	-1.42659E-003
	130	130	1.10032E+000	3.25810E-002	0.00000E+000	3.58496E-002	3.24993E-001	3.91004E-002	4.66162E+001	11	...........	6.52768E-002	-5.15722E-003	6.09090E-001	5.37311E-001	-2.62490E-002	-3.71975E-002	7.06636E-001	-4.37224E-002	2.12678E-003	-1.68027E-004	1.98447E-002	1.75061E-002	-8.55219E-004	-1.21193E-003	2.30229E-002	-1.42452E-003
	131	131	1.10025E+000	3.23771E-002	0.00000E+000	3.56229E-002	3.22967E-001	3.93809E-002	4.91496E+001	11	...........	6.57586E-002	-5.11500E-003	6.08980E-001	5.37210E-001	-2.62836E-002	-3.72057E-002	7.06676E-001	-4.38478E-002	2.12908E-003	-1.65609E-004	1.97170E-002	1.73933E-002	-8.50988E-004	-1.20461E-003	2.28801E-002	-1.41967E-003
	132	132	1.10024E+000	3.25317E-002	0.00000E+000	3.57927E-002	3.24505E-001	3.92734E-002	4.76683E+001	11	...........	6.55801E-002	-5.03319E-003	6.08999E-001	5.37286E-001	-2.62901E-002	-3.71750E-002	7.06537E-001	-4.37187E-002	2.13343E-003	-1.63738E-004	1.98118E-002	1.74788E-002	-8.55262E-004	-1.20936E-003	2.29848E-002	-1.42224E-003
	133	133	1.10032E+000	3.23772E-002	0.00000E+000	3.56253E-002	3.22968E-001	3.89940E-002	4.88520E+001	11	...........	6.51371E-002	-4.96417E-003	6.08991E-001	5.37302E-001	-2.62787E-002	-3.71572E-002	7.06592E-001	-4.36411E-002	2.10896E-003	-1.60726E-004	1.97174E-002	1.73964E-002	-8.50833E-004	-1.20305E-003	2.28775E-002	-1.41298E-003
	134	134	1.10025E+000	3.21290E-002	0.00000E+000	3.53499E-002	3.20499E-001	3.92907E-002	4.80460E+001	11	...........	6.56192E-002	-5.19375E-003	6.09074E-001	5.37300E-001	-2.62769E-002	-3.71589E-002	7.06604E-001	-4.36892E-002	2.10828E-003	-1.66870E-004	1.95689E-002	1.72629E-002	-8.44252E-004	-1.19388E-003	2.27025E-002	-1.40369E-003
	135	135	1.10024E+000	3.22795E-002	0.00000E+000	3.55153E-002	3.21995E-001	3.90695E-002	4.89028E+001	11	...........	6.52707E-002	-5.21819E-003	6.09218E-001	5.37185E-001	-2.62281E-002	-3.71662E-002	7.06562E-001	-4.36110E-002	2.10691E-003	-1.68441E-004	1.96653E-002	1.73401E-002	-8.46629E-004	-1.19971E-003	2.28075E-002	-1.40774E-003
	136	136	1.10032E+000	3.21460E-002	0.00000E+000	3.53708E-002	3.20667E-001	3.90563E-002	4.83311E+001	11	...........	6.52214E-002	-5.17000E-003	6.09066E-001	5.37189E-001	-2.62557E-002	-3.71554E-002	7.06593E-001	-4.36726E-002	2.09661E-003	-1.66195E-004	1.95791E-002	1.72685E-002	-8.44016E-004	-1.19440E-003	2.27141E-002	-1.40390E-003
	137	137	1.10025E+000	3.19092E-002	0.00000E+000	3.51082E-002	3.18313E-001	3.92517E-002	4.68729E+001	11	...........	6.55271E-002	-5.24347E-003	6.09139E-001	5.37188E-001	-2.62908E-002	-3.71504E-002	7.06465E-001	-4.36446E-002	2.09092E-003	-1.67315E-004	1.94371E-002	1.71413E-002	-8.38920E-004	-1.18544E-003	2.25428E-002	-1.39267E-003
	138	138	1.10024E+000	3.20672E-002	0.00000E+000	3.52816E-002	3.19886E-001	3.89963E-002	4.82875E+001	11	...........	6.50990E-002	-5.21667E-003	6.08989E-001	5.37178E-001	-2.62774E-002	-3.71686E-002	7.06510E-001	-4.36510E-002	2.08754E-003	-1.67284E-004	1.95285E-002	1.72258E-002	-8.42641E-004	-1.19189E-003	2.26558E-002	-1.39976E-003
	139	139	1.10032E+000	3.19771E-002	0.00000E+000	3.51849E-002	3.18989E-001	3.91316E-002	4.80896E+001	11	...........	6.53418E-002	-5.30444E-003	6.08998E-001	5.37296E-001	-2.62415E-002	-3.71850E-002	7.06520E-001	-4.36944E-002	2.08944E-003	-1.69621E-004	1.94740E-002	1.71812E-002	-8.39128E-004	-1.18907E-003	2.25925E-002	-1.39722E-003
	140	140	1.10025E+000	3.16624E-002	0.00000E+000	3.48367E-002	3.15858E-001	3.90463E-002	4.91321E+001	11	...........	6.51983E-002	-5.27708E-003	6.08967E-001	5.37401E-001	-2.61779E-002	-3.71842E-002	7.06552E-001	-4.35683E-002	2.06434E-003	-1.67085E-004	1.92814E-002	1.70154E-002	-8.28856E-004	-1.17734E-003	2.23711E-002	-1.37948E-003
	141	141	1.10024E+000	3.18252E-002	0.00000E+000	3.50154E-002	3.17470E-001	3.91723E-002	4.66102E+001	11	...........	6.54062E-002	-5.26014E-003	6.08883E-001	5.37353E-001	-2.62144E-002	-3.71950E-002	7.06484E-001	-4.34637E-002	2.08157E-003	-1.67405E-004	1.93779E-002	1.71014E-002	-8.34281E-004	-1.18374E-003	2.24840E-002	-1.38324E-003
	142	142	1.10031E+000	3.17266E-002	0.00000E+000	3.49091E-002	3.16493E-001	3.87588E-002	4.72458E+001	11	...........	6.47312E-002	-5.22708E-003	6.08636E-001	5.37281E-001	-2.62492E-002	-3.71860E-002	7.06580E-001	-4.36194E-002	2.05370E-003	-1.65837E-004	1.93099E-002	1.70461E-002	-8.32796E-004	-1.17978E-003	2.24174E-002	-1.38389E-003
	143	143	1.10026E+000	3.14570E-002	0.00000E+000	3.46108E-002	3.13812E-001	3.91622E-002	4.72307E+001	11	...........	6.54071E-002	-5.30083E-003	6.08696E-001	5.37278E-001	-2.62760E-002	-3.71826E-002	7.06580E-001	-4.37699E-002	2.05751E-003	-1.66748E-004	1.91477E-002	1.69011E-002	-8.26563E-004	-1.16965E-003	2.22269E-002	-1.37687E-003
	144	144	1.10024E+000	3.16734E-002	0.00000E+000	3.48482E-002	3.15965E-001	3.91072E-002	4.92065E+001	11	...........	6.53258E-002	-5.19278E-003	6.08600E-001	5.37411E-001	-2.63042E-002	-3.71626E-002	7.06595E-001	-4.36321E-002	2.06909E-003	-1.64473E-004	1.92764E-002	1.70216E-002	-8.33141E-004	-1.17707E-003	2.23802E-002	-1.38197E-003
	145	145	1.10031E+000	3.15220E-002	0.00000E+000	3.46841E-002	3.14462E-001	3.90488E-002	4.84481E+001	11	...........	6.51811E-002	-5.27764E-003	6.08587E-001	5.37554E-001	-2.62778E-002	-3.71847E-002	7.06638E-001	-4.36015E-002	2.05464E-003	-1.66362E-004	1.91839E-002	1.69448E-002	-8.28329E-004	-1.17214E-003	2.22747E-002	-1.37441E-003
	146	146	1.10026E+000	3.12139E-002	0.00000E+000	3.43434E-002	3.11405E-001	3.87948E-002	4.86328E+001	11	...........	6.47919E-002	-5.17431E-003	6.08581E-001	5.37434E-001	-2.62757E-002	-3.71932E-002	7.06604E-001	-4.37499E-002	2.02241E-003	-1.61510E-004	1.89962E-002	1.67754E-002	-8.20168E-004	-1.16095E-003	2.20559E-002	-1.36561E-003
	147	147	1.10024E+000	3.14255E-002	0.00000E+000	3.45755E-002	3.13504E-001	3.91674E-002	4.75280E+001	11	...........	6.54021E-002	-5.26764E-003	6.08602E-001	5.37278E-001	-2.63075E-002	-3.72035E-002	7.06537E-001	-4.37074E-002	2.05529E-003	-1.65538E-004	1.91256E-002	1.68842E-002	-8.26726E-004	-1.16914E-003	2.22033E-002	-1.37352E-003
	148	148	1.10031E+000	3.12844E-002	0.00000E+000	3.44224E-002	3.12098E-001	3.86930E-002	4.67755E+001	11	...........	6.46129E-002	-5.27222E-003	6.08538E-001	5.37158E-001	-2.62867E-002	-3.71929E-002	7.06502E-001	-4.36933E-002	2.02137E-003	-1.64938E-004	1.90377E-002	1.68046E-002	-8.22361E-004	-1.16356E-003	2.21025E-002	-1.36692E-003
	149	149	1.10026E+000	3.10482E-002	0.00000E+000	3.41612E-002	3.09753E-001	3.90593E-002	4.85299E+001	11	...........	6.52312E-002	-5.20667E-003	6.08601E-001	5.37311E-001	-2.62925E-002	-3.71939E-002	7.06560E-001	-4.35356E-002	2.02531E-003	-1.61658E-004	1.88960E-002	1.66826E-002	-8.16335E-004	-1.15480E-003	2.19374E-002	-1.35170E-003
	150	150	1.10024E+000	3.12037E-002	0.00000E+000	3.43314E-002	3.11297E-001	3.89516E-002	4.91797E+001	11	...........	6.50550E-002	-5.20417E-003	6.08522E-001	5.37310E-001	-2.62939E-002	-3.72054E-002	7.06813E-001	-4.35217E-002	2.02996E-003	-1.62389E-004	1.89881E-002	1.67661E-002	-8.20466E-004	-1.16095E-003	2.20552E-002	-1.35804E-003
	151	151	1.10031E+000	3.11071E-002	0.00000E+000	3.42273E-002	3.10340E-001	3.88195E-002	4.80741E+001	11	...........	6.48235E-002	-5.12181E-003	6.08442E-001	5.37497E-001	-2.62550E-002	-3.72286E-002	7.06660E-001	-4.37285E-002	2.01647E-003	-1.59324E-004	1.89268E-002	1.67200E-002	-8.16716E-004	-1.15807E-003	2.19821E-002	-1.36026E-003
	152	152	1.10027E+000	3.08184E-002	0.00000E+000	3.39086E-002	3.07471E-001	3.90593E-002	4.59218E+001	11	...........	6.52100E-002	-5.17333E-003	6.08402E-001	5.37431E-001	-2.62828E-002	-3.72276E-002	7.06862E-001	-4.37312E-002	2.00967E-003	-1.59434E-004	1.87500E-002	1.65628E-002	-8.09994E-004	-1.14730E-003	2.17844E-002	-1.34773E-003
	153	153	1.10023E+000	3.09373E-002	0.00000E+000	3.40383E-002	3.08651E-001	3.86126E-002	4.83269E+001	11	...........	6.44753E-002	-5.16694E-003	6.08324E-001	5.37387E-001	-2.62804E-002	-3.72329E-002	7.06743E-001	-4.38160E-002	1.99469E-003	-1.59851E-004	1.88199E-002	1.66253E-002	-8.13046E-004	-1.15189E-003	2.18647E-002	-1.35555E-003
	154	154	1.10030E+000	3.09389E-002	0.00000E+000	3.40422E-002	3.08664E-001	3.89737E-002	4.94002E+001	11	...........	6.50779E-002	-5.14944E-003	6.08454E-001	5.37361E-001	-2.62471E-002	-3.72639E-002	7.06632E-001	-4.38181E-002	2.01344E-003	-1.59318E-004	1.88249E-002	1.66254E-002	-8.12056E-004	-1.15290E-003	2.18624E-002	-1.35568E-003
	155	155	1.10027E+000	3.05896E-002	0.00000E+000	3.36569E-002	3.05195E-001	3.87482E-002	4.78041E+001	11	...........	6.46928E-002	-5.10375E-003	6.08526E-001	5.37276E-001	-2.62321E-002	-3.72789E-002	7.06598E-001	-4.37881E-002	1.97893E-003	-1.56122E-004	1.86146E-002	1.64351E-002	-8.02430E-004	-1.14035E-003	2.16146E-002	-1.33946E-003
	156	156	1.10023E+000	3.07705E-002	0.00000E+000	3.38547E-002	3.06992E-001	3.89222E-002	4.92111E+001	11	...........	6.49922E-002	-5.02375E-003	6.08652E-001	5.37266E-001	-2.62568E-002	-3.72872E-002	7.06565E-001	-4.36740E-002	1.99984E-003	-1.54583E-004	1.87285E-002	1.65319E-002	-8.07935E-004	-1.14735E-003	2.17413E-002	-1.34387E-003
	157	157	1.10030E+000	3.07149E-002	0.00000E+000	3.37957E-002	3.06439E-001	3.89237E-002	4.75023E+001	11	...........	6.50047E-002	-5.05944E-003	6.08667E-001	5.37211E-001	-2.62440E-002	-3.72611E-002	7.06521E-001	-4.36679E-002	1.99661E-003	-1.55400E-004	1.86951E-002	1.65004E-002	-8.06082E-004	-1.14447E-003	2.17007E-002	-1.34125E-003
	158	158	1.10027E+000	3.03468E-002	0.00000E+000	3.33898E-002	3.02780E-001	3.83383E-002	4.71230E+001	11	...........	6.40221E-002	-5.05861E-003	6.08587E-001	5.37018E-001	-2.62606E-002	-3.72557E-002	7.06632E-001	-4.36078E-002	1.94286E-003	-1.53513E-004	1.84687E-002	1.62968E-002	-7.96923E-004	-1.13059E-003	2.14440E-002	-1.32336E-003
	159	159	1.10023E+000	3.05774E-002	0.00000E+000	3.36422E-002	3.05069E-001	3.90172E-002	4.97518E+001	11	...........	6.51615E-002	-5.06167E-003	6.08571E-001	5.37141E-001	-2.62146E-002	-3.72551E-002	7.06735E-001	-4.35237E-002	1.99247E-003	-1.54773E-004	1.86085E-002	1.64244E-002	-8.01574E-004	-1.13916E-003	2.16101E-002	-1.33084E-003
	160	160	1.10030E+000	3.05337E-002	0.00000E+000	3.35961E-002	3.04637E-001	3.88751E-002	4.86917E+001	11	...........	6.49233E-002	-5.20889E-003	6.08727E-001	5.36988E-001	-2.62150E-002	-3.72669E-002	7.06625E-001	-4.35187E-002	1.98235E-003	-1.59046E-004	1.85866E-002	1.63962E-002	-8.00440E-004	-1.13790E-003	2.15758E-002	-1.32879E-003
	161	161	1.10028E+000	3.01305E-002	0.00000E+000	3.31519E-002	3.00629E-001	3.84932E-002	4.69019E+001	11	...........	6.42796E-002	-5.19625E-003	6.08749E-001	5.37000E-001	-2.62419E-002	-3.72828E-002	7.06651E-001	-4.34499E-002	1.93677E-003	-1.56565E-004	1.83419E-002	1.61801E-002	-7.90682E-004	-1.12335E-003	2.12917E-002	-1.30917E-003
	162	162	1.10023E+000	3.03470E-002	0.00000E+000	3.33887E-002	3.02782E-001	3.88020E-002	4.86499E+001	11	...........	6.47951E-002	-5.20875E-003	6.08875E-001	5.36975E-001	-2.62521E-002	-3.72790E-002	7.06659E-001	-4.35271E-002	1.96634E-003	-1.58070E-004	1.84775E-002	1.62956E-002	-7.96671E-004	-1.13131E-003	2.14450E-002	-1.32092E-003
	163	163	1.10030E+000	3.03199E-002	0.00000E+000	3.33609E-002	3.02509E-001	3.86331E-002	4.79142E+001	11	...........	6.45129E-002	-5.18208E-003	6.08803E-001	5.36945E-001	-2.61929E-002	-3.72847E-002	7.06676E-001	-4.35644E-002	1.95603E-003	-1.57120E-004	1.84589E-002	1.62802E-002	-7.94168E-004	-1.13047E-003	2.14264E-002	-1.32087E-003
	164	164	1.10028E+000	2.99980E-002	0.00000E+000	3.30063E-002	2.99309E-001	3.88098E-002	4.80617E+001	11	...........	6.48142E-002	-5.13875E-003	6.08664E-001	5.37020E-001	-2.62428E-002	-3.72946E-002	7.06639E-001	-4.35226E-002	1.94429E-003	-1.54152E-004	1.82587E-002	1.61095E-002	-7.87230E-004	-1.11876E-003	2.11977E-002	-1.30559E-003
	165	165	1.10023E+000	3.00989E-002	0.00000E+000	3.31157E-002	3.00313E-001	3.85557E-002	4.76403E+001	11	...........	6.44078E-002	-5.06861E-003	6.08460E-001	5.36945E-001	-2.62633E-002	-3.73056E-002	7.06646E-001	-4.37583E-002	1.93860E-003	-1.52560E-004	1.83140E-002	1.61615E-002	-7.90497E-004	-1.12286E-003	2.12693E-002	-1.31708E-003
	166	166	1.10029E+000	3.01207E-002	0.00000E+000	3.31416E-002	3.00531E-001	3.87995E-002	4.93951E+001	11	...........	6.48060E-002	-4.99000E-003	6.08477E-001	5.36895E-001	-2.62717E-002	-3.72833E-002	7.06725E-001	-4.37344E-002	1.95200E-003	-1.50302E-004	1.83277E-002	1.61716E-002	-7.91320E-004	-1.12300E-003	2.12870E-002	-1.31731E-003
	167	167	1.10029E+000	2.97617E-002	0.00000E+000	3.27464E-002	2.96958E-001	3.86044E-002	4.70626E+001	11	...........	6.44761E-002	-5.06361E-003	6.08402E-001	5.36915E-001	-2.62492E-002	-3.72621E-002	7.06776E-001	-4.36768E-002	1.91892E-003	-1.50702E-004	1.81071E-002	1.59795E-002	-7.81219E-004	-1.10898E-003	2.10348E-002	-1.29989E-003
	168	168	1.10023E+000	2.99264E-002	0.00000E+000	3.29259E-002	2.98595E-001	3.86431E-002	4.81898E+001	11	...........	6.45381E-002	-5.15458E-003	6.08398E-001	5.36930E-001	-2.62112E-002	-3.72485E-002	7.06741E-001	-4.36178E-002	1.93139E-003	-1.54258E-004	1.82071E-002	1.60684E-002	-7.84407E-004	-1.11471E-003	2.11502E-002	-1.30532E-003
	169	169	1.10029E+000	2.99309E-002	0.00000E+000	3.29327E-002	2.98646E-001	3.86835E-002	4.79993E+001	11	...........	6.45964E-002	-5.08083E-003	6.08579E-001	5.36895E-001	-2.61578E-002	-3.72900E-002	7.06763E-001	-4.36003E-002	1.93343E-003	-1.52074E-004	1.82153E-002	1.60698E-002	-7.82927E-004	-1.11613E-003	2.11541E-002	-1.30500E-003
	170	170	1.10029E+000	2.95767E-002	0.00000E+000	3.25429E-002	2.95123E-001	3.84215E-002	4.89633E+001	11	...........	6.41954E-002	-4.98458E-003	6.08612E-001	5.36786E-001	-2.61801E-002	-3.73062E-002	7.06687E-001	-4.36400E-002	1.89869E-003	-1.47428E-004	1.80007E-002	1.58764E-002	-7.74323E-004	-1.10340E-003	2.09015E-002	-1.29073E-003
	171	171	1.10023E+000	2.97591E-002	0.00000E+000	3.27419E-002	2.96941E-001	3.87235E-002	4.74459E+001	11	...........	6.46703E-002	-4.97625E-003	6.08760E-001	5.36749E-001	-2.62194E-002	-3.73062E-002	7.06732E-001	-4.36310E-002	1.92453E-003	-1.48089E-004	1.81162E-002	1.59732E-002	-7.80268E-004	-1.11020E-003	2.10317E-002	-1.29842E-003
	172	172	1.10029E+000	2.97008E-002	0.00000E+000	3.26795E-002	2.96364E-001	3.84612E-002	4.89794E+001	11	...........	6.42183E-002	-5.03500E-003	6.08764E-001	5.36557E-001	-2.62010E-002	-3.72779E-002	7.06783E-001	-4.36628E-002	1.90734E-003	-1.49544E-004	1.80808E-002	1.59362E-002	-7.78191E-004	-1.10719E-003	2.09920E-002	-1.29682E-003
	173	173	1.10029E+000	2.94091E-002	0.00000E+000	3.23586E-002	2.93462E-001	3.86836E-002	4.91451E+001	11	...........	6.46004E-002	-5.15403E-003	6.08785E-001	5.36512E-001	-2.61924E-002	-3.72617E-002	7.06859E-001	-4.35310E-002	1.89984E-003	-1.51575E-004	1.79039E-002	1.57783E-002	-7.70295E-004	-1.09583E-003	2.07881E-002	-1.28021E-003
	174	174	1.10023E+000	2.95366E-002	0.00000E+000	3.24969E-002	2.94725E-001	3.84532E-002	4.83173E+001	11	...........	6.42053E-002	-5.13153E-003	6.08795E-001	5.36596E-001	-2.61551E-002	-3.72344E-002	7.06828E-001	-4.34431E-002	1.89640E-003	-1.51568E-004	1.79817E-002	1.58492E-002	-7.72533E-004	-1.09978E-003	2.08773E-002	-1.28316E-003
	175	175	1.10029E+000	2.95039E-002	0.00000E+000	3.24629E-002	2.94401E-001	3.87256E-002	4.59540E+001	11	...........	6.46718E-002	-5.17972E-003	6.08752E-001	5.36596E-001	-2.61637E-002	-3.72790E-002	7.06814E-001	-4.35032E-002	1.90807E-003	-1.52822E-004	1.79606E-002	1.58317E-002	-7.71933E-004	-1.09988E-003	2.08538E-002	-1.28351E-003
	176	176	1.10029E+000	2.91604E-002	0.00000E+000	3.20851E-002	2.90988E-001	3.82919E-002	4.63988E+001	11	...........	6.39322E-002	-5.15694E-003	6.08717E-001	5.36563E-001	-2.62226E-002	-3.72696E-002	7.06707E-001	-4.34772E-002	1.86429E-003	-1.50379E-004	1.77504E-002	1.56464E-002	-7.64663E-004	-1.08680E-003	2.06079E-002	-1.26781E-003
	177	177	1.10022E+000	2.93600E-002	0.00000E+000	3.23026E-002	2.92972E-001	3.86648E-002	4.93400E+001	11	...........	6.45936E-002	-5.16931E-003	6.08861E-001	5.36578E-001	-2.62432E-002	-3.72400E-002	7.06840E-001	-4.35731E-002	1.89647E-003	-1.51771E-004	1.78761E-002	1.57539E-002	-7.70500E-004	-1.09337E-003	2.07528E-002	-1.27930E-003
	178	178	1.10028E+000	2.93109E-002	0.00000E+000	3.22503E-002	2.92485E-001	3.85308E-002	4.92992E+001	11	...........	6.43607E-002	-5.14306E-003	6.08888E-001	5.36600E-001	-2.62111E-002	-3.72187E-002	7.06903E-001	-4.36290E-002	1.88647E-003	-1.50747E-004	1.78471E-002	1.57282E-002	-7.68271E-004	-1.09091E-003	2.07200E-002	-1.27881E-003
	179	179	1.10030E+000	2.89686E-002	0.00000E+000	3.18741E-002	2.89085E-001	3.85948E-002	4.68403E+001	11	...........	6.44653E-002	-5.19222E-003	6.08811E-001	5.36463E-001	-2.62122E-002	-3.71892E-002	7.06795E-001	-4.36961E-002	1.86747E-003	-1.50411E-004	1.76364E-002	1.55406E-002	-7.59332E-004	-1.07732E-003	2.04749E-002	-1.26582E-003
	180	180	1.10023E+000	2.90963E-002	0.00000E+000	3.20126E-002	2.90353E-001	3.83696E-002	4.87556E+001	11	...........	6.40846E-002	-5.26444E-003	6.08724E-001	5.36695E-001	-2.61861E-002	-3.71839E-002	7.06739E-001	-4.35764E-002	1.86463E-003	-1.53176E-004	1.77116E-002	1.56159E-002	-7.61920E-004	-1.08191E-003	2.05635E-002	-1.26791E-003
	181	181	1.10028E+000	2.91397E-002	0.00000E+000	3.20618E-002	2.90781E-001	3.85957E-002	4.81713E+001	11	...........	6.44615E-002	-5.19764E-003	6.08799E-001	5.36911E-001	-2.61476E-002	-3.72157E-002	7.06734E-001	-4.34964E-002	1.87839E-003	-1.51457E-004	1.77402E-002	1.56454E-002	-7.61933E-004	-1.08445E-003	2.05940E-002	-1.26747E-003
	182	182	1.10030E+000	2.87952E-002	0.00000E+000	3.16834E-002	2.87356E-001	3.84132E-002	4.90734E+001	11	...........	6.41474E-002	-5.07667E-003	6.08652E-001	5.36951E-001	-2.61703E-002	-3.72082E-002	7.06747E-001	-4.35564E-002	1.84713E-003	-1.46183E-004	1.75262E-002	1.54616E-002	-7.53577E-004	-1.07142E-003	2.03509E-002	-1.25421E-003
	183	183	1.10023E+000	2.88609E-002	0.00000E+000	3.17535E-002	2.88011E-001	3.84840E-002	4.64346E+001	11	...........	6.42858E-002	-5.18458E-003	6.08815E-001	5.36946E-001	-2.62246E-002	-3.72025E-002	7.06684E-001	-4.35276E-002	1.85534E-003	-1.49632E-004	1.75709E-002	1.54967E-002	-7.56864E-004	-1.07370E-003	2.03955E-002	-1.25625E-003
	184	184	1.10028E+000	2.89258E-002	0.00000E+000	3.18264E-002	2.88657E-001	3.83532E-002	4.69720E+001	11	...........	6.40150E-002	-5.19875E-003	6.08679E-001	5.36933E-001	-2.62303E-002	-3.71910E-002	7.06667E-001	-4.35522E-002	1.85168E-003	-1.50378E-004	1.76065E-002	1.55312E-002	-7.58732E-004	-1.07578E-003	2.04409E-002	-1.25978E-003
	185	185	1.10031E+000	2.86361E-002	0.00000E+000	3.15084E-002	2.85777E-001	3.84791E-002	4.94966E+001	11	...........	6.42626E-002	-5.24583E-003	6.08751E-001	5.36963E-001	-2.62497E-002	-3.71767E-002	7.06641E-001	-4.35089E-002	1.84023E-003	-1.50220E-004	1.74323E-002	1.53765E-002	-7.51689E-004	-1.06459E-003	2.02354E-002	-1.24592E-003
	186	186	1.10023E+000	2.87329E-002	0.00000E+000	3.16127E-002	2.86742E-001	3.84853E-002	4.87366E+001	11	...........	6.42914E-002	-5.24347E-003	6.08840E-001	5.37018E-001	-2.62162E-002	-3.71704E-002	7.06742E-001	-4.37785E-002	1.84728E-003	-1.50660E-004	1.74937E-002	1.54301E-002	-7.53268E-004	-1.06801E-003	2.03067E-002	-1.25788E-003
	187	187	1.10028E+000	2.87104E-002	0.00000E+000	3.15894E-002	2.86517E-001	3.84180E-002	4.76072E+001	11	...........	6.41642E-002	-5.02833E-003	6.08785E-001	5.36961E-001	-2.62306E-002	-3.71810E-002	7.06717E-001	-4.37815E-002	1.84218E-003	-1.44365E-004	1.74785E-002	1.54164E-002	-7.53090E-004	-1.06748E-003	2.02901E-002	-1.25699E-003
	188	187.043	1.10127E+000	2.66407E-002	0.00000E+000	2.93386E-002	2.65946E-001	3.78058E-002	4.80433E+001	11	...........	6.31474E-002	-4.97756E-003	6.08724E-001	5.37010E-001	-2.66891E-002	-3.70224E-002	7.06885E-001	-4.37853E-002	1.68229E-003	-1.32606E-004	1.62168E-002	1.43063E-002	-7.11016E-004	-9.86304E-004	1.88319E-002	-1.16647E-003
STARTTIMEOFFSET	QUANT	703506.1	Start Time Offset (s)
