EXPLAIN
TAG	PWR800_CHARGE
TITLE	LABEL	PWR Charge	Test Identifier
DATE	LABEL	10/11/2022	Date
TIME	LABEL	1:52:06	Time
NOTES	NOTES	1	Notes...
	
PSTAT	PSTAT	REF3000-21114	Potentiostat
CAPACITY	QUANT	5.30000E-002	Capacity (A-hr)
CELLTYPE	SELECTOR	1	Cell Type
WORKINGCONNECTION	SELECTOR	0	Working Connection
MAXCHARGETIME	VARIABLEANDUNITS	7.20000E+003	s	2.00000E+000	hour(s)	Max Charge Time
CHARGEMODE	MULTIPARAM	0	1.00000E-001	Charge Mode	Constant Current	Amp(s)
CHARGECURRENT	QUANT	0.1	Charge Current (A)
VOLTAGEFINISH	TWOPARAM	T	2.50000E-002	7.20000E+003	Voltage Finish	I (A) <	Max Time(s)
SAMPLETIME	QUANT	1.00000E+000	Sample Period (s)
CHARGESTOPAT1	MULTIPARAM	2	1.10000E+000	Stop At 1	|Voltage| > Limit	V
CHARGESTOPAT2	MULTIPARAM	0	0.00000E+000	Stop At 2	None	N/A
AESELECTOR	AESELECTOR	0x1	T	Set Limits	AE Channels
AESBHCSELECTOR	TOGGLE	F	Save Both Half Cells
IRCOMP	TOGGLE	F	IR Measure
EOC	QUANT	0.3453253	Open Circuit (V)
SEQUENCER	TOGGLE	TRUE	Run as Sequence
PSTATMODEL	IQUANT	5	Pstat Model
PSTATSECTION	LABEL	REF3000-21114	Pstat Section
PSTATSERIALNO	LABEL	21114	Pstat Serial Number
CTRLMODE	IQUANT	0	Control Mode
ELECTROMETER	IQUANT	0	RE=0 or CS=1
IESTAB	IQUANT	0	I/E Stability
CASPEED	IQUANT	4	Control Amp Speed
CONVENTION	IQUANT	1	Current Convention
ICHRANGE	IQUANT	2	Ich Range
ICHRANGEMODE	TOGGLE	T	Ich Auto Range
ICHOFFSETENABLE	TOGGLE	F	Ich Offset Enable
ICHOFFSET	QUANT	0	Ich Offset (V)
ICHFILTER	IQUANT	1	Ich Filter
VCHRANGE	IQUANT	3	Vch Range
VCHRANGEMODE	TOGGLE	T	Vch Auto Range
VCHOFFSETENABLE	TOGGLE	F	Vch Offset Enable
VCHOFFSET	QUANT	0	Vch Offset (V)
VCHFILTER	IQUANT	1	Vch Filter
ACHRANGE	IQUANT	2	Ach Range
ACHOFFSETENABLE	TOGGLE	F	Ach Offset Enable
ACHOFFSET	QUANT	0	Ach Offset (V)
ACHFILTER	IQUANT	1	Ach Filter
IERANGELOWERLIMIT	IQUANT	9	I/E Range Lower Limit
IERANGEMODE	TOGGLE	F	I/E AutoRange
IERANGE	IQUANT	9	I/E Range
POSFEEDENABLE	TOGGLE	F	Positive Feedback IR Comp
POSFEEDRESISTANCE	QUANT	0	Positive Feedback Resistance (ohm)
ACHSELECT	IQUANT	1	Ach Select
SENSECABLEID	IQUANT	13	Sense Cable ID
PWRCABLEID	IQUANT	13	Power Cable ID
DCCALDATE	LABEL		DC Calibration Date
ACCALDATE	LABEL		AC Calibration Date
THERMOSELECT	IQUANT	1	Thermo Select
FRAMEWORKVERSION	LABEL	7.8.6	Framework Version
INSTRUMENTVERSION	LABEL	4.50	Instrument Version
COMPLIANCEVOLTAGE	IQUANT	0	Compliance Voltage
CURVE	TABLE	293
	Pt	T	Vf	Im	Vu	Pwr	Sig	Ach	Temp	IERange	Over	Vf1	Vf2	Vf3	Vf4	Vf5	Vf6	Vf7	Vf8	Pwr1	Pwr2	Pwr3	Pwr4	Pwr5	Pwr6	Pwr7	Pwr8
	#	s	V	A	V	W	V	V	deg C	#	bits	V	V	V	V	V	V	V	V	W	W	W	W	W	W	W	W
	0	1	5.75178E-001	9.98511E-002	0.00000E+000	5.74322E-002	9.94000E-001	3.81125E-002	3.65377E+001	11	...........	6.34174E-002	-4.36931E-003	5.69536E-001	6.41337E-001	-3.00175E-002	-3.96401E-002	6.61175E-001	-4.33743E-002	6.33230E-003	-4.36280E-004	5.68688E-002	6.40382E-002	-2.99728E-003	-3.95811E-003	6.60191E-002	-4.33097E-003
	1	2	6.96954E-001	9.98520E-002	0.00000E+000	6.95922E-002	9.94000E-001	3.79048E-002	3.75927E+001	11	...........	6.30878E-002	-4.46319E-003	5.69540E-001	6.41501E-001	-3.00154E-002	-3.96303E-002	6.61196E-001	-4.33617E-002	6.29944E-003	-4.45659E-004	5.68696E-002	6.40551E-002	-2.99710E-003	-3.95716E-003	6.60217E-002	-4.32975E-003
	2	3	8.06415E-001	9.98523E-002	0.00000E+000	8.05224E-002	9.94000E-001	3.81512E-002	3.83452E+001	11	...........	6.34693E-002	-4.47542E-003	5.69673E-001	6.41607E-001	-3.00587E-002	-3.96239E-002	6.61122E-001	-4.35647E-002	6.33756E-003	-4.46881E-004	5.68832E-002	6.40660E-002	-3.00144E-003	-3.95654E-003	6.60146E-002	-4.35004E-003
	3	4	9.33115E-001	9.98526E-002	0.00000E+000	9.31739E-002	9.94000E-001	3.84963E-002	4.12922E+001	11	...........	6.39894E-002	-4.45792E-003	5.69694E-001	6.41577E-001	-3.00339E-002	-3.96386E-002	6.61002E-001	-4.34857E-002	6.38951E-003	-4.45135E-004	5.68855E-002	6.40631E-002	-2.99896E-003	-3.95802E-003	6.60028E-002	-4.34216E-003
	4	4.37833	1.06398E+000	9.98532E-002	0.00000E+000	1.06242E-001	9.94000E-001	3.87557E-002	4.15824E+001	11	...........	6.44240E-002	-4.46733E-003	5.69820E-001	6.41514E-001	-2.99394E-002	-3.96670E-002	6.60985E-001	-4.33866E-002	6.43295E-003	-4.46077E-004	5.68983E-002	6.40572E-002	-2.98955E-003	-3.96088E-003	6.60015E-002	-4.33229E-003
	5	5	1.10148E+000	8.41494E-002	0.00000E+000	9.26886E-002	8.37861E-001	3.83966E-002	4.33194E+001	11	...........	6.37690E-002	-4.47542E-003	5.69600E-001	6.41612E-001	-3.00570E-002	-3.96921E-002	6.60889E-001	-4.33286E-002	5.36612E-003	-3.76604E-004	4.79315E-002	5.39912E-002	-2.52927E-003	-3.34007E-003	5.56134E-002	-3.64608E-003
	6	6	1.10095E+000	7.48216E-002	0.00000E+000	8.23746E-002	7.45115E-001	3.85382E-002	4.31022E+001	11	...........	6.40719E-002	-4.40653E-003	5.69482E-001	6.41700E-001	-3.00392E-002	-3.96917E-002	6.60818E-001	-4.33408E-002	4.79396E-003	-3.29703E-004	4.26096E-002	4.80130E-002	-2.24758E-003	-2.96979E-003	4.94434E-002	-3.24283E-003
	7	7	1.10101E+000	7.13517E-002	0.00000E+000	7.85586E-002	7.10607E-001	3.81770E-002	4.41670E+001	11	...........	6.34889E-002	-4.40667E-003	5.69531E-001	6.41522E-001	-3.00676E-002	-3.96487E-002	6.60907E-001	-4.35035E-002	4.53004E-003	-3.14423E-004	4.06370E-002	4.57737E-002	-2.14538E-003	-2.82900E-003	4.71568E-002	-3.10405E-003
	8	8	1.10110E+000	6.89618E-002	0.00000E+000	7.59335E-002	6.86841E-001	3.84372E-002	4.08674E+001	11	...........	6.38969E-002	-4.36972E-003	5.69413E-001	6.41589E-001	-3.00776E-002	-3.96394E-002	6.60902E-001	-4.35574E-002	4.40645E-003	-3.01344E-004	3.92677E-002	4.42451E-002	-2.07421E-003	-2.73361E-003	4.55769E-002	-3.00379E-003
	9	9	1.10087E+000	6.81571E-002	0.00000E+000	7.50322E-002	6.78836E-001	3.78300E-002	4.08827E+001	11	...........	6.28990E-002	-4.31389E-003	5.69327E-001	6.41619E-001	-3.00951E-002	-3.96319E-002	6.60911E-001	-4.34982E-002	4.28701E-003	-2.94022E-004	3.88036E-002	4.37308E-002	-2.05120E-003	-2.70120E-003	4.50458E-002	-2.96471E-003
	10	10	1.10098E+000	6.78804E-002	0.00000E+000	7.47350E-002	6.76093E-001	3.82747E-002	4.30998E+001	11	...........	6.36228E-002	-4.43764E-003	5.69497E-001	6.41901E-001	-3.00886E-002	-3.96208E-002	6.60964E-001	-4.36199E-002	4.31874E-003	-3.01229E-004	3.86577E-002	4.35725E-002	-2.04243E-003	-2.68948E-003	4.48665E-002	-2.96093E-003
	11	11	1.10109E+000	6.66636E-002	0.00000E+000	7.34028E-002	6.63993E-001	3.81012E-002	4.23813E+001	11	...........	6.33717E-002	-4.43875E-003	5.69551E-001	6.42028E-001	-3.00968E-002	-3.96386E-002	6.61005E-001	-4.35003E-002	4.22458E-003	-2.95903E-004	3.79683E-002	4.27999E-002	-2.00636E-003	-2.64245E-003	4.40650E-002	-2.89989E-003
	12	12	1.10087E+000	6.63687E-002	0.00000E+000	7.30636E-002	6.61055E-001	3.79741E-002	4.17320E+001	11	...........	6.31462E-002	-4.36306E-003	5.69482E-001	6.42166E-001	-3.01064E-002	-3.96264E-002	6.60986E-001	-4.35787E-002	4.19094E-003	-2.89570E-004	3.77958E-002	4.26197E-002	-1.99812E-003	-2.62995E-003	4.38688E-002	-2.89227E-003
	13	13	1.10097E+000	6.63508E-002	0.00000E+000	7.30504E-002	6.60877E-001	3.81650E-002	4.20342E+001	11	...........	6.34708E-002	-4.43514E-003	5.69555E-001	6.42391E-001	-3.01003E-002	-3.96106E-002	6.60979E-001	-4.34018E-002	4.21134E-003	-2.94275E-004	3.77904E-002	4.26232E-002	-1.99718E-003	-2.62819E-003	4.38565E-002	-2.87975E-003
	14	14	1.10109E+000	6.55054E-002	0.00000E+000	7.21276E-002	6.52472E-001	3.78270E-002	4.23663E+001	11	...........	6.29157E-002	-4.40708E-003	5.69610E-001	6.42481E-001	-3.00483E-002	-3.96093E-002	6.60937E-001	-4.33929E-002	4.12132E-003	-2.88688E-004	3.73125E-002	4.20860E-002	-1.96833E-003	-2.59462E-003	4.32950E-002	-2.84247E-003
	15	15	1.10087E+000	6.53003E-002	0.00000E+000	7.18871E-002	6.50439E-001	3.77422E-002	4.16684E+001	11	...........	6.27387E-002	-4.18764E-003	5.69628E-001	6.42537E-001	-3.00258E-002	-3.96269E-002	6.60982E-001	-4.34307E-002	4.09686E-003	-2.73454E-004	3.71969E-002	4.19579E-002	-1.96070E-003	-2.58765E-003	4.31623E-002	-2.83604E-003
	16	16	1.10097E+000	6.53567E-002	0.00000E+000	7.19560E-002	6.50995E-001	3.78927E-002	4.22196E+001	11	...........	6.30422E-002	-4.35944E-003	5.69692E-001	6.42412E-001	-3.00121E-002	-3.96312E-002	6.60919E-001	-4.33800E-002	4.12023E-003	-2.84919E-004	3.72332E-002	4.19860E-002	-1.96149E-003	-2.59017E-003	4.31955E-002	-2.83517E-003
	17	17	1.10110E+000	6.45763E-002	0.00000E+000	7.11048E-002	6.43244E-001	3.78242E-002	4.12184E+001	11	...........	6.29085E-002	-4.48028E-003	5.69665E-001	6.42441E-001	-2.99965E-002	-3.96360E-002	6.61029E-001	-4.32897E-002	4.06239E-003	-2.89320E-004	3.67869E-002	4.14864E-002	-1.93706E-003	-2.55954E-003	4.26868E-002	-2.79549E-003
	18	18	1.10086E+000	6.45049E-002	0.00000E+000	7.10112E-002	6.42537E-001	3.78131E-002	4.24812E+001	11	...........	6.28971E-002	-4.49917E-003	5.69662E-001	6.42460E-001	-2.99667E-002	-3.96262E-002	6.60927E-001	-4.33164E-002	4.05717E-003	-2.90218E-004	3.67460E-002	4.14418E-002	-1.93300E-003	-2.55609E-003	4.26331E-002	-2.79412E-003
	19	19	1.10097E+000	6.46094E-002	0.00000E+000	7.11328E-002	6.43571E-001	3.75527E-002	4.31463E+001	11	...........	6.24849E-002	-4.49750E-003	5.69619E-001	6.42319E-001	-2.99799E-002	-3.96297E-002	6.61020E-001	-4.33214E-002	4.03711E-003	-2.90581E-004	3.68027E-002	4.14998E-002	-1.93698E-003	-2.56045E-003	4.27081E-002	-2.79897E-003
	20	20	1.10110E+000	6.38611E-002	0.00000E+000	7.03176E-002	6.36126E-001	3.77343E-002	4.25497E+001	11	...........	6.29803E-002	-4.50431E-003	5.69681E-001	6.42293E-001	-2.99840E-002	-3.96296E-002	6.61127E-001	-4.33131E-002	4.02199E-003	-2.87650E-004	3.63804E-002	4.10176E-002	-1.91481E-003	-2.53079E-003	4.22203E-002	-2.76602E-003
	21	21	1.10086E+000	6.37334E-002	0.00000E+000	7.01618E-002	6.34856E-001	3.72852E-002	4.19360E+001	11	...........	6.23764E-002	-4.36736E-003	5.69621E-001	6.42386E-001	-3.00015E-002	-3.96487E-002	6.61163E-001	-4.34368E-002	3.97546E-003	-2.78347E-004	3.63038E-002	4.09414E-002	-1.91210E-003	-2.52695E-003	4.21382E-002	-2.76837E-003
	22	22	1.10096E+000	6.39402E-002	0.00000E+000	7.03957E-002	6.36916E-001	3.73200E-002	4.27374E+001	11	...........	6.24065E-002	-4.30375E-003	5.69597E-001	6.42569E-001	-3.00444E-002	-3.96451E-002	6.61093E-001	-4.35907E-002	3.99029E-003	-2.75183E-004	3.64202E-002	4.10860E-002	-1.92105E-003	-2.53492E-003	4.22705E-002	-2.78720E-003
	23	23	1.10111E+000	6.31361E-002	0.00000E+000	6.95196E-002	6.28911E-001	3.74349E-002	4.14326E+001	11	...........	6.26268E-002	-4.42125E-003	5.69557E-001	6.42419E-001	-3.00617E-002	-3.96328E-002	6.60962E-001	-4.36343E-002	3.95401E-003	-2.79140E-004	3.59596E-002	4.05598E-002	-1.89798E-003	-2.50226E-003	4.17305E-002	-2.75490E-003
	24	24	1.10087E+000	6.29934E-002	0.00000E+000	6.93474E-002	6.27496E-001	3.71227E-002	4.23656E+001	11	...........	6.20742E-002	-4.46375E-003	5.69446E-001	6.42403E-001	-3.00810E-002	-3.95983E-002	6.60822E-001	-4.37435E-002	3.91027E-003	-2.81187E-004	3.58714E-002	4.04672E-002	-1.89490E-003	-2.49444E-003	4.16275E-002	-2.75555E-003
	25	25	1.10096E+000	6.32356E-002	0.00000E+000	6.96197E-002	6.29905E-001	3.74162E-002	4.20917E+001	11	...........	6.25781E-002	-4.47750E-003	5.69383E-001	6.42321E-001	-3.00783E-002	-3.96015E-002	6.60897E-001	-4.37376E-002	3.95716E-003	-2.83137E-004	3.60053E-002	4.06175E-002	-1.90202E-003	-2.50422E-003	4.17922E-002	-2.76577E-003
	26	26	1.10111E+000	6.25462E-002	0.00000E+000	6.88703E-002	6.23050E-001	3.72866E-002	4.20629E+001	11	...........	6.23617E-002	-4.38819E-003	5.69363E-001	6.42242E-001	-3.00768E-002	-3.96022E-002	6.60871E-001	-4.37132E-002	3.90049E-003	-2.74465E-004	3.56115E-002	4.01698E-002	-1.88119E-003	-2.47697E-003	4.13350E-002	-2.73410E-003
	27	27	1.10087E+000	6.23967E-002	0.00000E+000	6.86906E-002	6.21566E-001	3.71017E-002	4.15802E+001	11	...........	6.20357E-002	-4.41347E-003	5.69450E-001	6.42184E-001	-3.00435E-002	-3.95772E-002	6.60832E-001	-4.36026E-002	3.87083E-003	-2.75386E-004	3.55318E-002	4.00702E-002	-1.87461E-003	-2.46949E-003	4.12338E-002	-2.72066E-003
	28	28	1.10095E+000	6.26361E-002	0.00000E+000	6.89592E-002	6.23946E-001	3.71247E-002	4.28455E+001	11	...........	6.20808E-002	-4.49417E-003	5.69585E-001	6.42078E-001	-3.00442E-002	-3.95921E-002	6.60903E-001	-4.36733E-002	3.88850E-003	-2.81497E-004	3.56766E-002	4.02173E-002	-1.88185E-003	-2.47989E-003	4.13964E-002	-2.73553E-003
	29	29	1.10111E+000	6.19335E-002	0.00000E+000	6.81957E-002	6.16958E-001	3.71960E-002	4.22816E+001	11	...........	6.22247E-002	-4.51250E-003	5.69629E-001	6.41989E-001	-3.00440E-002	-3.95832E-002	6.60952E-001	-4.35040E-002	3.85380E-003	-2.79475E-004	3.52792E-002	3.97606E-002	-1.86073E-003	-2.45153E-003	4.09351E-002	-2.69436E-003
	30	30	1.10087E+000	6.18230E-002	0.00000E+000	6.80592E-002	6.15854E-001	3.71086E-002	4.18555E+001	11	...........	6.20485E-002	-4.34375E-003	5.69727E-001	6.42047E-001	-3.00581E-002	-3.95972E-002	6.60904E-001	-4.36331E-002	3.83602E-003	-2.68544E-004	3.52222E-002	3.96932E-002	-1.85828E-003	-2.44802E-003	4.08591E-002	-2.69753E-003
	31	31	1.10095E+000	6.20385E-002	0.00000E+000	6.83011E-002	6.17996E-001	3.71735E-002	4.29660E+001	11	...........	6.21622E-002	-4.34167E-003	5.69672E-001	6.41948E-001	-3.00567E-002	-3.96067E-002	6.60962E-001	-4.35565E-002	3.85645E-003	-2.69351E-004	3.53416E-002	3.98255E-002	-1.86467E-003	-2.45714E-003	4.10051E-002	-2.70218E-003
	32	32	1.10111E+000	6.12964E-002	0.00000E+000	6.74944E-002	6.10620E-001	3.69017E-002	4.08825E+001	11	...........	6.17107E-002	-4.21069E-003	5.69494E-001	6.41999E-001	-3.00110E-002	-3.95897E-002	6.60894E-001	-4.35779E-002	3.78265E-003	-2.58101E-004	3.49080E-002	3.93523E-002	-1.83957E-003	-2.42671E-003	4.05104E-002	-2.67117E-003
	33	33	1.10087E+000	6.11673E-002	0.00000E+000	6.73372E-002	6.09329E-001	3.71283E-002	4.31943E+001	11	...........	6.20894E-002	-4.27014E-003	5.69517E-001	6.42231E-001	-3.00396E-002	-3.95854E-002	6.60974E-001	-4.35392E-002	3.79784E-003	-2.61193E-004	3.48358E-002	3.92835E-002	-1.83744E-003	-2.42133E-003	4.04300E-002	-2.66317E-003
	34	34	1.10095E+000	6.13871E-002	0.00000E+000	6.75841E-002	6.11517E-001	3.71821E-002	4.22566E+001	11	...........	6.21686E-002	-4.36486E-003	5.69582E-001	6.42296E-001	-3.00462E-002	-3.95711E-002	6.61082E-001	-4.34962E-002	3.81635E-003	-2.67946E-004	3.49650E-002	3.94287E-002	-1.84445E-003	-2.42916E-003	4.05819E-002	-2.67011E-003
	35	35	1.10111E+000	6.07418E-002	0.00000E+000	6.68834E-002	6.05101E-001	3.68530E-002	4.24021E+001	11	...........	6.16032E-002	-4.46778E-003	5.69511E-001	6.42309E-001	-3.00549E-002	-3.95618E-002	6.61159E-001	-4.34174E-002	3.74189E-003	-2.71381E-004	3.45931E-002	3.90150E-002	-1.82559E-003	-2.40306E-003	4.01600E-002	-2.63725E-003
	36	36	1.10088E+000	6.05077E-002	0.00000E+000	6.66114E-002	6.02773E-001	3.69678E-002	4.12750E+001	11	...........	6.18251E-002	-4.49861E-003	5.69564E-001	6.42345E-001	-3.00662E-002	-3.95764E-002	6.60977E-001	-4.34308E-002	3.74090E-003	-2.72201E-004	3.44630E-002	3.88668E-002	-1.81924E-003	-2.39468E-003	3.99942E-002	-2.62790E-003
	37	37	1.10094E+000	6.08145E-002	0.00000E+000	6.69533E-002	6.05825E-001	3.68979E-002	4.12069E+001	11	...........	6.16903E-002	-4.42347E-003	5.69433E-001	6.42280E-001	-3.00733E-002	-3.95740E-002	6.61038E-001	-4.34158E-002	3.75166E-003	-2.69011E-004	3.46298E-002	3.90599E-002	-1.82889E-003	-2.40667E-003	4.02007E-002	-2.64031E-003
	38	38	1.10111E+000	6.01175E-002	0.00000E+000	6.61960E-002	5.98892E-001	3.68424E-002	4.29212E+001	11	...........	6.16282E-002	-4.41222E-003	5.69413E-001	6.42273E-001	-3.00336E-002	-3.95643E-002	6.61023E-001	-4.33726E-002	3.70493E-003	-2.65252E-004	3.42317E-002	3.86118E-002	-1.80554E-003	-2.37851E-003	3.97391E-002	-2.60745E-003
	39	39	1.10087E+000	6.00122E-002	0.00000E+000	6.60659E-002	5.97843E-001	3.69223E-002	4.30037E+001	11	...........	6.17486E-002	-4.48750E-003	5.69328E-001	6.42227E-001	-3.00299E-002	-3.95724E-002	6.61090E-001	-4.33308E-002	3.70567E-003	-2.69305E-004	3.41666E-002	3.85414E-002	-1.80216E-003	-2.37482E-003	3.96735E-002	-2.60038E-003
	40	40	1.10094E+000	6.02252E-002	0.00000E+000	6.63045E-002	5.99969E-001	3.67144E-002	4.17902E+001	11	...........	6.13936E-002	-4.45222E-003	5.69352E-001	6.42463E-001	-3.00319E-002	-3.95436E-002	6.61222E-001	-4.33764E-002	3.69744E-003	-2.68136E-004	3.42893E-002	3.86925E-002	-1.80868E-003	-2.38152E-003	3.98222E-002	-2.61235E-003
	41	41	1.10111E+000	5.96507E-002	0.00000E+000	6.56821E-002	5.94250E-001	3.68242E-002	4.20881E+001	11	...........	6.15657E-002	-4.45042E-003	5.69310E-001	6.42680E-001	-3.00597E-002	-3.95531E-002	6.61112E-001	-4.33501E-002	3.67244E-003	-2.65470E-004	3.39597E-002	3.83363E-002	-1.79308E-003	-2.35937E-003	3.94358E-002	-2.58587E-003
	42	42	1.10088E+000	5.94703E-002	0.00000E+000	6.54694E-002	5.92457E-001	3.68482E-002	4.26719E+001	11	...........	6.16131E-002	-4.42347E-003	5.69220E-001	6.42813E-001	-3.00832E-002	-3.95611E-002	6.61074E-001	-4.35811E-002	3.66415E-003	-2.63065E-004	3.38517E-002	3.82283E-002	-1.78906E-003	-2.35271E-003	3.93143E-002	-2.59178E-003
	43	43	1.10095E+000	5.97344E-002	0.00000E+000	6.57644E-002	5.95078E-001	3.66895E-002	4.26343E+001	11	...........	6.13587E-002	-4.43569E-003	5.69147E-001	6.42804E-001	-3.00756E-002	-3.95696E-002	6.61169E-001	-4.34746E-002	3.66523E-003	-2.64963E-004	3.39976E-002	3.83975E-002	-1.79654E-003	-2.36366E-003	3.94945E-002	-2.59693E-003
	44	44	1.10111E+000	5.91241E-002	0.00000E+000	6.51021E-002	5.89009E-001	3.65832E-002	4.18989E+001	11	...........	6.11829E-002	-4.41889E-003	5.69097E-001	6.42705E-001	-3.00381E-002	-3.95704E-002	6.61025E-001	-4.34872E-002	3.61739E-003	-2.61263E-004	3.36473E-002	3.79994E-002	-1.77597E-003	-2.33957E-003	3.90825E-002	-2.57114E-003
	45	45	1.10088E+000	5.88736E-002	0.00000E+000	6.48127E-002	5.86518E-001	3.65971E-002	4.31437E+001	11	...........	6.11992E-002	-4.47847E-003	5.69158E-001	6.42610E-001	-3.00186E-002	-3.95778E-002	6.61126E-001	-4.34226E-002	3.60302E-003	-2.63664E-004	3.35084E-002	3.78328E-002	-1.76730E-003	-2.33009E-003	3.89229E-002	-2.55645E-003
	46	46	1.10095E+000	5.91499E-002	0.00000E+000	6.51209E-002	5.89264E-001	3.66777E-002	4.23863E+001	11	...........	6.13418E-002	-4.46389E-003	5.69176E-001	6.42454E-001	-3.00453E-002	-3.96210E-002	6.61234E-001	-4.33921E-002	3.62836E-003	-2.64039E-004	3.36667E-002	3.80011E-002	-1.77718E-003	-2.34358E-003	3.91120E-002	-2.56664E-003
	47	47	1.10110E+000	5.86367E-002	0.00000E+000	6.45650E-002	5.84163E-001	3.66447E-002	4.14800E+001	11	...........	6.12717E-002	-4.36958E-003	5.69123E-001	6.42553E-001	-3.00721E-002	-3.96254E-002	6.61277E-001	-4.34324E-002	3.59277E-003	-2.56218E-004	3.33715E-002	3.76772E-002	-1.76333E-003	-2.32350E-003	3.87750E-002	-2.54673E-003
	48	48	1.10089E+000	5.83256E-002	0.00000E+000	6.42099E-002	5.81066E-001	3.65823E-002	4.15015E+001	11	...........	6.11869E-002	-4.41528E-003	5.68989E-001	6.42681E-001	-3.01296E-002	-3.96512E-002	6.61167E-001	-4.35258E-002	3.56876E-003	-2.57524E-004	3.31866E-002	3.74847E-002	-1.75732E-003	-2.31268E-003	3.85630E-002	-2.53867E-003
	49	49	1.10093E+000	5.86617E-002	0.00000E+000	6.45826E-002	5.84402E-001	3.65902E-002	4.20709E+001	11	...........	6.11799E-002	-4.38597E-003	5.68873E-001	6.42627E-001	-3.01151E-002	-3.96671E-002	6.61086E-001	-4.33183E-002	3.58892E-003	-2.57289E-004	3.33711E-002	3.76976E-002	-1.76661E-003	-2.32694E-003	3.87805E-002	-2.54113E-003
	50	50	1.10111E+000	5.81096E-002	0.00000E+000	6.39851E-002	5.78917E-001	3.66670E-002	4.18954E+001	11	...........	6.13142E-002	-4.38986E-003	5.68962E-001	6.42582E-001	-3.00992E-002	-3.96469E-002	6.60972E-001	-4.33160E-002	3.56294E-003	-2.55093E-004	3.30621E-002	3.73402E-002	-1.74905E-003	-2.30387E-003	3.84089E-002	-2.51707E-003
	51	51	1.10089E+000	5.77861E-002	0.00000E+000	6.36160E-002	5.75702E-001	3.65342E-002	4.16489E+001	11	...........	6.10736E-002	-4.48792E-003	5.68911E-001	6.42620E-001	-3.00956E-002	-3.96006E-002	6.61070E-001	-4.34443E-002	3.52921E-003	-2.59339E-004	3.28751E-002	3.71345E-002	-1.73910E-003	-2.28836E-003	3.82007E-002	-2.51048E-003
	52	52	1.10094E+000	5.81524E-002	0.00000E+000	6.40221E-002	5.79343E-001	3.66599E-002	4.20699E+001	11	...........	6.13124E-002	-4.46958E-003	5.68951E-001	6.42554E-001	-3.01072E-002	-3.96314E-002	6.61056E-001	-4.35189E-002	3.56546E-003	-2.59917E-004	3.30859E-002	3.73661E-002	-1.75081E-003	-2.30466E-003	3.84420E-002	-2.53073E-003
	53	53	1.10110E+000	5.75450E-002	0.00000E+000	6.33631E-002	5.73308E-001	3.65503E-002	4.08033E+001	11	...........	6.11289E-002	-4.44972E-003	5.68962E-001	6.42592E-001	-3.01124E-002	-3.96314E-002	6.61048E-001	-4.33750E-002	3.51766E-003	-2.56059E-004	3.27409E-002	3.69780E-002	-1.73282E-003	-2.28059E-003	3.80400E-002	-2.49602E-003
	54	54	1.10089E+000	5.72750E-002	0.00000E+000	6.30534E-002	5.70623E-001	3.63865E-002	4.20508E+001	11	...........	6.08512E-002	-4.45306E-003	5.69066E-001	6.42426E-001	-3.01226E-002	-3.96304E-002	6.61077E-001	-4.33853E-002	3.48525E-003	-2.55049E-004	3.25933E-002	3.67949E-002	-1.72527E-003	-2.26983E-003	3.78632E-002	-2.48489E-003
	55	55	1.10094E+000	5.76281E-002	0.00000E+000	6.34450E-002	5.74135E-001	3.67039E-002	4.11354E+001	11	...........	6.13729E-002	-4.33625E-003	5.69188E-001	6.42364E-001	-3.01325E-002	-3.96293E-002	6.61093E-001	-4.33407E-002	3.53680E-003	-2.49890E-004	3.28012E-002	3.70182E-002	-1.73648E-003	-2.28376E-003	3.80975E-002	-2.49764E-003
	56	56	1.10110E+000	5.70495E-002	0.00000E+000	6.28173E-002	5.68382E-001	3.62042E-002	4.13890E+001	11	...........	6.05218E-002	-4.27847E-003	5.69143E-001	6.42346E-001	-3.01589E-002	-3.96364E-002	6.60988E-001	-4.33456E-002	3.45274E-003	-2.44085E-004	3.24693E-002	3.66456E-002	-1.72055E-003	-2.26124E-003	3.77090E-002	-2.47284E-003
	57	57	1.10089E+000	5.67776E-002	0.00000E+000	6.25060E-002	5.65677E-001	3.64508E-002	4.01809E+001	11	...........	6.09574E-002	-4.44889E-003	5.69147E-001	6.42309E-001	-3.01469E-002	-3.96381E-002	6.61001E-001	-4.33801E-002	3.46101E-003	-2.52597E-004	3.23148E-002	3.64688E-002	-1.71167E-003	-2.25055E-003	3.75300E-002	-2.46302E-003
	58	58	1.10094E+000	5.71128E-002	0.00000E+000	6.28778E-002	5.69011E-001	3.67359E-002	4.17361E+001	11	...........	6.14276E-002	-4.48569E-003	5.69219E-001	6.42363E-001	-3.01379E-002	-3.96354E-002	6.61008E-001	-4.33450E-002	3.50830E-003	-2.56191E-004	3.25097E-002	3.66871E-002	-1.72126E-003	-2.26369E-003	3.77520E-002	-2.47555E-003
	59	59	1.10109E+000	5.66340E-002	0.00000E+000	6.23594E-002	5.64251E-001	3.62577E-002	4.06226E+001	11	...........	6.06453E-002	-4.52042E-003	5.69395E-001	6.42398E-001	-3.00967E-002	-3.96362E-002	6.61044E-001	-4.33987E-002	3.43459E-003	-2.56009E-004	3.22471E-002	3.63816E-002	-1.70450E-003	-2.24476E-003	3.74376E-002	-2.45785E-003
	60	60	1.10090E+000	5.61985E-002	0.00000E+000	6.18690E-002	5.59918E-001	3.65412E-002	4.02866E+001	11	...........	6.10978E-002	-4.47917E-003	5.69527E-001	6.42284E-001	-3.00846E-002	-3.96628E-002	6.61057E-001	-4.34804E-002	3.43360E-003	-2.51722E-004	3.20065E-002	3.60954E-002	-1.69071E-003	-2.22899E-003	3.71504E-002	-2.44353E-003
	61	61	1.10093E+000	5.64311E-002	0.00000E+000	6.21265E-002	5.62229E-001	3.64123E-002	3.93025E+001	11	...........	6.08818E-002	-4.46708E-003	5.69303E-001	6.42292E-001	-3.00644E-002	-3.96928E-002	6.61092E-001	-4.33503E-002	3.43563E-003	-2.52083E-004	3.21264E-002	3.62453E-002	-1.69657E-003	-2.23991E-003	3.73062E-002	-2.44630E-003
	62	62	1.10109E+000	5.60743E-002	0.00000E+000	6.17429E-002	5.58677E-001	3.60766E-002	4.03058E+001	11	...........	6.03076E-002	-4.47069E-003	5.68964E-001	6.42258E-001	-3.00543E-002	-3.96825E-002	6.61027E-001	-4.35426E-002	3.38171E-003	-2.50691E-004	3.19043E-002	3.60141E-002	-1.68527E-003	-2.22517E-003	3.70666E-002	-2.44162E-003
	63	63	1.10090E+000	5.57238E-002	0.00000E+000	6.13466E-002	5.55193E-001	3.66064E-002	3.89153E+001	11	...........	6.12418E-002	-4.47764E-003	5.68871E-001	6.42114E-001	-3.00615E-002	-3.96793E-002	6.61091E-001	-4.35124E-002	3.41263E-003	-2.49511E-004	3.16997E-002	3.57810E-002	-1.67514E-003	-2.21108E-003	3.68385E-002	-2.42467E-003
	64	64	1.10093E+000	5.59784E-002	0.00000E+000	6.16286E-002	5.57728E-001	3.60728E-002	4.02813E+001	11	...........	6.03168E-002	-4.34875E-003	5.68786E-001	6.42253E-001	-3.00797E-002	-3.96832E-002	6.61201E-001	-4.37364E-002	3.37644E-003	-2.43436E-004	3.18397E-002	3.59523E-002	-1.68381E-003	-2.22140E-003	3.70130E-002	-2.44829E-003
	65	65	1.10109E+000	5.56707E-002	0.00000E+000	6.12985E-002	5.54666E-001	3.65244E-002	3.97394E+001	11	...........	6.10437E-002	-4.43458E-003	5.68737E-001	6.42247E-001	-3.00539E-002	-3.96590E-002	6.61265E-001	-4.35029E-002	3.39835E-003	-2.46876E-004	3.16620E-002	3.57543E-002	-1.67312E-003	-2.20784E-003	3.68130E-002	-2.42184E-003
	66	66	1.10091E+000	5.51456E-002	0.00000E+000	6.07106E-002	5.49454E-001	3.63110E-002	4.01582E+001	11	...........	6.06974E-002	-4.38319E-003	5.68792E-001	6.42240E-001	-3.00462E-002	-3.96451E-002	6.61101E-001	-4.33447E-002	3.34719E-003	-2.41714E-004	3.13664E-002	3.54167E-002	-1.65692E-003	-2.18625E-003	3.64568E-002	-2.39027E-003
	67	67	1.10092E+000	5.55441E-002	0.00000E+000	6.11499E-002	5.53419E-001	3.64948E-002	4.07368E+001	11	...........	6.10326E-002	-4.40194E-003	5.69060E-001	6.42211E-001	-3.00307E-002	-3.96268E-002	6.61208E-001	-4.34068E-002	3.39000E-003	-2.44502E-004	3.16079E-002	3.56711E-002	-1.66803E-003	-2.20104E-003	3.67262E-002	-2.41099E-003
	68	68	1.10109E+000	5.50724E-002	0.00000E+000	6.06396E-002	5.48721E-001	3.58868E-002	4.05978E+001	11	...........	6.00315E-002	-4.37889E-003	5.69038E-001	6.42260E-001	-3.00164E-002	-3.95646E-002	6.61092E-001	-4.35315E-002	3.30608E-003	-2.41156E-004	3.13383E-002	3.53708E-002	-1.65307E-003	-2.17892E-003	3.64079E-002	-2.39738E-003
	69	69	1.10092E+000	5.46884E-002	0.00000E+000	6.02073E-002	5.44903E-001	3.64222E-002	4.02151E+001	11	...........	6.09819E-002	-4.33944E-003	5.69111E-001	6.42227E-001	-2.99986E-002	-3.95603E-002	6.61218E-001	-4.34718E-002	3.33500E-003	-2.37317E-004	3.11237E-002	3.51224E-002	-1.64058E-003	-2.16349E-003	3.61610E-002	-2.37740E-003
	70	70	1.10092E+000	5.50813E-002	0.00000E+000	6.06403E-002	5.48809E-001	3.61964E-002	4.05514E+001	11	...........	6.05607E-002	-4.37639E-003	5.69100E-001	6.42272E-001	-3.00283E-002	-3.95803E-002	6.61342E-001	-4.34556E-002	3.33576E-003	-2.41057E-004	3.13468E-002	3.53772E-002	-1.65400E-003	-2.18013E-003	3.64276E-002	-2.39359E-003
	71	71	1.10109E+000	5.47151E-002	0.00000E+000	6.02461E-002	5.45165E-001	3.63132E-002	4.04539E+001	11	...........	6.07224E-002	-4.45611E-003	5.69025E-001	6.42233E-001	-3.00396E-002	-3.95554E-002	6.61179E-001	-4.33668E-002	3.32243E-003	-2.43817E-004	3.11343E-002	3.51399E-002	-1.64362E-003	-2.16428E-003	3.61765E-002	-2.37282E-003
	72	72	1.10092E+000	5.41683E-002	0.00000E+000	5.96349E-002	5.39726E-001	3.58906E-002	4.06781E+001	11	...........	5.99983E-002	-4.48139E-003	5.69000E-001	6.42231E-001	-3.00589E-002	-3.95825E-002	6.61132E-001	-4.35776E-002	3.25001E-003	-2.42749E-004	3.08218E-002	3.47886E-002	-1.62824E-003	-2.14412E-003	3.58124E-002	-2.36053E-003
	73	73	1.10093E+000	5.45180E-002	0.00000E+000	6.00205E-002	5.43204E-001	3.62986E-002	4.18381E+001	11	...........	6.07060E-002	-4.39653E-003	5.69012E-001	6.42076E-001	-3.00765E-002	-3.95622E-002	6.61053E-001	-4.36262E-002	3.30957E-003	-2.39690E-004	3.10214E-002	3.50047E-002	-1.63971E-003	-2.15685E-003	3.60393E-002	-2.37841E-003
	74	74	1.10108E+000	5.42315E-002	0.00000E+000	5.97131E-002	5.40348E-001	3.63140E-002	4.07705E+001	11	...........	6.07140E-002	-4.32861E-003	5.68891E-001	6.41979E-001	-3.00933E-002	-3.95886E-002	6.61097E-001	-4.35829E-002	3.29261E-003	-2.34747E-004	3.08518E-002	3.48155E-002	-1.63201E-003	-2.14695E-003	3.58523E-002	-2.36356E-003
	75	75	1.10092E+000	5.37509E-002	0.00000E+000	5.91756E-002	5.35571E-001	3.62295E-002	4.06910E+001	11	...........	6.05901E-002	-4.34181E-003	5.68855E-001	6.41941E-001	-3.00503E-002	-3.96044E-002	6.61001E-001	-4.34760E-002	3.25678E-003	-2.33376E-004	3.05765E-002	3.45049E-002	-1.61523E-003	-2.12878E-003	3.55294E-002	-2.33687E-003
	76	76	1.10093E+000	5.39646E-002	0.00000E+000	5.94112E-002	5.37691E-001	3.59120E-002	4.15678E+001	11	...........	6.00610E-002	-4.41528E-003	5.68860E-001	6.41867E-001	-3.00214E-002	-3.95947E-002	6.60974E-001	-4.35178E-002	3.24117E-003	-2.38269E-004	3.06983E-002	3.46381E-002	-1.62009E-003	-2.13671E-003	3.56692E-002	-2.34842E-003
	77	77	1.10108E+000	5.37408E-002	0.00000E+000	5.91728E-002	5.35469E-001	3.60515E-002	3.94774E+001	11	...........	6.02951E-002	-4.41667E-003	5.68747E-001	6.41917E-001	-3.00474E-002	-3.95682E-002	6.61090E-001	-4.35674E-002	3.24031E-003	-2.37355E-004	3.05649E-002	3.44972E-002	-1.61477E-003	-2.12643E-003	3.55276E-002	-2.34135E-003
	78	78	1.10093E+000	5.31691E-002	0.00000E+000	5.85354E-002	5.29779E-001	3.62121E-002	4.00318E+001	11	...........	6.05610E-002	-4.38931E-003	5.68771E-001	6.41953E-001	-3.00297E-002	-3.95772E-002	6.61030E-001	-4.34900E-002	3.21997E-003	-2.33375E-004	3.02411E-002	3.41321E-002	-1.59665E-003	-2.10428E-003	3.51463E-002	-2.31232E-003
	79	79	1.10092E+000	5.35607E-002	0.00000E+000	5.89663E-002	5.33677E-001	3.60277E-002	3.96938E+001	11	...........	6.02307E-002	-4.45125E-003	5.68795E-001	6.41973E-001	-3.00428E-002	-3.95887E-002	6.61008E-001	-4.34589E-002	3.22600E-003	-2.38412E-004	3.04651E-002	3.43846E-002	-1.60911E-003	-2.12040E-003	3.54041E-002	-2.32769E-003
	80	80	1.10108E+000	5.32612E-002	0.00000E+000	5.86446E-002	5.30699E-001	3.61566E-002	4.09895E+001	11	...........	6.04697E-002	-4.50014E-003	5.68813E-001	6.41937E-001	-3.00369E-002	-3.95882E-002	6.61043E-001	-4.34440E-002	3.22069E-003	-2.39683E-004	3.02957E-002	3.41904E-002	-1.59980E-003	-2.10852E-003	3.52080E-002	-2.31388E-003
	81	81	1.10093E+000	5.26675E-002	0.00000E+000	5.79835E-002	5.24798E-001	3.60141E-002	4.01294E+001	11	...........	6.02081E-002	-4.46694E-003	5.68591E-001	6.41790E-001	-3.00381E-002	-3.95407E-002	6.61143E-001	-4.33957E-002	3.17101E-003	-2.35263E-004	2.99463E-002	3.38015E-002	-1.58203E-003	-2.08251E-003	3.48207E-002	-2.28554E-003
	82	82	1.10092E+000	5.30508E-002	0.00000E+000	5.84048E-002	5.28600E-001	3.60222E-002	4.13653E+001	11	...........	6.02337E-002	-4.40861E-003	5.68430E-001	6.41801E-001	-3.00433E-002	-3.95454E-002	6.61005E-001	-4.34889E-002	3.19545E-003	-2.33880E-004	3.01557E-002	3.40481E-002	-1.59382E-003	-2.09792E-003	3.50669E-002	-2.30712E-003
	83	83	1.10107E+000	5.28415E-002	0.00000E+000	5.81823E-002	5.26521E-001	3.61235E-002	4.11073E+001	11	...........	6.04396E-002	-4.35889E-003	5.68564E-001	6.41962E-001	-3.00321E-002	-3.95368E-002	6.60979E-001	-4.35531E-002	3.19372E-003	-2.30330E-004	3.00438E-002	3.39222E-002	-1.58694E-003	-2.08918E-003	3.49271E-002	-2.30141E-003
	84	84	1.10094E+000	5.22322E-002	0.00000E+000	5.75046E-002	5.20461E-001	3.57442E-002	4.04504E+001	11	...........	5.97885E-002	-4.37569E-003	5.68703E-001	6.41940E-001	-3.00418E-002	-3.95481E-002	6.60982E-001	-4.36019E-002	3.12288E-003	-2.28552E-004	2.97046E-002	3.35300E-002	-1.56915E-003	-2.06568E-003	3.45245E-002	-2.27743E-003
	85	85	1.10092E+000	5.25701E-002	0.00000E+000	5.78754E-002	5.23823E-001	3.61028E-002	4.00726E+001	11	...........	6.03790E-002	-4.25722E-003	5.68723E-001	6.41667E-001	-3.00339E-002	-3.95553E-002	6.61049E-001	-4.33885E-002	3.17413E-003	-2.23802E-004	2.98978E-002	3.37325E-002	-1.57888E-003	-2.07942E-003	3.47514E-002	-2.28093E-003
	86	86	1.10107E+000	5.23503E-002	0.00000E+000	5.76411E-002	5.21634E-001	3.60590E-002	4.12519E+001	11	...........	6.03111E-002	-4.27569E-003	5.68720E-001	6.41749E-001	-3.00579E-002	-3.95368E-002	6.61083E-001	-4.35167E-002	3.15730E-003	-2.23834E-004	2.97727E-002	3.35957E-002	-1.57354E-003	-2.06976E-003	3.46079E-002	-2.27811E-003
	87	87	1.10094E+000	5.17701E-002	0.00000E+000	5.69960E-002	5.15866E-001	3.56825E-002	4.10509E+001	11	...........	5.96762E-002	-4.24069E-003	5.68804E-001	6.41745E-001	-3.00443E-002	-3.95131E-002	6.61005E-001	-4.36251E-002	3.08944E-003	-2.19541E-004	2.94470E-002	3.32232E-002	-1.55540E-003	-2.04559E-003	3.42203E-002	-2.25848E-003
	88	88	1.10092E+000	5.21324E-002	0.00000E+000	5.73937E-002	5.19469E-001	3.59740E-002	4.14169E+001	11	...........	6.01644E-002	-4.40458E-003	5.68924E-001	6.41860E-001	-3.00528E-002	-3.94768E-002	6.61071E-001	-4.35656E-002	3.13652E-003	-2.29622E-004	2.96594E-002	3.34617E-002	-1.56672E-003	-2.05802E-003	3.44632E-002	-2.27118E-003
	89	89	1.10106E+000	5.18454E-002	0.00000E+000	5.70850E-002	5.16615E-001	3.58635E-002	4.06140E+001	11	...........	5.99797E-002	-4.37694E-003	5.68870E-001	6.41882E-001	-3.00508E-002	-3.94300E-002	6.61011E-001	-4.34996E-002	3.10967E-003	-2.26924E-004	2.94933E-002	3.32786E-002	-1.55800E-003	-2.04426E-003	3.42704E-002	-2.25525E-003
	90	90	1.10095E+000	5.12460E-002	0.00000E+000	5.64193E-002	5.10658E-001	3.55885E-002	4.05684E+001	11	...........	5.95240E-002	-4.28250E-003	5.69143E-001	6.41907E-001	-3.00353E-002	-3.94506E-002	6.61001E-001	-4.33717E-002	3.05037E-003	-2.19461E-004	2.91663E-002	3.28952E-002	-1.53919E-003	-2.02168E-003	3.38736E-002	-2.22262E-003
	91	91	1.10091E+000	5.17011E-002	0.00000E+000	5.69185E-002	5.15174E-001	3.60820E-002	4.19236E+001	11	...........	6.03229E-002	-4.26500E-003	5.69300E-001	6.41707E-001	-3.00506E-002	-3.94579E-002	6.60886E-001	-4.34481E-002	3.11876E-003	-2.20505E-004	2.94334E-002	3.31769E-002	-1.55365E-003	-2.04002E-003	3.41685E-002	-2.24631E-003
	92	92	1.10106E+000	5.14560E-002	0.00000E+000	5.66561E-002	5.12739E-001	3.57882E-002	4.08792E+001	11	...........	5.98683E-002	-4.35250E-003	5.69407E-001	6.41716E-001	-3.00318E-002	-3.94850E-002	6.60913E-001	-4.33290E-002	3.08058E-003	-2.23962E-004	2.92994E-002	3.30201E-002	-1.54532E-003	-2.03174E-003	3.40079E-002	-2.22954E-003
	93	93	1.10096E+000	5.08483E-002	0.00000E+000	5.59818E-002	5.06698E-001	3.57617E-002	3.99512E+001	11	...........	5.98101E-002	-4.39625E-003	5.69345E-001	6.41759E-001	-2.99762E-002	-3.94700E-002	6.60792E-001	-4.33139E-002	3.04124E-003	-2.23542E-004	2.89502E-002	3.26324E-002	-1.52424E-003	-2.00698E-003	3.36002E-002	-2.20244E-003
	94	94	1.10092E+000	5.10587E-002	0.00000E+000	5.62116E-002	5.08788E-001	3.55165E-002	3.88684E+001	11	...........	5.93839E-002	-4.23764E-003	5.69247E-001	6.41600E-001	-3.00142E-002	-3.95097E-002	6.60836E-001	-4.33658E-002	3.03207E-003	-2.16368E-004	2.90650E-002	3.27593E-002	-1.53248E-003	-2.01732E-003	3.37414E-002	-2.21420E-003
	95	95	1.10105E+000	5.10761E-002	0.00000E+000	5.62374E-002	5.08958E-001	3.59442E-002	4.10213E+001	11	...........	6.01044E-002	-4.24569E-003	5.69264E-001	6.41658E-001	-3.00228E-002	-3.95274E-002	6.60815E-001	-4.33578E-002	3.06990E-003	-2.16853E-004	2.90758E-002	3.27734E-002	-1.53345E-003	-2.01890E-003	3.37518E-002	-2.21455E-003
	96	96	1.10096E+000	5.04221E-002	0.00000E+000	5.55130E-002	5.02459E-001	3.57097E-002	4.15784E+001	11	...........	5.96965E-002	-4.34306E-003	5.69510E-001	6.41731E-001	-3.00493E-002	-3.95147E-002	6.60857E-001	-4.34028E-002	3.01003E-003	-2.18986E-004	2.87159E-002	3.23575E-002	-1.51515E-003	-1.99242E-003	3.33218E-002	-2.18846E-003
	97	97	1.10091E+000	5.07578E-002	0.00000E+000	5.58798E-002	5.05801E-001	3.56746E-002	3.94948E+001	11	...........	5.96446E-002	-4.42153E-003	5.69562E-001	6.41700E-001	-3.00404E-002	-3.95437E-002	6.60776E-001	-4.35635E-002	3.02743E-003	-2.24427E-004	2.89097E-002	3.25713E-002	-1.52479E-003	-2.00716E-003	3.35395E-002	-2.21119E-003
	98	98	1.10106E+000	5.05631E-002	0.00000E+000	5.56727E-002	5.03868E-001	3.57435E-002	4.09457E+001	11	...........	5.97411E-002	-4.36667E-003	5.69470E-001	6.41662E-001	-3.00261E-002	-3.95156E-002	6.60611E-001	-4.35658E-002	3.02069E-003	-2.20792E-004	2.87942E-002	3.24444E-002	-1.51821E-003	-1.99803E-003	3.34025E-002	-2.20282E-003
	99	99	1.10096E+000	5.00371E-002	0.00000E+000	5.50890E-002	4.98642E-001	3.56772E-002	4.14374E+001	11	...........	5.96526E-002	-4.33125E-003	5.69447E-001	6.41732E-001	-3.00146E-002	-3.95112E-002	6.60612E-001	-4.33486E-002	2.98485E-003	-2.16723E-004	2.84935E-002	3.21104E-002	-1.50184E-003	-1.97703E-003	3.30551E-002	-2.16904E-003
	100	100	1.10092E+000	5.02523E-002	0.00000E+000	5.53235E-002	5.00775E-001	3.56464E-002	4.00066E+001	11	...........	5.96246E-002	-4.33847E-003	5.69426E-001	6.41769E-001	-3.00522E-002	-3.95531E-002	6.60584E-001	-4.34357E-002	2.99627E-003	-2.18018E-004	2.86150E-002	3.22504E-002	-1.51019E-003	-1.98763E-003	3.31958E-002	-2.18274E-003
	101	101	1.10105E+000	5.00983E-002	0.00000E+000	5.51607E-002	4.99243E-001	3.55066E-002	4.02845E+001	11	...........	5.93826E-002	-4.28000E-003	5.69454E-001	6.41839E-001	-3.00587E-002	-3.95878E-002	6.60592E-001	-4.36121E-002	2.97497E-003	-2.14421E-004	2.85287E-002	3.21551E-002	-1.50589E-003	-1.98328E-003	3.30945E-002	-2.18489E-003
	102	102	1.10097E+000	4.95315E-002	0.00000E+000	5.45327E-002	4.93607E-001	3.56404E-002	4.20455E+001	11	...........	5.96043E-002	-4.29819E-003	5.69508E-001	6.41907E-001	-3.00865E-002	-3.96037E-002	6.60607E-001	-4.36318E-002	2.95229E-003	-2.12896E-004	2.82086E-002	3.17946E-002	-1.49023E-003	-1.96163E-003	3.27208E-002	-2.16115E-003
	103	103	1.10091E+000	4.98686E-002	0.00000E+000	5.49009E-002	4.96961E-001	3.57249E-002	4.12393E+001	11	...........	5.97346E-002	-4.40361E-003	5.69544E-001	6.41948E-001	-3.01087E-002	-3.96018E-002	6.60670E-001	-4.34271E-002	2.97888E-003	-2.19602E-004	2.84023E-002	3.20130E-002	-1.50148E-003	-1.97489E-003	3.29467E-002	-2.16565E-003
	104	104	1.10104E+000	4.96740E-002	0.00000E+000	5.46932E-002	4.95028E-001	3.52763E-002	4.16296E+001	11	...........	5.89825E-002	-4.45861E-003	5.69516E-001	6.41896E-001	-3.01221E-002	-3.95706E-002	6.60622E-001	-4.33124E-002	2.92990E-003	-2.21477E-004	2.82901E-002	3.18855E-002	-1.49628E-003	-1.96563E-003	3.28158E-002	-2.15150E-003
	105	105	1.10098E+000	4.90695E-002	0.00000E+000	5.40244E-002	4.89013E-001	3.58557E-002	3.97775E+001	11	...........	5.99671E-002	-4.49333E-003	5.69558E-001	6.41948E-001	-3.01196E-002	-3.95815E-002	6.60676E-001	-4.33349E-002	2.94256E-003	-2.20486E-004	2.79480E-002	3.15001E-002	-1.47795E-003	-1.94225E-003	3.24190E-002	-2.12642E-003
	106	106	1.10091E+000	4.93836E-002	0.00000E+000	5.43670E-002	4.92134E-001	3.53260E-002	4.07619E+001	11	...........	5.90668E-002	-4.23722E-003	5.69356E-001	6.41922E-001	-3.01487E-002	-3.95839E-002	6.60719E-001	-4.34215E-002	2.91693E-003	-2.09249E-004	2.81168E-002	3.17004E-002	-1.48885E-003	-1.95479E-003	3.26286E-002	-2.14431E-003
	107	107	1.10104E+000	4.92731E-002	0.00000E+000	5.42515E-002	4.91039E-001	3.56840E-002	4.18915E+001	11	...........	5.96671E-002	-4.37111E-003	5.69480E-001	6.41975E-001	-3.01369E-002	-3.95765E-002	6.60690E-001	-4.35662E-002	2.93998E-003	-2.15378E-004	2.80600E-002	3.16321E-002	-1.48494E-003	-1.95006E-003	3.25543E-002	-2.14664E-003
	108	108	1.10098E+000	4.85890E-002	0.00000E+000	5.34958E-002	4.84234E-001	3.54465E-002	3.97991E+001	11	...........	5.92735E-002	-4.25569E-003	5.69461E-001	6.42142E-001	-3.01040E-002	-3.95401E-002	6.60797E-001	-4.36358E-002	2.88004E-003	-2.06780E-004	2.76695E-002	3.12011E-002	-1.46273E-003	-1.92122E-003	3.21075E-002	-2.12022E-003
	109	109	1.10091E+000	4.89200E-002	0.00000E+000	5.38564E-002	4.87526E-001	3.54844E-002	4.04490E+001	11	...........	5.93200E-002	-4.37972E-003	5.69405E-001	6.42111E-001	-3.01165E-002	-3.95229E-002	6.60883E-001	-4.36243E-002	2.90193E-003	-2.14256E-004	2.78553E-002	3.14120E-002	-1.47330E-003	-1.93346E-003	3.23304E-002	-2.13410E-003
	110	110	1.10103E+000	4.87632E-002	0.00000E+000	5.36899E-002	4.85964E-001	3.52815E-002	3.94691E+001	11	...........	5.90111E-002	-4.29986E-003	5.69411E-001	6.41899E-001	-3.01178E-002	-3.95401E-002	6.60988E-001	-4.37586E-002	2.87757E-003	-2.09675E-004	2.77663E-002	3.13010E-002	-1.46864E-003	-1.92810E-003	3.22319E-002	-2.13381E-003
	111	111	1.10099E+000	4.82625E-002	0.00000E+000	5.31366E-002	4.80990E-001	3.56236E-002	4.20299E+001	11	...........	5.95835E-002	-4.27750E-003	5.69499E-001	6.41694E-001	-3.00908E-002	-3.95328E-002	6.60726E-001	-4.37757E-002	2.87565E-003	-2.06443E-004	2.74855E-002	3.09697E-002	-1.45226E-003	-1.90795E-003	3.18883E-002	-2.11272E-003
	112	112	1.10090E+000	4.85224E-002	0.00000E+000	5.34185E-002	4.83577E-001	3.55127E-002	4.06656E+001	11	...........	5.93857E-002	-4.45097E-003	5.69786E-001	6.41686E-001	-3.00969E-002	-3.95687E-002	6.60765E-001	-4.37024E-002	2.88154E-003	-2.15972E-004	2.76474E-002	3.11361E-002	-1.46038E-003	-1.91997E-003	3.20619E-002	-2.12054E-003
	113	113	1.10103E+000	4.84501E-002	0.00000E+000	5.33450E-002	4.82860E-001	3.49447E-002	4.21392E+001	11	...........	5.84581E-002	-4.19486E-003	5.69536E-001	6.41752E-001	-3.00703E-002	-3.95454E-002	6.60877E-001	-4.35928E-002	2.83230E-003	-2.03241E-004	2.75941E-002	3.10930E-002	-1.45691E-003	-1.91598E-003	3.20196E-002	-2.11207E-003
	114	114	1.10100E+000	4.78043E-002	0.00000E+000	5.26326E-002	4.76441E-001	3.57227E-002	3.93141E+001	11	...........	5.97365E-002	-4.35139E-003	5.69602E-001	6.41755E-001	-3.00582E-002	-3.95797E-002	6.60961E-001	-4.35315E-002	2.85566E-003	-2.08015E-004	2.72295E-002	3.06787E-002	-1.43691E-003	-1.89208E-003	3.15968E-002	-2.08100E-003
	115	115	1.10090E+000	4.80588E-002	0.00000E+000	5.29080E-002	4.78973E-001	3.53776E-002	4.09368E+001	11	...........	5.91493E-002	-4.38569E-003	5.69538E-001	6.41738E-001	-3.00746E-002	-3.95894E-002	6.60843E-001	-4.35279E-002	2.84265E-003	-2.10771E-004	2.73713E-002	3.08412E-002	-1.44535E-003	-1.90262E-003	3.17594E-002	-2.09190E-003
	116	116	1.10102E+000	4.80305E-002	0.00000E+000	5.28827E-002	4.78695E-001	3.54361E-002	4.06155E+001	11	...........	5.92528E-002	-4.44972E-003	5.69503E-001	6.41767E-001	-3.00831E-002	-3.95974E-002	6.60832E-001	-4.33619E-002	2.84594E-003	-2.13722E-004	2.73535E-002	3.08244E-002	-1.44491E-003	-1.90188E-003	3.17401E-002	-2.08270E-003
	117	117	1.10100E+000	4.73682E-002	0.00000E+000	5.21526E-002	4.72110E-001	3.53372E-002	4.06587E+001	11	...........	5.90828E-002	-4.43736E-003	5.69438E-001	6.41794E-001	-3.00976E-002	-3.96201E-002	6.61019E-001	-4.33926E-002	2.79864E-003	-2.10190E-004	2.69733E-002	3.04006E-002	-1.42567E-003	-1.87673E-003	3.13113E-002	-2.05543E-003
	118	118	1.10090E+000	4.75548E-002	0.00000E+000	5.23532E-002	4.73959E-001	3.51702E-002	3.93270E+001	11	...........	5.87979E-002	-4.36375E-003	5.69310E-001	6.41824E-001	-3.00876E-002	-3.96418E-002	6.60986E-001	-4.35418E-002	2.79612E-003	-2.07517E-004	2.70734E-002	3.05218E-002	-1.43081E-003	-1.88516E-003	3.14331E-002	-2.07062E-003
	119	119	1.10101E+000	4.76867E-002	0.00000E+000	5.25038E-002	4.75271E-001	3.53205E-002	4.01787E+001	11	...........	5.90697E-002	-4.16056E-003	5.69259E-001	6.41812E-001	-3.00885E-002	-3.96243E-002	6.60776E-001	-4.35694E-002	2.81684E-003	-1.98403E-004	2.71461E-002	3.06059E-002	-1.43482E-003	-1.88955E-003	3.15102E-002	-2.07768E-003
	120	120	1.10101E+000	4.69148E-002	0.00000E+000	5.16537E-002	4.67596E-001	3.51558E-002	4.17606E+001	11	...........	5.87846E-002	-4.25681E-003	5.69302E-001	6.41831E-001	-3.01011E-002	-3.96522E-002	6.60870E-001	-4.35710E-002	2.75787E-003	-1.99707E-004	2.67087E-002	3.01114E-002	-1.41219E-003	-1.86028E-003	3.10046E-002	-2.04412E-003
	121	121	1.10090E+000	4.72478E-002	0.00000E+000	5.20152E-002	4.70911E-001	3.52787E-002	4.03193E+001	11	...........	5.89822E-002	-4.24042E-003	5.69302E-001	6.41771E-001	-3.01014E-002	-3.96656E-002	6.60922E-001	-4.35342E-002	2.78678E-003	-2.00350E-004	2.68982E-002	3.03223E-002	-1.42222E-003	-1.87411E-003	3.12271E-002	-2.05689E-003
	122	122	1.10101E+000	4.71552E-002	0.00000E+000	5.19185E-002	4.69990E-001	3.52569E-002	4.15453E+001	11	...........	5.89376E-002	-4.28833E-003	5.69105E-001	6.41849E-001	-3.00907E-002	-3.96892E-002	6.60915E-001	-4.35182E-002	2.77922E-003	-2.02217E-004	2.68363E-002	3.02665E-002	-1.41893E-003	-1.87155E-003	3.11656E-002	-2.05211E-003
	123	123	1.10102E+000	4.66069E-002	0.00000E+000	5.13151E-002	4.64536E-001	3.52308E-002	4.14894E+001	11	...........	5.89050E-002	-4.21194E-003	5.69134E-001	6.41822E-001	-3.00917E-002	-3.97021E-002	6.61001E-001	-4.34411E-002	2.74538E-003	-1.96306E-004	2.65256E-002	2.99134E-002	-1.40248E-003	-1.85039E-003	3.08073E-002	-2.02466E-003
	124	124	1.10090E+000	4.67900E-002	0.00000E+000	5.15112E-002	4.66358E-001	3.52143E-002	4.01107E+001	11	...........	5.88710E-002	-4.16056E-003	5.69257E-001	6.41876E-001	-3.01056E-002	-3.97054E-002	6.61094E-001	-4.34619E-002	2.75457E-003	-1.94672E-004	2.66355E-002	3.00333E-002	-1.40864E-003	-1.85782E-003	3.09326E-002	-2.03358E-003
	125	125	1.10101E+000	4.68265E-002	0.00000E+000	5.15562E-002	4.66725E-001	3.52841E-002	4.15266E+001	11	...........	5.90131E-002	-4.28847E-003	5.69271E-001	6.41930E-001	-3.01004E-002	-3.96910E-002	6.61190E-001	-4.34692E-002	2.76337E-003	-2.00814E-004	2.66569E-002	3.00593E-002	-1.40950E-003	-1.85859E-003	3.09612E-002	-2.03551E-003
	126	126	1.10102E+000	4.61635E-002	0.00000E+000	5.08271E-002	4.60128E-001	3.51107E-002	4.09032E+001	11	...........	5.86962E-002	-4.32292E-003	5.69257E-001	6.41835E-001	-3.00942E-002	-3.97079E-002	6.61111E-001	-4.35176E-002	2.70962E-003	-1.99561E-004	2.62789E-002	2.96293E-002	-1.38925E-003	-1.83306E-003	3.05192E-002	-2.00893E-003
	127	127	1.10091E+000	4.63888E-002	0.00000E+000	5.10697E-002	4.62368E-001	3.52023E-002	4.00284E+001	11	...........	5.88850E-002	-4.20792E-003	5.69301E-001	6.41700E-001	-3.01333E-002	-3.96968E-002	6.61068E-001	-4.35781E-002	2.73160E-003	-1.95200E-004	2.64092E-002	2.97677E-002	-1.39785E-003	-1.84149E-003	3.06661E-002	-2.02153E-003
	128	128	1.10100E+000	4.64248E-002	0.00000E+000	5.11137E-002	4.62727E-001	3.51762E-002	4.17711E+001	11	...........	5.88243E-002	-4.24069E-003	5.69235E-001	6.41482E-001	-3.01326E-002	-3.97079E-002	6.60977E-001	-4.36706E-002	2.73091E-003	-1.96873E-004	2.64266E-002	2.97807E-002	-1.39890E-003	-1.84343E-003	3.06858E-002	-2.02740E-003
	129	129	1.10103E+000	4.57416E-002	0.00000E+000	5.03627E-002	4.55933E-001	3.45818E-002	4.05090E+001	11	...........	5.78226E-002	-4.25931E-003	5.69249E-001	6.41525E-001	-3.01135E-002	-3.96806E-002	6.61053E-001	-4.34749E-002	2.64490E-003	-1.94827E-004	2.60383E-002	2.93444E-002	-1.37744E-003	-1.81505E-003	3.02376E-002	-1.98861E-003
	130	130	1.10090E+000	4.59966E-002	0.00000E+000	5.06377E-002	4.58473E-001	3.53472E-002	4.01788E+001	11	...........	5.91262E-002	-4.45028E-003	5.69377E-001	6.41546E-001	-3.00846E-002	-3.96636E-002	6.61009E-001	-4.35000E-002	2.71960E-003	-2.04697E-004	2.61894E-002	2.95089E-002	-1.38379E-003	-1.82439E-003	3.04041E-002	-2.00085E-003
	131	131	1.10100E+000	4.60215E-002	0.00000E+000	5.06696E-002	4.58718E-001	3.51638E-002	4.06188E+001	11	...........	5.87979E-002	-4.41361E-003	5.69327E-001	6.41526E-001	-3.00740E-002	-3.96494E-002	6.60997E-001	-4.34719E-002	2.70597E-003	-2.03121E-004	2.62013E-002	2.95240E-002	-1.38405E-003	-1.82473E-003	3.04200E-002	-2.00064E-003
	132	132	1.10103E+000	4.53356E-002	0.00000E+000	4.99158E-002	4.51900E-001	3.49013E-002	4.12739E+001	11	...........	5.83601E-002	-4.33375E-003	5.69239E-001	6.41402E-001	-3.00811E-002	-3.96565E-002	6.61081E-001	-4.35036E-002	2.64579E-003	-1.96473E-004	2.58068E-002	2.90783E-002	-1.36375E-003	-1.79785E-003	2.99705E-002	-1.97226E-003
	133	133	1.10090E+000	4.56003E-002	0.00000E+000	5.02015E-002	4.54530E-001	3.51276E-002	4.12118E+001	11	...........	5.87560E-002	-4.34611E-003	5.69167E-001	6.41143E-001	-3.00975E-002	-3.96724E-002	6.61027E-001	-4.36932E-002	2.67929E-003	-1.98184E-004	2.59541E-002	2.92363E-002	-1.37245E-003	-1.80907E-003	3.01430E-002	-1.99242E-003
	134	134	1.10099E+000	4.56092E-002	0.00000E+000	5.02153E-002	4.54618E-001	3.50727E-002	4.11075E+001	11	...........	5.86624E-002	-4.31903E-003	5.68863E-001	6.41152E-001	-3.00862E-002	-3.96812E-002	6.61007E-001	-4.36856E-002	2.67554E-003	-1.96987E-004	2.59454E-002	2.92424E-002	-1.37221E-003	-1.80983E-003	3.01480E-002	-1.99246E-003
	135	135	1.10104E+000	4.49950E-002	0.00000E+000	4.95414E-002	4.48512E-001	3.49443E-002	3.97514E+001	11	...........	5.84061E-002	-4.37514E-003	5.69035E-001	6.41274E-001	-3.00708E-002	-3.96911E-002	6.60971E-001	-4.35796E-002	2.62798E-003	-1.96859E-004	2.56037E-002	2.88541E-002	-1.35304E-003	-1.78590E-003	2.97404E-002	-1.96086E-003
	136	136	1.10089E+000	4.51429E-002	0.00000E+000	4.96976E-002	4.49980E-001	3.49278E-002	4.07958E+001	11	...........	5.84024E-002	-4.27944E-003	5.69014E-001	6.41168E-001	-3.00629E-002	-3.96903E-002	6.60897E-001	-4.35412E-002	2.63645E-003	-1.93186E-004	2.56869E-002	2.89442E-002	-1.35713E-003	-1.79173E-003	2.98348E-002	-1.96558E-003
	137	137	1.10099E+000	4.52611E-002	0.00000E+000	4.98319E-002	4.51158E-001	3.50279E-002	4.14510E+001	11	...........	5.85747E-002	-4.27861E-003	5.69011E-001	6.41150E-001	-3.00494E-002	-3.97154E-002	6.60887E-001	-4.34936E-002	2.65115E-003	-1.93655E-004	2.57540E-002	2.90191E-002	-1.36007E-003	-1.79756E-003	2.99125E-002	-1.96857E-003
	138	138	1.10105E+000	4.45786E-002	0.00000E+000	4.90831E-002	4.44365E-001	3.48977E-002	4.17504E+001	11	...........	5.83731E-002	-4.31653E-003	5.68847E-001	6.41220E-001	-3.00569E-002	-3.97233E-002	6.60995E-001	-4.34953E-002	2.60219E-003	-1.92425E-004	2.53584E-002	2.85847E-002	-1.33990E-003	-1.77081E-003	2.94662E-002	-1.93896E-003
	139	139	1.10089E+000	4.47558E-002	0.00000E+000	4.92713E-002	4.46130E-001	3.49973E-002	3.99593E+001	11	...........	5.85217E-002	-4.34139E-003	5.68737E-001	6.41378E-001	-3.00450E-002	-3.97133E-002	6.60919E-001	-4.37331E-002	2.61918E-003	-1.94302E-004	2.54542E-002	2.87054E-002	-1.34469E-003	-1.77740E-003	2.95799E-002	-1.95731E-003
	140	140	1.10099E+000	4.48061E-002	0.00000E+000	4.93311E-002	4.46630E-001	3.49473E-002	4.07586E+001	11	...........	5.84693E-002	-4.19069E-003	5.68806E-001	6.41356E-001	-3.00636E-002	-3.97174E-002	6.60868E-001	-4.35276E-002	2.61978E-003	-1.87769E-004	2.54860E-002	2.87367E-002	-1.34703E-003	-1.77958E-003	2.96109E-002	-1.95031E-003
	141	141	1.10104E+000	4.42450E-002	0.00000E+000	4.87157E-002	4.41051E-001	3.47752E-002	4.07149E+001	11	...........	5.81442E-002	-4.28889E-003	5.68752E-001	6.41275E-001	-3.00989E-002	-3.96894E-002	6.60791E-001	-4.34856E-002	2.57259E-003	-1.89762E-004	2.51644E-002	2.83732E-002	-1.33173E-003	-1.75606E-003	2.92367E-002	-1.92402E-003
	142	142	1.10090E+000	4.43469E-002	0.00000E+000	4.88215E-002	4.42066E-001	3.47495E-002	4.15268E+001	11	...........	5.81353E-002	-4.36222E-003	5.68731E-001	6.41283E-001	-3.00864E-002	-3.96671E-002	6.60769E-001	-4.36872E-002	2.57812E-003	-1.93451E-004	2.52214E-002	2.84389E-002	-1.33424E-003	-1.75911E-003	2.93030E-002	-1.93739E-003
	143	143	1.10098E+000	4.44086E-002	0.00000E+000	4.88930E-002	4.42676E-001	3.50140E-002	4.07010E+001	11	...........	5.85346E-002	-4.42542E-003	5.68697E-001	6.41468E-001	-3.00650E-002	-3.96615E-002	6.60742E-001	-4.37396E-002	2.59944E-003	-1.96526E-004	2.52550E-002	2.84867E-002	-1.33514E-003	-1.76131E-003	2.93426E-002	-1.94241E-003
	144	144	1.10105E+000	4.39284E-002	0.00000E+000	4.83674E-002	4.37901E-001	3.48976E-002	4.09925E+001	11	...........	5.83656E-002	-4.43792E-003	5.68682E-001	6.41833E-001	-3.00524E-002	-3.96704E-002	6.60830E-001	-4.36450E-002	2.56390E-003	-1.94950E-004	2.49813E-002	2.81947E-002	-1.32015E-003	-1.74266E-003	2.90292E-002	-1.91725E-003
	145	145	1.10089E+000	4.39661E-002	0.00000E+000	4.84020E-002	4.38279E-001	3.46609E-002	3.98806E+001	11	...........	5.79401E-002	-4.43458E-003	5.68736E-001	6.42141E-001	-3.00325E-002	-3.96856E-002	6.60808E-001	-4.35187E-002	2.54740E-003	-1.94971E-004	2.50051E-002	2.82324E-002	-1.32041E-003	-1.74482E-003	2.90532E-002	-1.91335E-003
	146	146	1.10098E+000	4.40012E-002	0.00000E+000	4.84444E-002	4.38626E-001	3.43066E-002	4.14519E+001	11	...........	5.76804E-002	-4.43792E-003	5.68787E-001	6.42014E-001	-3.00111E-002	-3.96704E-002	6.60730E-001	-4.34249E-002	2.53801E-003	-1.95274E-004	2.50273E-002	2.82493E-002	-1.32052E-003	-1.74554E-003	2.90729E-002	-1.91074E-003
	147	147	1.10106E+000	4.35200E-002	0.00000E+000	4.79180E-002	4.33850E-001	3.52367E-002	4.23544E+001	11	...........	5.89081E-002	-4.45500E-003	5.68925E-001	6.42043E-001	-2.99756E-002	-3.96362E-002	6.60821E-001	-4.34386E-002	2.56368E-003	-1.93882E-004	2.47596E-002	2.79417E-002	-1.30454E-003	-1.72497E-003	2.87589E-002	-1.89045E-003
	148	148	1.10090E+000	4.35351E-002	0.00000E+000	4.79277E-002	4.34000E-001	3.47427E-002	4.18222E+001	11	...........	5.80604E-002	-4.47694E-003	5.68756E-001	6.42155E-001	-2.99603E-002	-3.96244E-002	6.60858E-001	-4.34021E-002	2.52767E-003	-1.94904E-004	2.47609E-002	2.79563E-002	-1.30432E-003	-1.72505E-003	2.87705E-002	-1.88951E-003
	149	149	1.10097E+000	4.36366E-002	0.00000E+000	4.80428E-002	4.35007E-001	3.48453E-002	4.06877E+001	11	...........	5.82711E-002	-4.46569E-003	5.68815E-001	6.42273E-001	-3.00181E-002	-3.96337E-002	6.60901E-001	-4.33583E-002	2.54275E-003	-1.94868E-004	2.48212E-002	2.80266E-002	-1.30989E-003	-1.72948E-003	2.88395E-002	-1.89201E-003
	150	150	1.10106E+000	4.30971E-002	0.00000E+000	4.74527E-002	4.29644E-001	3.48404E-002	4.18614E+001	11	...........	5.82726E-002	-4.27167E-003	5.68856E-001	6.42319E-001	-3.00406E-002	-3.96153E-002	6.60859E-001	-4.35572E-002	2.51138E-003	-1.84097E-004	2.45161E-002	2.76821E-002	-1.29466E-003	-1.70730E-003	2.84811E-002	-1.87719E-003
	151	151	1.10089E+000	4.32522E-002	0.00000E+000	4.76159E-002	4.31188E-001	3.45802E-002	4.19172E+001	11	...........	5.78425E-002	-4.25319E-003	5.68665E-001	6.42254E-001	-3.00525E-002	-3.95864E-002	6.60766E-001	-4.37175E-002	2.50181E-003	-1.83960E-004	2.45960E-002	2.77789E-002	-1.29984E-003	-1.71220E-003	2.85796E-002	-1.89088E-003
	152	152	1.10098E+000	4.31995E-002	0.00000E+000	4.75616E-002	4.30662E-001	3.47378E-002	3.92313E+001	11	...........	5.80886E-002	-4.33333E-003	5.68559E-001	6.42257E-001	-3.00356E-002	-3.95546E-002	6.60772E-001	-4.36319E-002	2.50940E-003	-1.87198E-004	2.45615E-002	2.77452E-002	-1.29752E-003	-1.70874E-003	2.85450E-002	-1.88488E-003
	153	153	1.10106E+000	4.26119E-002	0.00000E+000	4.69183E-002	4.24815E-001	3.44936E-002	3.90555E+001	11	...........	5.76619E-002	-4.38736E-003	5.68403E-001	6.42069E-001	-3.00147E-002	-3.95618E-002	6.60688E-001	-4.35532E-002	2.45708E-003	-1.86954E-004	2.42207E-002	2.73598E-002	-1.27898E-003	-1.68580E-003	2.81532E-002	-1.85588E-003
	154	154	1.10089E+000	4.28317E-002	0.00000E+000	4.71530E-002	4.27003E-001	3.48265E-002	4.21749E+001	11	...........	5.82393E-002	-4.51472E-003	5.68476E-001	6.42091E-001	-3.00240E-002	-3.95667E-002	6.60874E-001	-4.35917E-002	2.49449E-003	-1.93373E-004	2.43488E-002	2.75018E-002	-1.28598E-003	-1.69471E-003	2.83063E-002	-1.86710E-003
	155	155	1.10097E+000	4.28649E-002	0.00000E+000	4.71931E-002	4.27332E-001	3.46139E-002	4.00268E+001	11	...........	5.78849E-002	-4.45486E-003	5.68503E-001	6.42125E-001	-3.00254E-002	-3.95671E-002	6.61046E-001	-4.35451E-002	2.48123E-003	-1.90957E-004	2.43688E-002	2.75246E-002	-1.28704E-003	-1.69604E-003	2.83357E-002	-1.86656E-003
	156	156	1.10107E+000	4.22988E-002	0.00000E+000	4.65738E-002	4.21704E-001	3.45525E-002	4.12135E+001	11	...........	5.78053E-002	-4.45778E-003	5.68286E-001	6.42256E-001	-3.00057E-002	-3.95619E-002	6.61029E-001	-4.34786E-002	2.44510E-003	-1.88559E-004	2.40378E-002	2.71667E-002	-1.26921E-003	-1.67342E-003	2.79608E-002	-1.83910E-003
	157	157	1.10090E+000	4.24262E-002	0.00000E+000	4.67068E-002	4.22970E-001	3.49208E-002	4.02676E+001	11	...........	5.83956E-002	-4.43792E-003	5.68420E-001	6.42268E-001	-2.99861E-002	-3.95579E-002	6.60802E-001	-4.35106E-002	2.47750E-003	-1.88284E-004	2.41159E-002	2.72490E-002	-1.27220E-003	-1.67829E-003	2.80353E-002	-1.84599E-003
	158	158	1.10097E+000	4.25030E-002	0.00000E+000	4.67945E-002	4.23731E-001	3.45855E-002	4.08057E+001	11	...........	5.78333E-002	-4.38278E-003	5.68575E-001	6.42255E-001	-3.00014E-002	-3.95769E-002	6.60928E-001	-4.36371E-002	2.45809E-003	-1.86281E-004	2.41661E-002	2.72978E-002	-1.27515E-003	-1.68214E-003	2.80914E-002	-1.85471E-003
	159	159	1.10107E+000	4.19678E-002	0.00000E+000	4.62094E-002	4.18411E-001	3.43299E-002	3.96714E+001	11	...........	5.73989E-002	-4.35889E-003	5.68530E-001	6.42218E-001	-3.00085E-002	-3.95976E-002	6.60920E-001	-4.34136E-002	2.40891E-003	-1.82933E-004	2.38600E-002	2.69525E-002	-1.25939E-003	-1.66183E-003	2.77374E-002	-1.82197E-003
	160	160	1.10089E+000	4.19799E-002	0.00000E+000	4.62154E-002	4.18527E-001	3.48422E-002	4.10992E+001	11	...........	5.82346E-002	-4.34542E-003	5.68573E-001	6.42288E-001	-3.00151E-002	-3.95793E-002	6.60839E-001	-4.35532E-002	2.44468E-003	-1.82420E-004	2.38687E-002	2.69632E-002	-1.26003E-003	-1.66154E-003	2.77420E-002	-1.82836E-003
	161	161	1.10096E+000	4.20587E-002	0.00000E+000	4.63052E-002	4.19306E-001	3.44527E-002	4.16874E+001	11	...........	5.76112E-002	-4.30431E-003	5.68367E-001	6.42311E-001	-3.00093E-002	-3.95864E-002	6.60883E-001	-4.34317E-002	2.42306E-003	-1.81034E-004	2.39048E-002	2.70148E-002	-1.26215E-003	-1.66495E-003	2.77959E-002	-1.82668E-003
	162	162	1.10107E+000	4.15793E-002	0.00000E+000	4.57817E-002	4.14546E-001	3.45712E-002	4.04225E+001	11	...........	5.78178E-002	-4.32486E-003	5.68417E-001	6.42357E-001	-3.00128E-002	-3.95589E-002	6.60984E-001	-4.34181E-002	2.40402E-003	-1.79825E-004	2.36344E-002	2.67088E-002	-1.24791E-003	-1.64483E-003	2.74832E-002	-1.80529E-003
	163	163	1.10090E+000	4.16724E-002	0.00000E+000	4.58770E-002	4.15468E-001	3.47393E-002	4.07362E+001	11	...........	5.80604E-002	-4.38639E-003	5.68501E-001	6.42416E-001	-3.00212E-002	-3.95807E-002	6.61058E-001	-4.33924E-002	2.41952E-003	-1.82791E-004	2.36908E-002	2.67710E-002	-1.25106E-003	-1.64942E-003	2.75479E-002	-1.80826E-003
	164	164	1.10096E+000	4.17467E-002	0.00000E+000	4.59617E-002	4.16205E-001	3.45652E-002	4.09666E+001	11	...........	5.77876E-002	-4.27361E-003	5.68544E-001	6.42374E-001	-3.00185E-002	-3.95676E-002	6.61011E-001	-4.33558E-002	2.41245E-003	-1.78409E-004	2.37349E-002	2.68170E-002	-1.25317E-003	-1.65182E-003	2.75951E-002	-1.80996E-003
	165	165	1.10107E+000	4.13323E-002	0.00000E+000	4.55099E-002	4.12089E-001	3.43214E-002	4.15046E+001	11	...........	5.73996E-002	-4.28000E-003	5.68629E-001	6.42465E-001	-3.00283E-002	-3.95400E-002	6.60911E-001	-4.34190E-002	2.37246E-003	-1.76902E-004	2.35028E-002	2.65546E-002	-1.24114E-003	-1.63428E-003	2.73170E-002	-1.79461E-003
	166	166	1.10089E+000	4.12658E-002	0.00000E+000	4.54291E-002	4.11422E-001	3.45020E-002	4.10952E+001	11	...........	5.77122E-002	-4.41181E-003	5.68627E-001	6.42413E-001	-3.00726E-002	-3.95462E-002	6.60970E-001	-4.34112E-002	2.38154E-003	-1.82056E-004	2.34648E-002	2.65097E-002	-1.24097E-003	-1.63191E-003	2.72754E-002	-1.79140E-003
	167	167	1.10096E+000	4.14334E-002	0.00000E+000	4.56165E-002	4.13093E-001	3.44404E-002	4.08577E+001	11	...........	5.76061E-002	-4.41667E-003	5.68487E-001	6.42378E-001	-3.01004E-002	-3.95447E-002	6.61119E-001	-4.33431E-002	2.38681E-003	-1.82997E-004	2.35543E-002	2.66159E-002	-1.24716E-003	-1.63847E-003	2.73924E-002	-1.79585E-003
	168	168	1.10107E+000	4.09197E-002	0.00000E+000	4.50556E-002	4.07984E-001	3.43297E-002	4.22156E+001	11	...........	5.74150E-002	-4.46111E-003	5.68392E-001	6.42359E-001	-3.00681E-002	-3.95319E-002	6.61078E-001	-4.35325E-002	2.34940E-003	-1.82547E-004	2.32584E-002	2.62851E-002	-1.23037E-003	-1.61763E-003	2.70511E-002	-1.78134E-003
	169	169	1.10089E+000	4.09589E-002	0.00000E+000	4.50914E-002	4.08377E-001	3.45661E-002	4.13646E+001	11	...........	5.78018E-002	-4.50319E-003	5.68370E-001	6.42430E-001	-3.00165E-002	-3.95421E-002	6.60959E-001	-4.35396E-002	2.36750E-003	-1.84446E-004	2.32798E-002	2.63132E-002	-1.22944E-003	-1.61960E-003	2.70721E-002	-1.78333E-003
	170	170	1.10096E+000	4.10224E-002	0.00000E+000	4.51642E-002	4.09010E-001	3.45728E-002	4.04560E+001	11	...........	5.78139E-002	-4.50042E-003	5.68549E-001	6.42438E-001	-3.00168E-002	-3.95714E-002	6.60981E-001	-4.34411E-002	2.37166E-003	-1.84618E-004	2.33232E-002	2.63543E-002	-1.23136E-003	-1.62331E-003	2.71150E-002	-1.78206E-003
	171	171	1.10107E+000	4.05976E-002	0.00000E+000	4.47007E-002	4.04785E-001	3.43127E-002	4.07095E+001	11	...........	5.73807E-002	-4.45667E-003	5.68738E-001	6.42447E-001	-3.00046E-002	-3.95771E-002	6.60962E-001	-4.34540E-002	2.32952E-003	-1.80930E-004	2.30894E-002	2.60818E-002	-1.21811E-003	-1.60673E-003	2.68335E-002	-1.76413E-003
	172	172	1.10090E+000	4.05803E-002	0.00000E+000	4.46749E-002	4.04612E-001	3.44345E-002	4.20540E+001	11	...........	5.75900E-002	-4.45347E-003	5.68840E-001	6.42277E-001	-3.00290E-002	-3.95907E-002	6.61010E-001	-4.34899E-002	2.33702E-003	-1.80723E-004	2.30837E-002	2.60638E-002	-1.21859E-003	-1.60660E-003	2.68240E-002	-1.76483E-003
	173	173	1.10095E+000	4.06957E-002	0.00000E+000	4.48042E-002	4.05764E-001	3.41477E-002	4.19161E+001	11	...........	5.71164E-002	-4.33542E-003	5.68823E-001	6.42311E-001	-3.00456E-002	-3.96108E-002	6.61033E-001	-4.35893E-002	2.32439E-003	-1.76433E-004	2.31487E-002	2.61393E-002	-1.22273E-003	-1.61199E-003	2.69012E-002	-1.77390E-003
	174	174	1.10107E+000	4.02347E-002	0.00000E+000	4.43013E-002	4.01181E-001	3.44668E-002	4.09472E+001	11	...........	5.76324E-002	-4.31028E-003	5.68673E-001	6.42502E-001	-3.00639E-002	-3.96012E-002	6.61105E-001	-4.36428E-002	2.31882E-003	-1.73423E-004	2.28804E-002	2.58509E-002	-1.20961E-003	-1.59334E-003	2.65994E-002	-1.75595E-003
	175	175	1.10090E+000	4.01923E-002	0.00000E+000	4.42477E-002	4.00756E-001	3.43195E-002	4.13765E+001	11	...........	5.73940E-002	-4.27806E-003	5.68692E-001	6.42511E-001	-3.00069E-002	-3.96200E-002	6.60990E-001	-4.36154E-002	2.30680E-003	-1.71945E-004	2.28570E-002	2.58240E-002	-1.20605E-003	-1.59242E-003	2.65667E-002	-1.75300E-003
	176	176	1.10096E+000	4.03518E-002	0.00000E+000	4.44256E-002	4.02344E-001	3.44488E-002	4.05965E+001	11	...........	5.75872E-002	-4.33181E-003	5.68703E-001	6.42560E-001	-2.99682E-002	-3.96004E-002	6.60852E-001	-4.35374E-002	2.32375E-003	-1.74796E-004	2.29482E-002	2.59285E-002	-1.20927E-003	-1.59795E-003	2.66666E-002	-1.75681E-003
	177	177	1.10107E+000	3.99515E-002	0.00000E+000	4.39894E-002	3.98366E-001	3.43311E-002	4.07291E+001	11	...........	5.74042E-002	-4.35306E-003	5.68643E-001	6.42588E-001	-2.99631E-002	-3.96231E-002	6.60810E-001	-4.34750E-002	2.29338E-003	-1.73911E-004	2.27181E-002	2.56723E-002	-1.19707E-003	-1.58300E-003	2.64003E-002	-1.73689E-003
	178	178	1.10090E+000	3.98654E-002	0.00000E+000	4.38880E-002	3.97508E-001	3.43060E-002	4.06959E+001	11	...........	5.73624E-002	-4.34889E-003	5.68617E-001	6.42539E-001	-3.00043E-002	-3.96033E-002	6.61029E-001	-4.35039E-002	2.28677E-003	-1.73370E-004	2.26681E-002	2.56151E-002	-1.19613E-003	-1.57880E-003	2.63522E-002	-1.73430E-003
	179	179	1.10095E+000	3.99892E-002	0.00000E+000	4.40262E-002	3.98736E-001	3.38477E-002	4.12537E+001	11	...........	5.66058E-002	-4.12972E-003	5.68402E-001	6.42461E-001	-3.00412E-002	-3.95767E-002	6.60967E-001	-4.35306E-002	2.26362E-003	-1.65144E-004	2.27299E-002	2.56915E-002	-1.20132E-003	-1.58264E-003	2.64315E-002	-1.74075E-003
	180	180	1.10107E+000	3.95887E-002	0.00000E+000	4.35899E-002	3.94759E-001	3.46595E-002	4.15889E+001	11	...........	5.79378E-002	-4.07861E-003	5.68452E-001	6.42473E-001	-3.00510E-002	-3.95357E-002	6.61040E-001	-4.33603E-002	2.29368E-003	-1.61467E-004	2.25043E-002	2.54346E-002	-1.18968E-003	-1.56517E-003	2.61697E-002	-1.71658E-003
	181	181	1.10090E+000	3.94860E-002	0.00000E+000	4.34703E-002	3.93731E-001	3.41995E-002	4.03696E+001	11	...........	5.71783E-002	-4.16194E-003	5.68456E-001	6.42551E-001	-3.00894E-002	-3.95368E-002	6.60999E-001	-4.35210E-002	2.25774E-003	-1.64338E-004	2.24461E-002	2.53718E-002	-1.18811E-003	-1.56115E-003	2.61002E-002	-1.71847E-003
	182	182	1.10095E+000	3.96580E-002	0.00000E+000	4.36616E-002	3.95441E-001	3.41544E-002	4.10392E+001	11	...........	5.71136E-002	-4.27861E-003	5.68388E-001	6.42551E-001	-3.00799E-002	-3.95587E-002	6.60947E-001	-4.35536E-002	2.26501E-003	-1.69681E-004	2.25412E-002	2.54823E-002	-1.19291E-003	-1.56882E-003	2.62118E-002	-1.72725E-003
	183	183	1.10107E+000	3.92285E-002	0.00000E+000	4.31934E-002	3.91174E-001	3.38680E-002	3.93640E+001	11	...........	5.66061E-002	-4.37625E-003	5.68382E-001	6.42483E-001	-3.00561E-002	-3.95481E-002	6.60828E-001	-4.36040E-002	2.22058E-003	-1.71674E-004	2.22968E-002	2.52037E-002	-1.17906E-003	-1.55141E-003	2.59233E-002	-1.71052E-003
	184	184	1.10091E+000	3.91344E-002	0.00000E+000	4.30833E-002	3.90235E-001	3.46375E-002	4.07468E+001	11	...........	5.79176E-002	-4.36986E-003	5.68290E-001	6.42350E-001	-3.00499E-002	-3.95675E-002	6.60925E-001	-4.35135E-002	2.26657E-003	-1.71012E-004	2.22397E-002	2.51380E-002	-1.17598E-003	-1.54845E-003	2.58649E-002	-1.70287E-003
	185	185	1.10095E+000	3.92980E-002	0.00000E+000	4.32653E-002	3.91867E-001	3.42185E-002	4.20338E+001	11	...........	5.72286E-002	-4.38750E-003	5.68366E-001	6.42395E-001	-3.00818E-002	-3.95486E-002	6.61008E-001	-4.35454E-002	2.24897E-003	-1.72420E-004	2.23357E-002	2.52448E-002	-1.18216E-003	-1.55418E-003	2.59763E-002	-1.71125E-003
	186	186	1.10107E+000	3.89086E-002	0.00000E+000	4.28409E-002	3.87995E-001	3.42253E-002	4.07151E+001	11	...........	5.72571E-002	-4.41667E-003	5.68519E-001	6.42259E-001	-3.01097E-002	-3.95690E-002	6.60986E-001	-4.34028E-002	2.22779E-003	-1.71846E-004	2.21203E-002	2.49894E-002	-1.17153E-003	-1.53958E-003	2.57181E-002	-1.68874E-003
	187	187	1.10091E+000	3.88077E-002	0.00000E+000	4.27238E-002	3.86994E-001	3.42177E-002	4.05727E+001	11	...........	5.72192E-002	-4.27486E-003	5.68758E-001	6.42234E-001	-3.00821E-002	-3.95721E-002	6.60896E-001	-4.35200E-002	2.22054E-003	-1.65897E-004	2.20722E-002	2.49236E-002	-1.16742E-003	-1.53570E-003	2.56478E-002	-1.68891E-003
	188	188	1.10095E+000	3.89895E-002	0.00000E+000	4.29256E-002	3.88801E-001	3.42682E-002	4.15116E+001	11	...........	5.73183E-002	-4.18792E-003	5.68873E-001	6.42215E-001	-3.00503E-002	-3.95847E-002	6.60899E-001	-4.37168E-002	2.23481E-003	-1.63285E-004	2.21801E-002	2.50396E-002	-1.17165E-003	-1.54339E-003	2.57681E-002	-1.70450E-003
	189	189	1.10107E+000	3.85733E-002	0.00000E+000	4.24719E-002	3.84663E-001	3.39824E-002	4.01880E+001	11	...........	5.68121E-002	-4.15361E-003	5.68916E-001	6.42211E-001	-3.00458E-002	-3.96081E-002	6.60923E-001	-4.37337E-002	2.19143E-003	-1.60218E-004	2.19450E-002	2.47722E-002	-1.15897E-003	-1.52781E-003	2.54940E-002	-1.68696E-003
	190	190	1.10091E+000	3.84464E-002	0.00000E+000	4.23259E-002	3.83401E-001	3.41878E-002	4.06847E+001	11	...........	5.71843E-002	-4.15861E-003	5.68974E-001	6.42206E-001	-3.00996E-002	-3.95824E-002	6.60825E-001	-4.37089E-002	2.19853E-003	-1.59883E-004	2.18750E-002	2.46905E-002	-1.15722E-003	-1.52180E-003	2.54063E-002	-1.68045E-003
	191	191	1.10095E+000	3.86428E-002	0.00000E+000	4.25439E-002	3.85352E-001	3.43182E-002	4.16578E+001	11	...........	5.73829E-002	-4.31556E-003	5.69054E-001	6.42273E-001	-3.00957E-002	-3.95519E-002	6.60989E-001	-4.36278E-002	2.21744E-003	-1.66765E-004	2.19898E-002	2.48192E-002	-1.16298E-003	-1.52840E-003	2.55425E-002	-1.68590E-003
	192	192	1.10106E+000	3.83273E-002	0.00000E+000	4.22007E-002	3.82216E-001	3.38500E-002	4.02467E+001	11	...........	5.66079E-002	-4.28417E-003	5.69131E-001	6.42362E-001	-3.00356E-002	-3.95556E-002	6.61152E-001	-4.34840E-002	2.16963E-003	-1.64200E-004	2.18133E-002	2.46200E-002	-1.15118E-003	-1.51606E-003	2.53402E-002	-1.66662E-003
	193	193	1.10091E+000	3.81113E-002	0.00000E+000	4.19572E-002	3.80074E-001	3.40700E-002	3.99537E+001	11	...........	5.69826E-002	-4.34236E-003	5.69211E-001	6.42284E-001	-3.00296E-002	-3.95801E-002	6.61117E-001	-4.35336E-002	2.17168E-003	-1.65493E-004	2.16934E-002	2.44783E-002	-1.14447E-003	-1.50845E-003	2.51961E-002	-1.65912E-003
	194	194	1.10095E+000	3.83630E-002	0.00000E+000	4.22357E-002	3.82573E-001	3.41820E-002	4.02121E+001	11	...........	5.71392E-002	-4.43556E-003	5.69366E-001	6.42323E-001	-3.00343E-002	-3.95843E-002	6.61079E-001	-4.34053E-002	2.19203E-003	-1.70161E-004	2.18426E-002	2.46414E-002	-1.15221E-003	-1.51857E-003	2.53609E-002	-1.66516E-003
	195	195	1.10106E+000	3.79784E-002	0.00000E+000	4.18166E-002	3.78750E-001	3.39782E-002	3.97555E+001	11	...........	5.68292E-002	-4.34208E-003	5.69399E-001	6.42220E-001	-3.00446E-002	-3.95989E-002	6.61026E-001	-4.34240E-002	2.15828E-003	-1.64905E-004	2.16248E-002	2.43905E-002	-1.14104E-003	-1.50390E-003	2.51047E-002	-1.64917E-003
	196	196	1.10092E+000	3.77405E-002	0.00000E+000	4.15492E-002	3.76385E-001	3.38451E-002	4.06328E+001	11	...........	5.66037E-002	-4.35583E-003	5.69394E-001	6.42240E-001	-3.00597E-002	-3.95906E-002	6.61002E-001	-4.36500E-002	2.13625E-003	-1.64391E-004	2.14892E-002	2.42385E-002	-1.13447E-003	-1.49417E-003	2.49465E-002	-1.64737E-003
	197	197	1.10095E+000	3.80115E-002	0.00000E+000	4.18487E-002	3.79079E-001	3.42677E-002	4.00936E+001	11	...........	5.73076E-002	-4.48486E-003	5.69455E-001	6.42384E-001	-3.00361E-002	-3.95917E-002	6.61056E-001	-4.36608E-002	2.17835E-003	-1.70476E-004	2.16458E-002	2.44180E-002	-1.14172E-003	-1.50494E-003	2.51277E-002	-1.65961E-003
	198	198	1.10106E+000	3.77023E-002	0.00000E+000	4.15126E-002	3.76006E-001	3.40747E-002	3.93188E+001	11	...........	5.69675E-002	-4.44014E-003	5.69407E-001	6.42468E-001	-3.00485E-002	-3.95737E-002	6.61036E-001	-4.35872E-002	2.14781E-003	-1.67403E-004	2.14679E-002	2.42225E-002	-1.13290E-003	-1.49202E-003	2.49226E-002	-1.64334E-003
	199	199	1.10092E+000	3.75107E-002	0.00000E+000	4.12962E-002	3.74098E-001	3.37339E-002	4.12097E+001	11	...........	5.64260E-002	-4.39625E-003	5.69256E-001	6.42536E-001	-3.00321E-002	-3.95847E-002	6.61087E-001	-4.35393E-002	2.11658E-003	-1.64907E-004	2.13532E-002	2.41020E-002	-1.12653E-003	-1.48485E-003	2.47979E-002	-1.63319E-003
	200	200	1.10095E+000	3.76512E-002	0.00000E+000	4.14520E-002	3.75498E-001	3.39427E-002	4.17957E+001	11	...........	5.67506E-002	-4.40889E-003	5.69479E-001	6.42522E-001	-3.00179E-002	-3.95744E-002	6.61164E-001	-4.35575E-002	2.13673E-003	-1.66000E-004	2.14415E-002	2.41917E-002	-1.13021E-003	-1.49002E-003	2.48936E-002	-1.63999E-003
	201	201	1.10106E+000	3.73334E-002	0.00000E+000	4.11063E-002	3.72334E-001	3.40282E-002	3.83107E+001	11	...........	5.68832E-002	-4.28917E-003	5.69677E-001	6.42407E-001	-3.00372E-002	-3.95990E-002	6.60994E-001	-4.35394E-002	2.12364E-003	-1.60129E-004	2.12680E-002	2.39832E-002	-1.12139E-003	-1.47837E-003	2.46772E-002	-1.62548E-003
	202	202	1.10092E+000	3.71798E-002	0.00000E+000	4.09322E-002	3.70810E-001	3.40624E-002	4.12845E+001	11	...........	5.69540E-002	-4.29444E-003	5.69580E-001	6.42538E-001	-3.00181E-002	-3.95867E-002	6.61053E-001	-4.34464E-002	2.11754E-003	-1.59667E-004	2.11769E-002	2.38894E-002	-1.11606E-003	-1.47182E-003	2.45778E-002	-1.61533E-003
	203	203	1.10095E+000	3.73452E-002	0.00000E+000	4.11150E-002	3.72459E-001	3.39208E-002	4.13093E+001	11	...........	5.67043E-002	-4.38542E-003	5.69499E-001	6.42614E-001	-3.00429E-002	-3.95600E-002	6.61230E-001	-4.36926E-002	2.11763E-003	-1.63774E-004	2.12681E-002	2.39985E-002	-1.12196E-003	-1.47737E-003	2.46937E-002	-1.63171E-003
	204	204	1.10106E+000	3.70451E-002	0.00000E+000	4.07888E-002	3.69468E-001	3.38436E-002	4.01826E+001	11	...........	5.65919E-002	-4.38736E-003	5.69603E-001	6.42465E-001	-3.00710E-002	-3.95572E-002	6.61201E-001	-4.36568E-002	2.09645E-003	-1.62530E-004	2.11010E-002	2.38002E-002	-1.11398E-003	-1.46540E-003	2.44943E-002	-1.61727E-003
	205	205	1.10093E+000	3.68419E-002	0.00000E+000	4.05602E-002	3.67449E-001	3.37808E-002	4.14923E+001	11	...........	5.64833E-002	-4.47778E-003	5.69585E-001	6.42513E-001	-3.00883E-002	-3.95476E-002	6.61121E-001	-4.35454E-002	2.08095E-003	-1.64970E-004	2.09846E-002	2.36714E-002	-1.10851E-003	-1.45701E-003	2.43569E-002	-1.60429E-003
	206	206	1.10094E+000	3.70301E-002	0.00000E+000	4.07681E-002	3.69319E-001	3.41044E-002	4.09861E+001	11	...........	5.70258E-002	-4.46444E-003	5.69608E-001	6.42532E-001	-3.01144E-002	-3.95158E-002	6.61163E-001	-4.36781E-002	2.11167E-003	-1.65319E-004	2.10927E-002	2.37930E-002	-1.11514E-003	-1.46328E-003	2.44830E-002	-1.61740E-003
	207	207	1.10105E+000	3.67411E-002	0.00000E+000	4.04540E-002	3.66449E-001	3.39308E-002	4.08807E+001	11	...........	5.67326E-002	-4.49014E-003	5.69681E-001	6.42604E-001	-3.01265E-002	-3.95286E-002	6.61039E-001	-4.34735E-002	2.08442E-003	-1.64973E-004	2.09307E-002	2.36100E-002	-1.10688E-003	-1.45233E-003	2.42873E-002	-1.59726E-003
	208	208	1.10093E+000	3.65642E-002	0.00000E+000	4.02546E-002	3.64688E-001	3.39565E-002	4.13604E+001	11	...........	5.67922E-002	-4.33903E-003	5.69698E-001	6.42615E-001	-3.01325E-002	-3.95222E-002	6.61143E-001	-4.34800E-002	2.07656E-003	-1.58653E-004	2.08305E-002	2.34967E-002	-1.10177E-003	-1.44510E-003	2.41741E-002	-1.58981E-003
	209	209	1.10094E+000	3.66856E-002	0.00000E+000	4.03888E-002	3.65896E-001	3.36486E-002	3.99274E+001	11	...........	5.62569E-002	-4.36278E-003	5.69767E-001	6.42659E-001	-3.01507E-002	-3.95081E-002	6.61106E-001	-4.35990E-002	2.06382E-003	-1.60051E-004	2.09022E-002	2.35764E-002	-1.10610E-003	-1.44938E-003	2.42531E-002	-1.59946E-003
	210	210	1.10105E+000	3.65075E-002	0.00000E+000	4.01966E-002	3.64127E-001	3.39264E-002	4.19421E+001	11	...........	5.67531E-002	-4.49403E-003	5.69903E-001	6.42593E-001	-3.01342E-002	-3.95124E-002	6.61166E-001	-4.35190E-002	2.07191E-003	-1.64066E-004	2.08057E-002	2.34594E-002	-1.10012E-003	-1.44250E-003	2.41375E-002	-1.58877E-003
	211	211	1.10094E+000	3.61969E-002	0.00000E+000	3.98505E-002	3.61035E-001	3.38078E-002	4.14024E+001	11	...........	5.65436E-002	-4.49000E-003	5.69867E-001	6.42772E-001	-3.01246E-002	-3.95442E-002	6.61120E-001	-4.33682E-002	2.04670E-003	-1.62524E-004	2.06274E-002	2.32664E-002	-1.09042E-003	-1.43138E-003	2.39305E-002	-1.56979E-003
	212	212	1.10094E+000	3.64367E-002	0.00000E+000	4.01146E-002	3.63423E-001	3.37637E-002	4.10582E+001	11	...........	5.64647E-002	-4.52778E-003	5.69781E-001	6.42857E-001	-3.01068E-002	-3.95465E-002	6.61031E-001	-4.33808E-002	2.05739E-003	-1.64977E-004	2.07609E-002	2.34236E-002	-1.09699E-003	-1.44094E-003	2.40858E-002	-1.58065E-003
	213	213	1.10105E+000	3.61743E-002	0.00000E+000	3.98297E-002	3.60814E-001	3.38193E-002	4.12526E+001	11	...........	5.65824E-002	-4.50347E-003	5.69802E-001	6.42835E-001	-3.01107E-002	-3.95433E-002	6.61061E-001	-4.33146E-002	2.04683E-003	-1.62910E-004	2.06122E-002	2.32541E-002	-1.08923E-003	-1.43045E-003	2.39134E-002	-1.56688E-003
	214	214	1.10094E+000	3.58464E-002	0.00000E+000	3.94648E-002	3.57550E-001	3.39188E-002	4.05975E+001	11	...........	5.66901E-002	-4.38778E-003	5.69846E-001	6.42834E-001	-3.00815E-002	-3.95533E-002	6.61328E-001	-4.33850E-002	2.03214E-003	-1.57286E-004	2.04269E-002	2.30433E-002	-1.07831E-003	-1.41784E-003	2.37062E-002	-1.55520E-003
	215	215	1.10094E+000	3.60914E-002	0.00000E+000	3.97345E-002	3.59985E-001	3.36945E-002	3.96240E+001	11	...........	5.63365E-002	-4.39097E-003	5.69748E-001	6.42683E-001	-3.00825E-002	-3.95874E-002	6.61272E-001	-4.33094E-002	2.03326E-003	-1.58476E-004	2.05630E-002	2.31953E-002	-1.08572E-003	-1.42876E-003	2.38662E-002	-1.56310E-003
	216	216	1.10105E+000	3.58389E-002	0.00000E+000	3.94602E-002	3.57475E-001	3.36732E-002	4.01737E+001	11	...........	5.63060E-002	-4.38472E-003	5.69982E-001	6.42651E-001	-3.00783E-002	-3.95853E-002	6.61172E-001	-4.33833E-002	2.01794E-003	-1.57143E-004	2.04275E-002	2.30319E-002	-1.07797E-003	-1.41869E-003	2.36957E-002	-1.55481E-003
	217	217	1.10094E+000	3.55374E-002	0.00000E+000	3.91246E-002	3.54477E-001	3.36910E-002	4.13064E+001	11	...........	5.63331E-002	-4.38444E-003	5.70049E-001	6.42499E-001	-3.00637E-002	-3.95669E-002	6.61062E-001	-4.34011E-002	2.00193E-003	-1.55812E-004	2.02580E-002	2.28327E-002	-1.06839E-003	-1.40610E-003	2.34924E-002	-1.54236E-003
	218	218	1.10094E+000	3.57611E-002	0.00000E+000	3.93708E-002	3.56697E-001	3.39089E-002	4.06447E+001	11	...........	5.67365E-002	-4.47569E-003	5.69971E-001	6.42489E-001	-3.00631E-002	-3.95515E-002	6.61048E-001	-4.33594E-002	2.02896E-003	-1.60056E-004	2.03828E-002	2.29761E-002	-1.07509E-003	-1.41440E-003	2.36398E-002	-1.55058E-003
	219	219	1.10104E+000	3.55946E-002	0.00000E+000	3.91912E-002	3.55038E-001	3.36190E-002	4.12490E+001	11	...........	5.62058E-002	-4.19986E-003	5.69703E-001	6.42360E-001	-3.01143E-002	-3.95451E-002	6.60988E-001	-4.34475E-002	2.00063E-003	-1.49493E-004	2.02784E-002	2.28646E-002	-1.07191E-003	-1.40759E-003	2.35276E-002	-1.54650E-003
	220	220	1.10095E+000	3.52912E-002	0.00000E+000	3.88538E-002	3.52021E-001	3.37900E-002	4.17640E+001	11	...........	5.65156E-002	-4.41458E-003	5.69763E-001	6.42346E-001	-3.01306E-002	-3.95760E-002	6.61077E-001	-4.33967E-002	1.99450E-003	-1.55796E-004	2.01076E-002	2.26691E-002	-1.06334E-003	-1.39668E-003	2.33302E-002	-1.53152E-003
	221	221	1.10094E+000	3.54921E-002	0.00000E+000	3.90745E-002	3.54021E-001	3.36674E-002	4.05381E+001	11	...........	5.62811E-002	-4.38069E-003	5.69641E-001	6.42285E-001	-3.01168E-002	-3.95611E-002	6.61129E-001	-4.33354E-002	1.99753E-003	-1.55480E-004	2.02177E-002	2.27960E-002	-1.06891E-003	-1.40410E-003	2.34648E-002	-1.53806E-003
	222	222	1.10104E+000	3.52531E-002	0.00000E+000	3.88151E-002	3.51642E-001	3.35318E-002	4.17895E+001	11	...........	5.60564E-002	-4.27014E-003	5.69562E-001	6.42383E-001	-3.01024E-002	-3.95715E-002	6.61055E-001	-4.33769E-002	1.97616E-003	-1.50536E-004	2.00788E-002	2.26460E-002	-1.06120E-003	-1.39502E-003	2.33042E-002	-1.52917E-003
	223	223	1.10095E+000	3.50056E-002	0.00000E+000	3.85395E-002	3.49185E-001	3.38755E-002	4.06611E+001	11	...........	5.66437E-002	-4.36472E-003	5.69541E-001	6.42387E-001	-3.00950E-002	-3.95469E-002	6.61012E-001	-4.35719E-002	1.98285E-003	-1.52790E-004	1.99371E-002	2.24872E-002	-1.05349E-003	-1.38437E-003	2.31391E-002	-1.52526E-003
	224	224	1.10094E+000	3.51342E-002	0.00000E+000	3.86806E-002	3.50458E-001	3.34821E-002	4.22828E+001	11	...........	5.59922E-002	-4.49000E-003	5.69592E-001	6.42420E-001	-3.01257E-002	-3.95314E-002	6.61071E-001	-4.35603E-002	1.96724E-003	-1.57752E-004	2.00122E-002	2.25709E-002	-1.05844E-003	-1.38890E-003	2.32262E-002	-1.53045E-003
	225	225	1.10104E+000	3.49854E-002	0.00000E+000	3.85202E-002	3.48979E-001	3.36414E-002	4.00258E+001	11	...........	5.62424E-002	-4.48125E-003	5.69728E-001	6.42405E-001	-3.01608E-002	-3.95624E-002	6.61178E-001	-4.36385E-002	1.96766E-003	-1.56778E-004	1.99322E-002	2.24748E-002	-1.05519E-003	-1.38410E-003	2.31316E-002	-1.52671E-003
	226	226	1.10096E+000	3.46516E-002	0.00000E+000	3.81499E-002	3.45663E-001	3.35864E-002	3.97178E+001	11	...........	5.61650E-002	-4.33056E-003	5.69745E-001	6.42606E-001	-3.01381E-002	-3.95769E-002	6.61108E-001	-4.36162E-002	1.94621E-003	-1.50061E-004	1.97426E-002	2.22673E-002	-1.04433E-003	-1.37140E-003	2.29084E-002	-1.51137E-003
	227	227	1.10093E+000	3.48384E-002	0.00000E+000	3.83548E-002	3.47520E-001	3.32310E-002	4.17030E+001	11	...........	5.55719E-002	-4.39597E-003	5.69769E-001	6.42487E-001	-3.01099E-002	-3.95650E-002	6.61075E-001	-4.36953E-002	1.93604E-003	-1.53149E-004	1.98498E-002	2.23832E-002	-1.04898E-003	-1.37838E-003	2.30308E-002	-1.52228E-003
	228	228	1.10104E+000	3.47232E-002	0.00000E+000	3.82315E-002	3.46372E-001	3.39532E-002	4.06088E+001	11	...........	5.67756E-002	-4.44333E-003	5.69804E-001	6.42352E-001	-3.01136E-002	-3.95657E-002	6.61105E-001	-4.35483E-002	1.97143E-003	-1.54287E-004	1.97854E-002	2.23045E-002	-1.04564E-003	-1.37385E-003	2.29557E-002	-1.51214E-003
	229	229	1.10096E+000	3.43634E-002	0.00000E+000	3.78328E-002	3.42795E-001	3.35276E-002	4.00190E+001	11	...........	5.60533E-002	-4.26014E-003	5.70035E-001	6.42407E-001	-3.01292E-002	-3.95631E-002	6.60963E-001	-4.35389E-002	1.92618E-003	-1.46393E-004	1.95884E-002	2.20753E-002	-1.03534E-003	-1.35952E-003	2.27129E-002	-1.49614E-003
	230	230	1.10093E+000	3.45513E-002	0.00000E+000	3.80388E-002	3.44664E-001	3.34613E-002	4.16686E+001	11	...........	5.59386E-002	-4.17306E-003	5.70097E-001	6.42427E-001	-3.00824E-002	-3.95764E-002	6.60940E-001	-4.35447E-002	1.93275E-003	-1.44185E-004	1.96976E-002	2.21967E-002	-1.03939E-003	-1.36742E-003	2.28364E-002	-1.50453E-003
	231	231	1.10103E+000	3.43712E-002	0.00000E+000	3.78438E-002	3.42873E-001	3.36487E-002	3.99331E+001	11	...........	5.62660E-002	-4.24750E-003	5.70243E-001	6.42640E-001	-3.00756E-002	-3.95568E-002	6.60917E-001	-4.36840E-002	1.93393E-003	-1.45992E-004	1.95999E-002	2.20883E-002	-1.03373E-003	-1.35962E-003	2.27165E-002	-1.50147E-003
	232	232	1.10096E+000	3.40898E-002	0.00000E+000	3.75316E-002	3.40077E-001	3.36903E-002	4.16887E+001	11	...........	5.63618E-002	-4.24917E-003	5.70087E-001	6.42649E-001	-3.01075E-002	-3.95353E-002	6.60973E-001	-4.37362E-002	1.92136E-003	-1.44853E-004	1.94342E-002	2.19078E-002	-1.02636E-003	-1.34775E-003	2.25324E-002	-1.49096E-003
	233	233	1.10094E+000	3.42941E-002	0.00000E+000	3.77556E-002	3.42108E-001	3.35794E-002	4.17004E+001	11	...........	5.61514E-002	-4.28014E-003	5.70070E-001	6.42624E-001	-3.01076E-002	-3.95518E-002	6.61004E-001	-4.35757E-002	1.92566E-003	-1.46783E-004	1.95500E-002	2.20382E-002	-1.03251E-003	-1.35639E-003	2.26685E-002	-1.49439E-003
	234	234	1.10103E+000	3.40922E-002	0.00000E+000	3.75366E-002	3.40103E-001	3.35081E-002	3.96066E+001	11	...........	5.60412E-002	-4.13069E-003	5.70155E-001	6.42776E-001	-3.01067E-002	-3.95429E-002	6.60978E-001	-4.36636E-002	1.91057E-003	-1.40825E-004	1.94379E-002	2.19137E-002	-1.02640E-003	-1.34811E-003	2.25342E-002	-1.48859E-003
	235	235	1.10096E+000	3.37753E-002	0.00000E+000	3.71854E-002	3.36951E-001	3.35758E-002	4.06943E+001	11	...........	5.61681E-002	-4.24375E-003	5.69948E-001	6.42879E-001	-3.01440E-002	-3.95074E-002	6.61045E-001	-4.36087E-002	1.89709E-003	-1.43334E-004	1.92502E-002	2.17134E-002	-1.01812E-003	-1.33437E-003	2.23270E-002	-1.47290E-003
	236	236	1.10094E+000	3.39368E-002	0.00000E+000	3.73623E-002	3.38558E-001	3.32732E-002	4.15834E+001	11	...........	5.56347E-002	-4.19222E-003	5.69852E-001	6.42923E-001	-3.01474E-002	-3.95390E-002	6.61158E-001	-4.35426E-002	1.88807E-003	-1.42271E-004	1.93390E-002	2.18188E-002	-1.02311E-003	-1.34183E-003	2.24376E-002	-1.47770E-003
	237	237	1.10102E+000	3.38014E-002	0.00000E+000	3.72162E-002	3.37210E-001	3.33179E-002	4.12554E+001	11	...........	5.57206E-002	-4.28611E-003	5.69913E-001	6.43095E-001	-3.00700E-002	-3.95461E-002	6.61126E-001	-4.36999E-002	1.88343E-003	-1.44877E-004	1.92639E-002	2.17375E-002	-1.01641E-003	-1.33671E-003	2.23470E-002	-1.47712E-003
	238	238	1.10097E+000	3.34960E-002	0.00000E+000	3.68781E-002	3.34179E-001	3.37524E-002	4.12097E+001	11	...........	5.64386E-002	-4.28417E-003	5.69896E-001	6.43227E-001	-3.01165E-002	-3.95422E-002	6.61057E-001	-4.35257E-002	1.89047E-003	-1.43502E-004	1.90892E-002	2.15455E-002	-1.00878E-003	-1.32451E-003	2.21428E-002	-1.45794E-003
	239	239	1.10093E+000	3.36643E-002	0.00000E+000	3.70622E-002	3.35847E-001	3.34495E-002	4.11341E+001	11	...........	5.59400E-002	-4.17875E-003	5.69942E-001	6.43110E-001	-3.01085E-002	-3.95856E-002	6.61138E-001	-4.34646E-002	1.88318E-003	-1.40675E-004	1.91867E-002	2.16498E-002	-1.01358E-003	-1.33262E-003	2.22567E-002	-1.46320E-003
	240	240	1.10102E+000	3.35802E-002	0.00000E+000	3.69726E-002	3.35016E-001	3.35167E-002	4.02763E+001	11	...........	5.60449E-002	-4.19889E-003	5.69777E-001	6.43114E-001	-3.00932E-002	-3.95854E-002	6.61133E-001	-4.34667E-002	1.88200E-003	-1.41000E-004	1.91333E-002	2.15959E-002	-1.01054E-003	-1.32929E-003	2.22010E-002	-1.45962E-003
	241	241	1.10097E+000	3.31836E-002	0.00000E+000	3.65342E-002	3.31067E-001	3.34538E-002	4.19884E+001	11	...........	5.59529E-002	-4.42042E-003	5.69667E-001	6.43190E-001	-3.01497E-002	-3.96006E-002	6.61106E-001	-4.34629E-002	1.85672E-003	-1.46686E-004	1.89036E-002	2.13434E-002	-1.00048E-003	-1.31409E-003	2.19379E-002	-1.44226E-003
	242	242	1.10094E+000	3.34133E-002	0.00000E+000	3.67859E-002	3.33351E-001	3.34974E-002	4.00170E+001	11	...........	5.60079E-002	-4.44903E-003	5.69538E-001	6.43283E-001	-3.01121E-002	-3.95897E-002	6.61026E-001	-4.36457E-002	1.87141E-003	-1.48657E-004	1.90302E-002	2.14942E-002	-1.00614E-003	-1.32282E-003	2.20870E-002	-1.45835E-003
	243	243	1.10102E+000	3.32941E-002	0.00000E+000	3.66574E-002	3.32166E-001	3.32815E-002	4.13615E+001	11	...........	5.56736E-002	-4.40403E-003	5.69409E-001	6.43110E-001	-3.01199E-002	-3.95467E-002	6.61149E-001	-4.35997E-002	1.85360E-003	-1.46628E-004	1.89580E-002	2.14118E-002	-1.00281E-003	-1.31667E-003	2.20124E-002	-1.45161E-003
	244	244	1.10098E+000	3.28928E-002	0.00000E+000	3.62142E-002	3.28175E-001	3.31938E-002	4.13216E+001	11	...........	5.61162E-002	-4.45181E-003	5.69423E-001	6.43070E-001	-3.01303E-002	-3.95392E-002	6.61254E-001	-4.34661E-002	1.84582E-003	-1.46432E-004	1.87299E-002	2.11524E-002	-9.91068E-004	-1.30055E-003	2.17505E-002	-1.42972E-003
	245	245	1.10094E+000	3.30892E-002	0.00000E+000	3.64291E-002	3.30127E-001	3.34018E-002	4.03470E+001	11	...........	5.58615E-002	-4.31681E-003	5.69379E-001	6.43011E-001	-3.01403E-002	-3.95672E-002	6.61059E-001	-4.36200E-002	1.84841E-003	-1.42840E-004	1.88403E-002	2.12767E-002	-9.97317E-004	-1.30925E-003	2.18739E-002	-1.44335E-003
	246	246	1.10101E+000	3.29901E-002	0.00000E+000	3.63225E-002	3.29136E-001	3.32169E-002	4.00524E+001	11	...........	5.55692E-002	-4.27375E-003	5.69288E-001	6.43021E-001	-3.01822E-002	-3.95647E-002	6.61001E-001	-4.36043E-002	1.83323E-003	-1.40991E-004	1.87809E-002	2.12133E-002	-9.95715E-004	-1.30524E-003	2.18065E-002	-1.43851E-003
	247	247	1.10098E+000	3.26630E-002	0.00000E+000	3.59614E-002	3.25888E-001	3.33764E-002	4.10123E+001	11	...........	5.58458E-002	-4.36431E-003	5.69378E-001	6.43084E-001	-3.01428E-002	-3.95692E-002	6.61069E-001	-4.34544E-002	1.82409E-003	-1.42551E-004	1.85976E-002	2.10050E-002	-9.84554E-004	-1.29245E-003	2.15925E-002	-1.41935E-003
	248	248	1.10093E+000	3.27709E-002	0.00000E+000	3.60786E-002	3.26956E-001	3.32879E-002	4.12074E+001	11	...........	5.56676E-002	-4.40889E-003	5.69436E-001	6.43233E-001	-3.01374E-002	-3.95862E-002	6.61080E-001	-4.36111E-002	1.82428E-003	-1.44483E-004	1.86609E-002	2.10793E-002	-9.87629E-004	-1.29728E-003	2.16642E-002	-1.42918E-003
	249	249	1.10101E+000	3.27556E-002	0.00000E+000	3.60643E-002	3.26805E-001	3.35117E-002	4.05269E+001	11	...........	5.60342E-002	-4.33542E-003	5.69369E-001	6.43090E-001	-3.01642E-002	-3.96174E-002	6.60998E-001	-4.36442E-002	1.83543E-003	-1.42009E-004	1.86500E-002	2.10648E-002	-9.88046E-004	-1.29769E-003	2.16514E-002	-1.42959E-003
	250	250	1.10098E+000	3.23989E-002	0.00000E+000	3.56707E-002	3.23260E-001	3.31266E-002	4.14365E+001	11	...........	5.54212E-002	-4.32083E-003	5.69101E-001	6.43029E-001	-3.01153E-002	-3.96036E-002	6.61095E-001	-4.37522E-002	1.79559E-003	-1.39990E-004	1.84383E-002	2.08335E-002	-9.75703E-004	-1.28311E-003	2.14188E-002	-1.41753E-003
	251	251	1.10093E+000	3.25306E-002	0.00000E+000	3.58139E-002	3.24568E-001	3.32422E-002	4.09861E+001	11	...........	5.56081E-002	-4.37153E-003	5.69201E-001	6.42980E-001	-3.01419E-002	-3.95825E-002	6.61187E-001	-4.36419E-002	1.80896E-003	-1.42208E-004	1.85164E-002	2.09165E-002	-9.80534E-004	-1.28764E-003	2.15088E-002	-1.41970E-003
	252	252	1.10101E+000	3.24897E-002	0.00000E+000	3.57714E-002	3.24159E-001	3.33426E-002	4.17527E+001	11	...........	5.57362E-002	-4.40653E-003	5.69206E-001	6.43026E-001	-3.01624E-002	-3.95868E-002	6.61178E-001	-4.37146E-002	1.81086E-003	-1.43167E-004	1.84934E-002	2.08917E-002	-9.79967E-004	-1.28616E-003	2.14815E-002	-1.42028E-003
	253	253	1.10099E+000	3.21309E-002	0.00000E+000	3.53758E-002	3.20595E-001	3.34119E-002	4.20782E+001	11	...........	5.58869E-002	-4.46444E-003	5.69317E-001	6.43048E-001	-3.01268E-002	-3.96371E-002	6.61013E-001	-4.35599E-002	1.79570E-003	-1.43447E-004	1.82927E-002	2.06617E-002	-9.68002E-004	-1.27358E-003	2.12390E-002	-1.39962E-003
	254	254	1.10093E+000	3.22688E-002	0.00000E+000	3.55257E-002	3.21963E-001	3.32318E-002	4.12859E+001	11	...........	5.55853E-002	-4.49069E-003	5.69249E-001	6.42903E-001	-3.01881E-002	-3.96399E-002	6.61071E-001	-4.35749E-002	1.79367E-003	-1.44909E-004	1.83690E-002	2.07457E-002	-9.74132E-004	-1.27913E-003	2.13320E-002	-1.40611E-003
	255	255	1.10101E+000	3.22161E-002	0.00000E+000	3.54702E-002	3.21437E-001	3.32925E-002	4.12674E+001	11	...........	5.56917E-002	-4.35514E-003	5.69277E-001	6.42965E-001	-3.01415E-002	-3.96383E-002	6.61095E-001	-4.35229E-002	1.79417E-003	-1.40306E-004	1.83399E-002	2.07138E-002	-9.71043E-004	-1.27699E-003	2.12979E-002	-1.40214E-003
	256	256	1.10099E+000	3.18093E-002	0.00000E+000	3.50218E-002	3.17395E-001	3.28117E-002	4.09579E+001	11	...........	5.48671E-002	-4.33444E-003	5.69280E-001	6.42968E-001	-3.01392E-002	-3.96481E-002	6.61096E-001	-4.34779E-002	1.74528E-003	-1.37876E-004	1.81084E-002	2.04524E-002	-9.58705E-004	-1.26118E-003	2.10290E-002	-1.38300E-003
	257	257	1.10093E+000	3.20277E-002	0.00000E+000	3.52602E-002	3.19566E-001	3.36707E-002	4.18303E+001	11	...........	5.63201E-002	-4.29181E-003	5.69373E-001	6.42892E-001	-3.01487E-002	-3.96774E-002	6.61200E-001	-4.34897E-002	1.80380E-003	-1.37457E-004	1.82357E-002	2.05904E-002	-9.65595E-004	-1.27077E-003	2.11767E-002	-1.39288E-003
	258	258	1.10100E+000	3.19164E-002	0.00000E+000	3.51401E-002	3.18465E-001	3.32246E-002	4.24507E+001	11	...........	5.55621E-002	-4.26347E-003	5.69346E-001	6.42918E-001	-3.01029E-002	-3.96500E-002	6.61155E-001	-4.33183E-002	1.77334E-003	-1.36075E-004	1.81715E-002	2.05196E-002	-9.60777E-004	-1.26549E-003	2.11017E-002	-1.38257E-003
	259	259	1.10100E+000	3.15275E-002	0.00000E+000	3.47117E-002	3.14600E-001	3.31515E-002	4.13955E+001	11	...........	5.54272E-002	-4.34583E-003	5.69282E-001	6.42939E-001	-3.01057E-002	-3.96207E-002	6.61209E-001	-4.33675E-002	1.74748E-003	-1.37013E-004	1.79481E-002	2.02703E-002	-9.49158E-004	-1.24914E-003	2.08463E-002	-1.36727E-003
	260	260	1.10092E+000	3.17602E-002	0.00000E+000	3.49655E-002	3.16913E-001	3.34063E-002	4.11749E+001	11	...........	5.58743E-002	-4.38069E-003	5.69110E-001	6.43039E-001	-3.00871E-002	-3.96383E-002	6.61275E-001	-4.34919E-002	1.77458E-003	-1.39132E-004	1.80750E-002	2.04230E-002	-9.55570E-004	-1.25892E-003	2.10022E-002	-1.38131E-003
	261	261	1.10100E+000	3.16795E-002	0.00000E+000	3.48792E-002	3.16110E-001	3.29072E-002	4.14236E+001	11	...........	5.50453E-002	-4.39069E-003	5.69175E-001	6.43120E-001	-3.00789E-002	-3.96472E-002	6.61080E-001	-4.34137E-002	1.74381E-003	-1.39095E-004	1.80312E-002	2.03737E-002	-9.52884E-004	-1.25600E-003	2.09427E-002	-1.37533E-003
	262	262	1.10100E+000	3.12981E-002	0.00000E+000	3.44593E-002	3.12318E-001	3.33624E-002	4.16819E+001	11	...........	5.57939E-002	-4.29000E-003	5.69346E-001	6.43020E-001	-3.01046E-002	-3.96021E-002	6.60981E-001	-4.33144E-002	1.74624E-003	-1.34269E-004	1.78195E-002	2.01253E-002	-9.42216E-004	-1.23947E-003	2.06875E-002	-1.35566E-003
	263	263	1.10093E+000	3.14812E-002	0.00000E+000	3.46585E-002	3.14134E-001	3.31318E-002	4.19318E+001	11	...........	5.54176E-002	-4.30042E-003	5.69225E-001	6.42923E-001	-3.01396E-002	-3.96418E-002	6.60986E-001	-4.33442E-002	1.74461E-003	-1.35382E-004	1.79199E-002	2.02400E-002	-9.48831E-004	-1.24797E-003	2.08086E-002	-1.36453E-003
	264	264	1.10100E+000	3.14421E-002	0.00000E+000	3.46176E-002	3.13741E-001	3.30054E-002	4.18620E+001	11	...........	5.52108E-002	-4.30125E-003	5.69163E-001	6.42901E-001	-3.01397E-002	-3.96828E-002	6.60949E-001	-4.33236E-002	1.73595E-003	-1.35240E-004	1.78957E-002	2.02142E-002	-9.47657E-004	-1.24771E-003	2.07816E-002	-1.36219E-003
	265	265	1.10101E+000	3.10315E-002	0.00000E+000	3.41659E-002	3.09663E-001	3.32102E-002	4.07952E+001	11	...........	5.55383E-002	-4.39431E-003	5.69230E-001	6.42930E-001	-3.01326E-002	-3.96347E-002	6.61047E-001	-4.33539E-002	1.72344E-003	-1.36362E-004	1.76641E-002	1.99511E-002	-9.35062E-004	-1.22993E-003	2.05133E-002	-1.34534E-003
	266	266	1.10093E+000	3.12220E-002	0.00000E+000	3.43731E-002	3.11557E-001	3.32475E-002	4.26215E+001	11	...........	5.55874E-002	-4.36611E-003	5.69046E-001	6.43090E-001	-3.01560E-002	-3.95956E-002	6.60957E-001	-4.33614E-002	1.73555E-003	-1.36319E-004	1.77668E-002	2.00786E-002	-9.41530E-004	-1.23625E-003	2.06364E-002	-1.35383E-003
	267	267	1.10099E+000	3.11630E-002	0.00000E+000	3.43103E-002	3.10968E-001	3.30080E-002	4.04072E+001	11	...........	5.52040E-002	-4.35653E-003	5.69153E-001	6.43170E-001	-3.01682E-002	-3.96194E-002	6.60866E-001	-4.34406E-002	1.72032E-003	-1.35763E-004	1.77365E-002	2.00431E-002	-9.40132E-004	-1.23466E-003	2.05946E-002	-1.35374E-003
	268	268	1.10101E+000	3.08186E-002	0.00000E+000	3.39316E-002	3.07542E-001	3.30662E-002	4.15003E+001	11	...........	5.53249E-002	-4.32917E-003	5.69178E-001	6.43165E-001	-3.01442E-002	-3.95844E-002	6.60900E-001	-4.34093E-002	1.70503E-003	-1.33419E-004	1.75413E-002	1.98214E-002	-9.29001E-004	-1.21994E-003	2.03680E-002	-1.33781E-003
	269	269	1.10093E+000	3.09298E-002	0.00000E+000	3.40514E-002	3.08646E-001	3.32571E-002	4.21234E+001	11	...........	5.56251E-002	-4.34458E-003	5.69393E-001	6.43186E-001	-3.01294E-002	-3.95961E-002	6.60935E-001	-4.34201E-002	1.72047E-003	-1.34377E-004	1.76112E-002	1.98936E-002	-9.31898E-004	-1.22470E-003	2.04426E-002	-1.34298E-003
	270	270	1.10099E+000	3.09540E-002	0.00000E+000	3.40801E-002	3.08890E-001	3.31512E-002	4.11716E+001	11	...........	5.54472E-002	-4.25569E-003	5.69485E-001	6.43266E-001	-3.01224E-002	-3.95803E-002	6.60862E-001	-4.34672E-002	1.71632E-003	-1.31731E-004	1.76279E-002	1.99117E-002	-9.32409E-004	-1.22517E-003	2.04564E-002	-1.34549E-003
	271	271	1.10101E+000	3.05452E-002	0.00000E+000	3.36307E-002	3.04826E-001	3.29357E-002	4.00907E+001	11	...........	5.50433E-002	-4.50569E-003	5.69368E-001	6.43308E-001	-3.01321E-002	-3.96524E-002	6.60923E-001	-4.34512E-002	1.68131E-003	-1.37627E-004	1.73915E-002	1.96500E-002	-9.20391E-004	-1.21119E-003	2.01880E-002	-1.32723E-003
	272	272	1.10092E+000	3.06972E-002	0.00000E+000	3.37953E-002	3.06340E-001	3.33175E-002	4.19507E+001	11	...........	5.57236E-002	-4.46000E-003	5.69209E-001	6.43353E-001	-3.01151E-002	-3.96589E-002	6.60894E-001	-4.34656E-002	1.71056E-003	-1.36910E-004	1.74731E-002	1.97492E-002	-9.24452E-004	-1.21742E-003	2.02876E-002	-1.33427E-003
	273	273	1.10099E+000	3.07155E-002	0.00000E+000	3.38174E-002	3.06522E-001	3.28964E-002	4.17753E+001	11	...........	5.50276E-002	-4.41667E-003	5.69233E-001	6.43339E-001	-3.00940E-002	-3.96469E-002	6.60939E-001	-4.35581E-002	1.69020E-003	-1.35660E-004	1.74843E-002	1.97605E-002	-9.24353E-004	-1.21778E-003	2.03011E-002	-1.33791E-003
	274	274	1.10102E+000	3.01963E-002	0.00000E+000	3.32467E-002	3.01361E-001	3.29080E-002	3.97934E+001	11	...........	5.50468E-002	-4.41583E-003	5.69316E-001	6.43417E-001	-3.01132E-002	-3.96308E-002	6.60876E-001	-4.35924E-002	1.66221E-003	-1.33342E-004	1.71913E-002	1.94288E-002	-9.09308E-004	-1.19671E-003	1.99560E-002	-1.31633E-003
	275	275	1.10093E+000	3.04106E-002	0.00000E+000	3.34798E-002	3.03493E-001	3.33015E-002	3.88023E+001	11	...........	5.56696E-002	-4.45681E-003	5.69247E-001	6.43428E-001	-3.01310E-002	-3.96244E-002	6.60926E-001	-4.35357E-002	1.69295E-003	-1.35534E-004	1.73112E-002	1.95671E-002	-9.16302E-004	-1.20500E-003	2.00992E-002	-1.32395E-003
	276	276	1.10098E+000	3.04431E-002	0.00000E+000	3.35174E-002	3.03811E-001	3.31291E-002	4.17957E+001	11	...........	5.54000E-002	-4.50319E-003	5.69179E-001	6.43334E-001	-3.01260E-002	-3.96353E-002	6.61082E-001	-4.34562E-002	1.68655E-003	-1.37091E-004	1.73276E-002	1.95851E-002	-9.17128E-004	-1.20662E-003	2.01254E-002	-1.32294E-003
	277	277	1.10102E+000	3.00414E-002	0.00000E+000	3.30762E-002	2.99820E-001	3.27788E-002	4.03564E+001	11	...........	5.48289E-002	-4.45500E-003	5.69116E-001	6.43283E-001	-3.01082E-002	-3.96399E-002	6.60956E-001	-4.33719E-002	1.64714E-003	-1.33835E-004	1.70971E-002	1.93252E-002	-9.04493E-004	-1.19084E-003	1.98561E-002	-1.30296E-003
	278	278	1.10093E+000	3.01543E-002	0.00000E+000	3.31977E-002	3.00944E-001	3.30857E-002	3.98558E+001	11	...........	5.53218E-002	-4.39972E-003	5.69012E-001	6.43365E-001	-3.01417E-002	-3.96224E-002	6.60918E-001	-4.34235E-002	1.66819E-003	-1.32671E-004	1.71582E-002	1.94002E-002	-9.08902E-004	-1.19479E-003	1.99295E-002	-1.30941E-003
	279	279	1.10098E+000	3.01852E-002	0.00000E+000	3.32334E-002	3.01250E-001	3.29407E-002	4.08645E+001	11	...........	5.50647E-002	-4.41625E-003	5.68978E-001	6.43457E-001	-3.01772E-002	-3.95808E-002	6.60926E-001	-4.34143E-002	1.66214E-003	-1.33305E-004	1.71747E-002	1.94229E-002	-9.10905E-004	-1.19476E-003	1.99502E-002	-1.31047E-003
	280	280	1.10102E+000	2.98653E-002	0.00000E+000	3.28823E-002	2.98071E-001	3.31957E-002	4.23163E+001	11	...........	5.55256E-002	-4.52500E-003	5.68765E-001	6.43301E-001	-3.01687E-002	-3.96069E-002	6.60957E-001	-4.33693E-002	1.65829E-003	-1.35140E-004	1.69863E-002	1.92124E-002	-9.00999E-004	-1.18287E-003	1.97397E-002	-1.29524E-003
	281	281	1.10092E+000	2.98944E-002	0.00000E+000	3.29114E-002	2.98361E-001	3.26433E-002	4.08660E+001	11	...........	5.45997E-002	-4.44778E-003	5.68612E-001	6.43243E-001	-3.01681E-002	-3.96114E-002	6.60816E-001	-4.34054E-002	1.63222E-003	-1.32964E-004	1.69983E-002	1.92293E-002	-9.01855E-004	-1.18416E-003	1.97547E-002	-1.29758E-003
	282	282	1.10098E+000	2.99497E-002	0.00000E+000	3.29741E-002	2.98908E-001	3.32292E-002	3.99830E+001	11	...........	5.55747E-002	-4.38375E-003	5.68660E-001	6.42968E-001	-3.01404E-002	-3.96228E-002	6.60882E-001	-4.35433E-002	1.66445E-003	-1.31292E-004	1.70312E-002	1.92567E-002	-9.02696E-004	-1.18669E-003	1.97932E-002	-1.30411E-003
	283	283	1.10102E+000	2.96453E-002	0.00000E+000	3.26402E-002	2.95884E-001	3.29070E-002	4.24291E+001	11	...........	5.50551E-002	-4.31833E-003	5.68698E-001	6.42875E-001	-3.01658E-002	-3.96314E-002	6.60896E-001	-4.35301E-002	1.63212E-003	-1.28018E-004	1.68592E-002	1.90582E-002	-8.94274E-004	-1.17488E-003	1.95924E-002	-1.29046E-003
	284	284	1.10092E+000	2.96934E-002	0.00000E+000	3.26902E-002	2.96356E-001	3.28595E-002	3.97632E+001	11	...........	5.49467E-002	-4.33764E-003	5.68700E-001	6.42844E-001	-3.01971E-002	-3.96560E-002	6.60903E-001	-4.34389E-002	1.63155E-003	-1.28799E-004	1.68866E-002	1.90882E-002	-8.96654E-004	-1.17752E-003	1.96244E-002	-1.28985E-003
	285	285	1.10098E+000	2.96574E-002	0.00000E+000	3.26521E-002	2.95999E-001	3.27684E-002	4.01517E+001	11	...........	5.47993E-002	-4.27847E-003	5.68544E-001	6.42753E-001	-3.02151E-002	-3.96711E-002	6.60926E-001	-4.33064E-002	1.62520E-003	-1.26888E-004	1.68615E-002	1.90624E-002	-8.96102E-004	-1.17654E-003	1.96013E-002	-1.28435E-003
	286	286	1.10103E+000	2.94341E-002	0.00000E+000	3.24078E-002	2.93778E-001	3.31049E-002	4.25173E+001	11	...........	5.53653E-002	-4.43236E-003	5.68439E-001	6.42658E-001	-3.01899E-002	-3.96799E-002	6.60990E-001	-4.34219E-002	1.62963E-003	-1.30463E-004	1.67315E-002	1.89161E-002	-8.88612E-004	-1.16794E-003	1.94557E-002	-1.27809E-003
	287	287	1.10092E+000	2.94536E-002	0.00000E+000	3.24262E-002	2.93974E-001	3.30169E-002	4.08280E+001	11	...........	5.52132E-002	-4.41694E-003	5.68457E-001	6.42686E-001	-3.01621E-002	-3.97143E-002	6.61090E-001	-4.35222E-002	1.62623E-003	-1.30095E-004	1.67431E-002	1.89294E-002	-8.88383E-004	-1.16973E-003	1.94715E-002	-1.28189E-003
	288	288	1.10097E+000	2.94843E-002	0.00000E+000	3.24614E-002	2.94278E-001	3.27078E-002	4.10701E+001	11	...........	5.46994E-002	-4.25319E-003	5.68238E-001	6.42711E-001	-3.01276E-002	-3.97279E-002	6.60929E-001	-4.37635E-002	1.61278E-003	-1.25402E-004	1.67541E-002	1.89499E-002	-8.88293E-004	-1.17135E-003	1.94870E-002	-1.29034E-003
	289	289	1.10103E+000	2.91346E-002	0.00000E+000	3.20782E-002	2.90810E-001	3.29777E-002	4.22920E+001	11	...........	5.51749E-002	-4.34778E-003	5.68398E-001	6.42582E-001	-3.01178E-002	-3.97176E-002	6.60995E-001	-4.36126E-002	1.60750E-003	-1.26671E-004	1.65601E-002	1.87214E-002	-8.77469E-004	-1.15716E-003	1.92578E-002	-1.27064E-003
	290	290	1.10092E+000	2.92011E-002	0.00000E+000	3.21482E-002	2.91472E-001	3.29942E-002	4.06914E+001	11	...........	5.51978E-002	-4.47292E-003	5.68418E-001	6.42622E-001	-3.01131E-002	-3.96900E-002	6.61094E-001	-4.34608E-002	1.61184E-003	-1.30614E-004	1.65985E-002	1.87653E-002	-8.79336E-004	-1.15899E-003	1.93047E-002	-1.26911E-003
	291	291	1.10097E+000	2.92228E-002	0.00000E+000	3.21735E-002	2.91687E-001	3.27543E-002	4.20139E+001	11	...........	5.47975E-002	-4.28292E-003	5.68295E-001	6.42564E-001	-3.01033E-002	-3.96714E-002	6.61156E-001	-4.34199E-002	1.60134E-003	-1.25159E-004	1.66072E-002	1.87775E-002	-8.79704E-004	-1.15931E-003	1.93208E-002	-1.26885E-003
	292	291.8	1.10105E+000	2.89376E-002	0.00000E+000	3.18618E-002	2.88853E-001	3.29240E-002	4.15270E+001	11	...........	5.50712E-002	-4.30382E-003	5.68341E-001	6.42573E-001	-3.00964E-002	-3.96549E-002	6.61120E-001	-4.33590E-002	1.59363E-003	-1.24542E-004	1.64464E-002	1.85945E-002	-8.70915E-004	-1.14751E-003	1.91312E-002	-1.25470E-003
STARTTIMEOFFSET	QUANT	366180.2	Start Time Offset (s)
