EXPLAIN
TAG	PWR800_CHARGE
TITLE	LABEL	PWR Charge	Test Identifier
DATE	LABEL	10/14/2022	Date
TIME	LABEL	15:44:54	Time
NOTES	NOTES	1	Notes...
	
PSTAT	PSTAT	REF3000-21114	Potentiostat
CAPACITY	QUANT	5.30000E-002	Capacity (A-hr)
CELLTYPE	SELECTOR	1	Cell Type
WORKINGCONNECTION	SELECTOR	0	Working Connection
MAXCHARGETIME	VARIABLEANDUNITS	7.20000E+003	s	2.00000E+000	hour(s)	Max Charge Time
CHARGEMODE	MULTIPARAM	0	1.00000E-001	Charge Mode	Constant Current	Amp(s)
CHARGECURRENT	QUANT	0.1	Charge Current (A)
VOLTAGEFINISH	TWOPARAM	T	2.50000E-002	7.20000E+003	Voltage Finish	I (A) <	Max Time(s)
SAMPLETIME	QUANT	1.00000E+000	Sample Period (s)
CHARGESTOPAT1	MULTIPARAM	2	1.10000E+000	Stop At 1	|Voltage| > Limit	V
CHARGESTOPAT2	MULTIPARAM	0	0.00000E+000	Stop At 2	None	N/A
AESELECTOR	AESELECTOR	0x1	T	Set Limits	AE Channels
AESBHCSELECTOR	TOGGLE	F	Save Both Half Cells
IRCOMP	TOGGLE	F	IR Measure
EOC	QUANT	0.2360832	Open Circuit (V)
SEQUENCER	TOGGLE	TRUE	Run as Sequence
PSTATMODEL	IQUANT	5	Pstat Model
PSTATSECTION	LABEL	REF3000-21114	Pstat Section
PSTATSERIALNO	LABEL	21114	Pstat Serial Number
CTRLMODE	IQUANT	0	Control Mode
ELECTROMETER	IQUANT	0	RE=0 or CS=1
IESTAB	IQUANT	0	I/E Stability
CASPEED	IQUANT	4	Control Amp Speed
CONVENTION	IQUANT	1	Current Convention
ICHRANGE	IQUANT	2	Ich Range
ICHRANGEMODE	TOGGLE	T	Ich Auto Range
ICHOFFSETENABLE	TOGGLE	F	Ich Offset Enable
ICHOFFSET	QUANT	0	Ich Offset (V)
ICHFILTER	IQUANT	1	Ich Filter
VCHRANGE	IQUANT	3	Vch Range
VCHRANGEMODE	TOGGLE	T	Vch Auto Range
VCHOFFSETENABLE	TOGGLE	F	Vch Offset Enable
VCHOFFSET	QUANT	0	Vch Offset (V)
VCHFILTER	IQUANT	1	Vch Filter
ACHRANGE	IQUANT	2	Ach Range
ACHOFFSETENABLE	TOGGLE	F	Ach Offset Enable
ACHOFFSET	QUANT	0	Ach Offset (V)
ACHFILTER	IQUANT	1	Ach Filter
IERANGELOWERLIMIT	IQUANT	9	I/E Range Lower Limit
IERANGEMODE	TOGGLE	F	I/E AutoRange
IERANGE	IQUANT	9	I/E Range
POSFEEDENABLE	TOGGLE	F	Positive Feedback IR Comp
POSFEEDRESISTANCE	QUANT	0	Positive Feedback Resistance (ohm)
ACHSELECT	IQUANT	1	Ach Select
SENSECABLEID	IQUANT	13	Sense Cable ID
PWRCABLEID	IQUANT	13	Power Cable ID
DCCALDATE	LABEL		DC Calibration Date
ACCALDATE	LABEL		AC Calibration Date
THERMOSELECT	IQUANT	1	Thermo Select
FRAMEWORKVERSION	LABEL	7.8.6	Framework Version
INSTRUMENTVERSION	LABEL	4.50	Instrument Version
COMPLIANCEVOLTAGE	IQUANT	0	Compliance Voltage
CURVE	TABLE	206
	Pt	T	Vf	Im	Vu	Pwr	Sig	Ach	Temp	IERange	Over	Vf1	Vf2	Vf3	Vf4	Vf5	Vf6	Vf7	Vf8	Pwr1	Pwr2	Pwr3	Pwr4	Pwr5	Pwr6	Pwr7	Pwr8
	#	s	V	A	V	W	V	V	deg C	#	bits	V	V	V	V	V	V	V	V	W	W	W	W	W	W	W	W
	0	1	5.07514E-001	9.98413E-002	0.00000E+000	5.06709E-002	9.94000E-001	4.19894E-002	4.21035E+001	11	...........	6.95986E-002	-5.36514E-003	6.09113E-001	5.33637E-001	-2.56944E-002	-3.68349E-002	7.08376E-001	-4.38336E-002	6.94882E-003	-5.35662E-004	6.08146E-002	5.32790E-002	-2.56537E-003	-3.67764E-003	7.07252E-002	-4.37640E-003
	1	2	6.50083E-001	9.98414E-002	0.00000E+000	6.49052E-002	9.94000E-001	4.25048E-002	4.45862E+001	11	...........	7.04712E-002	-5.45917E-003	6.08974E-001	5.33533E-001	-2.57158E-002	-3.68421E-002	7.08311E-001	-4.38665E-002	7.03595E-003	-5.45051E-004	6.08008E-002	5.32687E-002	-2.56751E-003	-3.67837E-003	7.07188E-002	-4.37970E-003
	2	3	8.94150E-001	9.98420E-002	0.00000E+000	8.92738E-002	9.94000E-001	4.29617E-002	4.74297E+001	11	...........	7.11849E-002	-5.53292E-003	6.08988E-001	5.33531E-001	-2.57287E-002	-3.68528E-002	7.08365E-001	-4.38922E-002	7.10724E-003	-5.52418E-004	6.08026E-002	5.32689E-002	-2.56881E-003	-3.67946E-003	7.07246E-002	-4.38229E-003
	3	3.03167	1.09600E+000	9.98433E-002	0.00000E+000	1.09429E-001	9.94000E-001	4.34237E-002	5.34368E+001	11	...........	7.18947E-002	-5.64474E-003	6.09167E-001	5.33474E-001	-2.59605E-002	-3.67719E-002	7.08342E-001	-4.38114E-002	7.17821E-003	-5.63589E-004	6.08212E-002	5.32638E-002	-2.59198E-003	-3.67143E-003	7.07232E-002	-4.37427E-003
	4	4	1.10074E+000	7.07915E-002	0.00000E+000	7.79232E-002	7.05130E-001	4.32528E-002	5.24848E+001	11	...........	7.16245E-002	-5.78944E-003	6.09111E-001	5.33463E-001	-2.57405E-002	-3.68590E-002	7.08317E-001	-4.37996E-002	5.07041E-003	-4.09844E-004	4.31199E-002	3.77646E-002	-1.82221E-003	-2.60931E-003	5.01428E-002	-3.10064E-003
	5	5	1.10051E+000	5.69560E-002	0.00000E+000	6.26807E-002	5.67539E-001	4.29350E-002	5.15418E+001	11	...........	7.10965E-002	-5.63208E-003	6.08956E-001	5.33551E-001	-2.57514E-002	-3.68478E-002	7.08245E-001	-4.37143E-002	4.04937E-003	-3.20781E-004	3.46837E-002	3.03889E-002	-1.46670E-003	-2.09870E-003	4.03388E-002	-2.48979E-003
	6	6	1.10034E+000	5.24280E-002	0.00000E+000	5.76885E-002	5.22508E-001	4.27467E-002	5.00609E+001	11	...........	7.08156E-002	-5.37833E-003	6.08966E-001	5.33572E-001	-2.57461E-002	-3.68265E-002	7.08235E-001	-4.37415E-002	3.71271E-003	-2.81975E-004	3.19268E-002	2.79741E-002	-1.34982E-003	-1.93074E-003	3.71313E-002	-2.29328E-003
	7	7	1.10036E+000	5.04856E-002	0.00000E+000	5.55522E-002	5.03192E-001	4.30964E-002	4.98199E+001	11	...........	7.13679E-002	-5.29389E-003	6.09066E-001	5.33576E-001	-2.57586E-002	-3.68371E-002	7.08252E-001	-4.37183E-002	3.60305E-003	-2.67265E-004	3.07491E-002	2.69379E-002	-1.30044E-003	-1.85974E-003	3.57565E-002	-2.20715E-003
	8	8	1.10045E+000	4.88982E-002	0.00000E+000	5.38099E-002	4.87410E-001	4.28813E-002	5.08477E+001	11	...........	7.10474E-002	-5.19528E-003	6.08890E-001	5.33664E-001	-2.57412E-002	-3.68574E-002	7.08370E-001	-4.38579E-002	3.47409E-003	-2.54040E-004	2.97736E-002	2.60952E-002	-1.25870E-003	-1.80226E-003	3.46380E-002	-2.14457E-003
	9	9	1.10033E+000	4.77627E-002	0.00000E+000	5.25546E-002	4.76118E-001	4.29461E-002	5.11830E+001	11	...........	7.11576E-002	-5.26319E-003	6.08785E-001	5.33662E-001	-2.57260E-002	-3.68454E-002	7.08502E-001	-4.37306E-002	3.39868E-003	-2.51384E-004	2.90772E-002	2.54892E-002	-1.22874E-003	-1.75984E-003	3.38400E-002	-2.08869E-003
	10	10	1.10034E+000	4.74573E-002	0.00000E+000	5.22192E-002	4.73082E-001	4.28777E-002	4.90560E+001	11	...........	7.10221E-002	-5.23472E-003	6.08810E-001	5.33827E-001	-2.57557E-002	-3.68282E-002	7.08400E-001	-4.37178E-002	3.37052E-003	-2.48426E-004	2.88925E-002	2.53340E-002	-1.22230E-003	-1.74777E-003	3.36188E-002	-2.07473E-003
	11	11	1.10044E+000	4.67604E-002	0.00000E+000	5.14569E-002	4.66151E-001	4.27540E-002	5.06323E+001	11	...........	7.08256E-002	-5.17472E-003	6.08846E-001	5.33748E-001	-2.57499E-002	-3.68231E-002	7.08379E-001	-4.38024E-002	3.31183E-003	-2.41972E-004	2.84699E-002	2.49583E-002	-1.20407E-003	-1.72186E-003	3.31241E-002	-2.04822E-003
	12	12	1.10033E+000	4.61867E-002	0.00000E+000	5.08204E-002	4.60446E-001	4.29053E-002	4.97650E+001	11	...........	7.10754E-002	-5.22417E-003	6.08795E-001	5.33695E-001	-2.57443E-002	-3.68190E-002	7.08445E-001	-4.37596E-002	3.28274E-003	-2.41287E-004	2.81183E-002	2.46496E-002	-1.18905E-003	-1.70055E-003	3.27208E-002	-2.02111E-003
	13	13	1.10034E+000	4.62282E-002	0.00000E+000	5.08665E-002	4.60859E-001	4.27561E-002	5.01772E+001	11	...........	7.08443E-002	-5.30083E-003	6.08659E-001	5.33594E-001	-2.57374E-002	-3.68383E-002	7.08526E-001	-4.37589E-002	3.27500E-003	-2.45048E-004	2.81372E-002	2.46671E-002	-1.18979E-003	-1.70297E-003	3.27539E-002	-2.02289E-003
	14	14	1.10043E+000	4.58510E-002	0.00000E+000	5.04559E-002	4.57108E-001	4.28533E-002	4.98417E+001	11	...........	7.09940E-002	-5.32514E-003	6.08584E-001	5.33406E-001	-2.57274E-002	-3.68319E-002	7.08445E-001	-4.36367E-002	3.25514E-003	-2.44163E-004	2.79042E-002	2.44572E-002	-1.17962E-003	-1.68878E-003	3.24829E-002	-2.00078E-003
	15	15	1.10033E+000	4.54200E-002	0.00000E+000	4.99769E-002	4.52824E-001	4.27591E-002	5.06986E+001	11	...........	7.08472E-002	-5.21958E-003	6.08592E-001	5.33311E-001	-2.57069E-002	-3.68137E-002	7.08516E-001	-4.37578E-002	3.21788E-003	-2.37074E-004	2.76423E-002	2.42230E-002	-1.16761E-003	-1.67208E-003	3.21808E-002	-1.98748E-003
	16	16	1.10033E+000	4.55156E-002	0.00000E+000	5.00824E-002	4.53772E-001	4.27857E-002	5.04746E+001	11	...........	7.08978E-002	-5.28611E-003	6.08580E-001	5.33415E-001	-2.57100E-002	-3.68078E-002	7.08474E-001	-4.37994E-002	3.22695E-003	-2.40600E-004	2.76999E-002	2.42787E-002	-1.17021E-003	-1.67533E-003	3.22466E-002	-1.99356E-003
	17	17	1.10043E+000	4.52126E-002	0.00000E+000	4.97533E-002	4.50762E-001	4.26986E-002	4.79606E+001	11	...........	7.07442E-002	-5.28417E-003	6.08694E-001	5.33481E-001	-2.57136E-002	-3.68318E-002	7.08537E-001	-4.37374E-002	3.19853E-003	-2.38911E-004	2.75206E-002	2.41201E-002	-1.16258E-003	-1.66526E-003	3.20348E-002	-1.97748E-003
	18	18	1.10033E+000	4.47513E-002	0.00000E+000	4.92412E-002	4.46170E-001	4.24238E-002	4.83464E+001	11	...........	7.02957E-002	-5.16819E-003	6.08523E-001	5.33728E-001	-2.57407E-002	-3.68296E-002	7.08452E-001	-4.36953E-002	3.14583E-003	-2.31284E-004	2.72322E-002	2.38850E-002	-1.15193E-003	-1.64817E-003	3.17042E-002	-1.95542E-003
	19	19	1.10033E+000	4.49798E-002	0.00000E+000	4.94927E-002	4.48446E-001	4.29329E-002	5.05563E+001	11	...........	7.10993E-002	-5.26528E-003	6.08493E-001	5.33831E-001	-2.57347E-002	-3.68365E-002	7.08512E-001	-4.35707E-002	3.19803E-003	-2.36831E-004	2.73699E-002	2.40116E-002	-1.15754E-003	-1.65690E-003	3.18687E-002	-1.95980E-003
	20	20	1.10043E+000	4.46852E-002	0.00000E+000	4.91729E-002	4.45516E-001	4.24319E-002	5.02633E+001	11	...........	7.05850E-002	-5.21403E-003	6.08648E-001	5.33764E-001	-2.57379E-002	-3.68293E-002	7.08630E-001	-4.35806E-002	3.15411E-003	-2.32990E-004	2.71976E-002	2.38514E-002	-1.15010E-003	-1.64573E-003	3.16653E-002	-1.94741E-003
	21	21	1.10033E+000	4.42521E-002	0.00000E+000	4.86921E-002	4.41217E-001	4.23227E-002	5.03129E+001	11	...........	7.05900E-002	-5.23264E-003	6.08668E-001	5.33873E-001	-2.57142E-002	-3.68221E-002	7.08712E-001	-4.37014E-002	3.12375E-003	-2.31555E-004	2.69348E-002	2.36250E-002	-1.13791E-003	-1.62945E-003	3.13620E-002	-1.93388E-003
	22	22	1.10033E+000	4.44718E-002	0.00000E+000	4.89336E-002	4.43400E-001	4.22843E-002	4.85341E+001	11	...........	7.05199E-002	-5.32333E-003	6.08540E-001	5.33797E-001	-2.57157E-002	-3.68146E-002	7.08600E-001	-4.38865E-002	3.13615E-003	-2.36738E-004	2.70629E-002	2.37389E-002	-1.14362E-003	-1.63721E-003	3.15127E-002	-1.95171E-003
	23	23	1.10043E+000	4.42882E-002	0.00000E+000	4.87359E-002	4.41576E-001	4.24207E-002	4.83331E+001	11	...........	7.07442E-002	-5.27639E-003	6.08416E-001	5.33720E-001	-2.57131E-002	-3.68062E-002	7.08672E-001	-4.38833E-002	3.13313E-003	-2.33682E-004	2.69456E-002	2.36375E-002	-1.13878E-003	-1.63008E-003	3.13858E-002	-1.94351E-003
	24	24	1.10034E+000	4.38206E-002	0.00000E+000	4.82174E-002	4.36924E-001	4.17779E-002	4.79801E+001	11	...........	6.96700E-002	-5.36889E-003	6.08253E-001	5.33703E-001	-2.57251E-002	-3.67926E-002	7.08472E-001	-4.38204E-002	3.05298E-003	-2.35268E-004	2.66540E-002	2.33872E-002	-1.12729E-003	-1.61228E-003	3.10457E-002	-1.92024E-003
	25	25	1.10033E+000	4.41163E-002	0.00000E+000	4.85425E-002	4.39867E-001	4.24884E-002	4.98288E+001	11	...........	7.08801E-002	-5.44431E-003	6.08348E-001	5.33659E-001	-2.57203E-002	-3.68090E-002	7.08625E-001	-4.37969E-002	3.12697E-003	-2.40183E-004	2.68381E-002	2.35431E-002	-1.13468E-003	-1.62388E-003	3.12619E-002	-1.93216E-003
	26	26	1.10042E+000	4.38948E-002	0.00000E+000	4.83028E-002	4.37662E-001	4.21954E-002	5.01237E+001	11	...........	7.03874E-002	-5.46931E-003	6.08445E-001	5.33606E-001	-2.57379E-002	-3.68061E-002	7.08647E-001	-4.37268E-002	3.08964E-003	-2.40074E-004	2.67076E-002	2.34225E-002	-1.12976E-003	-1.61560E-003	3.11059E-002	-1.91938E-003
	27	27	1.10034E+000	4.34790E-002	0.00000E+000	4.78417E-002	4.33527E-001	4.21590E-002	4.93596E+001	11	...........	7.03240E-002	-5.33625E-003	6.08552E-001	5.33535E-001	-2.57350E-002	-3.67825E-002	7.08669E-001	-4.38157E-002	3.05762E-003	-2.32015E-004	2.64592E-002	2.31976E-002	-1.11893E-003	-1.59927E-003	3.08122E-002	-1.90506E-003
	28	28	1.10033E+000	4.37007E-002	0.00000E+000	4.80850E-002	4.35730E-001	4.20036E-002	4.98323E+001	11	...........	7.00438E-002	-5.32319E-003	6.08638E-001	5.33473E-001	-2.57249E-002	-3.67744E-002	7.08684E-001	-4.38315E-002	3.06096E-003	-2.32627E-004	2.65979E-002	2.33131E-002	-1.12419E-003	-1.60707E-003	3.09699E-002	-1.91547E-003
	29	29	1.10042E+000	4.35639E-002	0.00000E+000	4.79386E-002	4.34368E-001	4.23040E-002	4.78253E+001	11	...........	7.05622E-002	-5.32514E-003	6.08841E-001	5.33538E-001	-2.57046E-002	-3.67754E-002	7.08629E-001	-4.38675E-002	3.07397E-003	-2.31984E-004	2.65235E-002	2.32430E-002	-1.11979E-003	-1.60208E-003	3.08706E-002	-1.91104E-003
	30	30	1.10035E+000	4.30849E-002	0.00000E+000	4.74083E-002	4.29608E-001	4.17925E-002	4.85392E+001	11	...........	6.97125E-002	-5.29250E-003	6.08788E-001	5.33813E-001	-2.57186E-002	-3.67868E-002	7.08531E-001	-4.38411E-002	3.00356E-003	-2.28027E-004	2.62296E-002	2.29993E-002	-1.10808E-003	-1.58496E-003	3.05270E-002	-1.88889E-003
	31	31	1.10033E+000	4.33932E-002	0.00000E+000	4.77466E-002	4.32673E-001	4.22182E-002	5.02721E+001	11	...........	7.04271E-002	-5.36375E-003	6.08896E-001	5.33861E-001	-2.57200E-002	-3.67592E-002	7.08583E-001	-4.38579E-002	3.05606E-003	-2.32750E-004	2.64220E-002	2.31659E-002	-1.11607E-003	-1.59510E-003	3.07477E-002	-1.90313E-003
	32	32	1.10042E+000	4.32265E-002	0.00000E+000	4.75673E-002	4.31017E-001	4.19675E-002	4.96306E+001	11	...........	7.00114E-002	-5.27278E-003	6.08826E-001	5.33916E-001	-2.57482E-002	-3.67318E-002	7.08614E-001	-4.37919E-002	3.02635E-003	-2.27924E-004	2.63175E-002	2.30793E-002	-1.11301E-003	-1.58779E-003	3.06309E-002	-1.89297E-003
	33	33	1.10035E+000	4.28018E-002	0.00000E+000	4.70968E-002	4.26795E-001	4.19963E-002	4.98058E+001	11	...........	7.00465E-002	-5.23000E-003	6.08714E-001	5.34012E-001	-2.57504E-002	-3.67431E-002	7.08618E-001	-4.38631E-002	2.99812E-003	-2.23854E-004	2.60541E-002	2.28567E-002	-1.10216E-003	-1.57267E-003	3.03301E-002	-1.87742E-003
	34	34	1.10033E+000	4.30382E-002	0.00000E+000	4.73562E-002	4.29143E-001	4.19789E-002	4.91902E+001	11	...........	7.00275E-002	-5.32597E-003	6.08771E-001	5.33867E-001	-2.57761E-002	-3.67767E-002	7.08609E-001	-4.38969E-002	3.01386E-003	-2.29220E-004	2.62004E-002	2.29767E-002	-1.10936E-003	-1.58280E-003	3.04973E-002	-1.88925E-003
	35	35	1.10041E+000	4.29046E-002	0.00000E+000	4.72128E-002	4.27811E-001	4.19358E-002	5.01122E+001	11	...........	6.99512E-002	-5.32875E-003	6.08855E-001	5.33785E-001	-2.57481E-002	-3.67647E-002	7.08572E-001	-4.38803E-002	3.00123E-003	-2.28628E-004	2.61227E-002	2.29018E-002	-1.10471E-003	-1.57738E-003	3.04010E-002	-1.88267E-003
	36	36	1.10035E+000	4.24093E-002	0.00000E+000	4.66652E-002	4.22889E-001	4.17816E-002	4.73308E+001	11	...........	6.97044E-002	-5.27792E-003	6.08875E-001	5.33999E-001	-2.57518E-002	-3.67806E-002	7.08546E-001	-4.38063E-002	2.95612E-003	-2.23833E-004	2.58220E-002	2.26465E-002	-1.09212E-003	-1.55984E-003	3.00490E-002	-1.85779E-003
	37	37	1.10032E+000	4.27477E-002	0.00000E+000	4.70363E-002	4.26254E-001	4.19024E-002	4.96958E+001	11	...........	6.99025E-002	-5.21847E-003	6.08834E-001	5.33993E-001	-2.57353E-002	-3.67612E-002	7.08588E-001	-4.38164E-002	2.98817E-003	-2.23078E-004	2.60263E-002	2.28270E-002	-1.10012E-003	-1.57146E-003	3.02905E-002	-1.87305E-003
	38	38	1.10041E+000	4.25573E-002	0.00000E+000	4.68307E-002	4.24365E-001	4.17707E-002	4.91609E+001	11	...........	6.96622E-002	-5.28403E-003	6.08640E-001	5.33767E-001	-2.57449E-002	-3.67819E-002	7.08597E-001	-4.37958E-002	2.96464E-003	-2.24874E-004	2.59021E-002	2.27157E-002	-1.09563E-003	-1.56534E-003	3.01560E-002	-1.86383E-003
	39	39	1.10036E+000	4.21017E-002	0.00000E+000	4.63268E-002	4.19830E-001	4.18276E-002	4.84247E+001	11	...........	6.97653E-002	-5.26875E-003	6.08683E-001	5.33734E-001	-2.57479E-002	-3.67557E-002	7.08550E-001	-4.37626E-002	2.93723E-003	-2.21823E-004	2.56266E-002	2.24711E-002	-1.08403E-003	-1.54748E-003	2.98311E-002	-1.84248E-003
	40	40	1.10032E+000	4.23579E-002	0.00000E+000	4.66072E-002	4.22378E-001	4.17887E-002	4.97559E+001	11	...........	6.96949E-002	-5.30875E-003	6.08656E-001	5.33877E-001	-2.57582E-002	-3.67515E-002	7.08531E-001	-4.38531E-002	2.95213E-003	-2.24868E-004	2.57814E-002	2.26139E-002	-1.09106E-003	-1.55672E-003	3.00119E-002	-1.85752E-003
	41	41	1.10041E+000	4.22503E-002	0.00000E+000	4.64927E-002	4.21305E-001	4.17718E-002	5.03791E+001	11	...........	6.96543E-002	-5.26431E-003	6.08714E-001	5.33887E-001	-2.57475E-002	-3.67603E-002	7.08403E-001	-4.37796E-002	2.94291E-003	-2.22418E-004	2.57183E-002	2.25569E-002	-1.08784E-003	-1.55313E-003	2.99302E-002	-1.84970E-003
	42	42	1.10036E+000	4.17905E-002	0.00000E+000	4.59845E-002	4.16731E-001	4.17828E-002	4.81745E+001	11	...........	6.97147E-002	-5.29889E-003	6.08852E-001	5.33936E-001	-2.57428E-002	-3.67679E-002	7.08471E-001	-4.38972E-002	2.91341E-003	-2.21443E-004	2.54442E-002	2.23134E-002	-1.07580E-003	-1.53655E-003	2.96074E-002	-1.83449E-003
	43	43	1.10032E+000	4.19488E-002	0.00000E+000	4.61573E-002	4.18309E-001	4.12700E-002	4.76244E+001	11	...........	6.88381E-002	-5.21194E-003	6.08725E-001	5.33889E-001	-2.57415E-002	-3.67711E-002	7.08574E-001	-4.39215E-002	2.88768E-003	-2.18635E-004	2.55353E-002	2.23960E-002	-1.07983E-003	-1.54250E-003	2.97238E-002	-1.84246E-003
	44	44	1.10041E+000	4.19760E-002	0.00000E+000	4.61907E-002	4.18581E-001	4.19640E-002	5.01664E+001	11	...........	7.00028E-002	-5.29181E-003	6.08706E-001	5.33771E-001	-2.57289E-002	-3.67937E-002	7.08560E-001	-4.39018E-002	2.93843E-003	-2.22129E-004	2.55510E-002	2.24056E-002	-1.07999E-003	-1.54445E-003	2.97425E-002	-1.84282E-003
	45	45	1.10036E+000	4.15144E-002	0.00000E+000	4.56808E-002	4.13990E-001	4.17433E-002	4.96977E+001	11	...........	6.96225E-002	-5.46792E-003	6.08758E-001	5.33650E-001	-2.57499E-002	-3.67897E-002	7.08592E-001	-4.38800E-002	2.89033E-003	-2.26997E-004	2.52722E-002	2.21542E-002	-1.06899E-003	-1.52730E-003	2.94167E-002	-1.82165E-003
	46	46	1.10032E+000	4.16906E-002	0.00000E+000	4.58731E-002	4.15739E-001	4.15538E-002	4.83710E+001	11	...........	6.93218E-002	-5.43097E-003	6.08637E-001	5.33622E-001	-2.57533E-002	-3.68236E-002	7.08600E-001	-4.38865E-002	2.89007E-003	-2.26420E-004	2.53744E-002	2.22470E-002	-1.07367E-003	-1.53520E-003	2.95420E-002	-1.82966E-003
	47	47	1.10040E+000	4.16500E-002	0.00000E+000	4.58318E-002	4.15338E-001	4.16340E-002	4.98860E+001	11	...........	6.94442E-002	-5.37792E-003	6.08528E-001	5.33602E-001	-2.57376E-002	-3.68219E-002	7.08540E-001	-4.37682E-002	2.89235E-003	-2.23990E-004	2.53452E-002	2.22246E-002	-1.07197E-003	-1.53363E-003	2.95107E-002	-1.82295E-003
	48	48	1.10037E+000	4.11879E-002	0.00000E+000	4.53217E-002	4.10745E-001	4.16005E-002	4.98759E+001	11	...........	6.94096E-002	-5.42583E-003	6.08632E-001	5.33296E-001	-2.57119E-002	-3.68121E-002	7.08522E-001	-4.37122E-002	2.85883E-003	-2.23478E-004	2.50683E-002	2.19653E-002	-1.05902E-003	-1.51621E-003	2.91825E-002	-1.80041E-003
	49	49	1.10032E+000	4.14109E-002	0.00000E+000	4.55652E-002	4.12961E-001	4.15206E-002	4.99047E+001	11	...........	6.92736E-002	-5.34319E-003	6.08732E-001	5.33153E-001	-2.57169E-002	-3.68082E-002	7.08682E-001	-4.36475E-002	2.86868E-003	-2.21266E-004	2.52081E-002	2.20783E-002	-1.06496E-003	-1.52426E-003	2.93472E-002	-1.80748E-003
	50	50	1.10040E+000	4.13024E-002	0.00000E+000	4.54492E-002	4.11879E-001	4.13358E-002	4.84344E+001	11	...........	6.89543E-002	-5.26306E-003	6.08756E-001	5.33170E-001	-2.57136E-002	-3.68108E-002	7.08613E-001	-4.37797E-002	2.84798E-003	-2.17377E-004	2.51431E-002	2.20212E-002	-1.06203E-003	-1.52037E-003	2.92674E-002	-1.80821E-003
	51	51	1.10037E+000	4.08751E-002	0.00000E+000	4.49778E-002	4.07630E-001	4.16552E-002	4.95876E+001	11	...........	6.94954E-002	-5.21083E-003	6.08823E-001	5.33053E-001	-2.57125E-002	-3.68060E-002	7.08591E-001	-4.38671E-002	2.84063E-003	-2.12993E-004	2.48857E-002	2.17886E-002	-1.05100E-003	-1.50445E-003	2.89637E-002	-1.79307E-003
	52	52	1.10032E+000	4.10605E-002	0.00000E+000	4.51796E-002	4.09474E-001	4.13820E-002	4.97939E+001	11	...........	6.90362E-002	-5.17972E-003	6.08821E-001	5.32914E-001	-2.57174E-002	-3.67857E-002	7.08647E-001	-4.38971E-002	2.83467E-003	-2.12682E-004	2.49985E-002	2.18818E-002	-1.05597E-003	-1.51044E-003	2.90974E-002	-1.80244E-003
	53	53	1.10040E+000	4.10391E-002	0.00000E+000	4.51595E-002	4.09261E-001	4.15278E-002	4.78374E+001	11	...........	6.92579E-002	-5.30861E-003	6.09007E-001	5.32880E-001	-2.57372E-002	-3.67897E-002	7.08638E-001	-4.39181E-002	2.84228E-003	-2.17860E-004	2.49931E-002	2.18689E-002	-1.05623E-003	-1.50982E-003	2.90819E-002	-1.80236E-003
	54	54	1.10037E+000	4.05379E-002	0.00000E+000	4.46068E-002	4.04278E-001	4.13859E-002	4.98354E+001	11	...........	6.90486E-002	-5.18292E-003	6.08897E-001	5.33082E-001	-2.57150E-002	-3.67642E-002	7.08579E-001	-4.38631E-002	2.79908E-003	-2.10104E-004	2.46834E-002	2.16100E-002	-1.04243E-003	-1.49034E-003	2.87243E-002	-1.77812E-003
	55	55	1.10032E+000	4.07860E-002	0.00000E+000	4.48776E-002	4.06747E-001	4.14323E-002	4.96424E+001	11	...........	6.91304E-002	-5.35472E-003	6.09042E-001	5.33242E-001	-2.57217E-002	-3.67490E-002	7.08485E-001	-4.37864E-002	2.81955E-003	-2.18398E-004	2.48404E-002	2.17488E-002	-1.04908E-003	-1.49885E-003	2.88963E-002	-1.78587E-003
	56	56	1.10040E+000	4.06570E-002	0.00000E+000	4.47389E-002	4.05466E-001	4.11821E-002	4.66028E+001	11	...........	6.87035E-002	-5.37194E-003	6.09084E-001	5.33050E-001	-2.57385E-002	-3.67383E-002	7.08326E-001	-4.37240E-002	2.79328E-003	-2.18407E-004	2.47636E-002	2.16722E-002	-1.04645E-003	-1.49367E-003	2.87985E-002	-1.77769E-003
	57	57	1.10038E+000	4.02992E-002	0.00000E+000	4.43443E-002	4.01907E-001	4.14854E-002	4.89271E+001	11	...........	6.91992E-002	-5.30111E-003	6.09067E-001	5.33114E-001	-2.57290E-002	-3.67612E-002	7.08395E-001	-4.36599E-002	2.78867E-003	-2.13631E-004	2.45449E-002	2.14841E-002	-1.03686E-003	-1.48145E-003	2.85477E-002	-1.75946E-003
	58	58	1.10032E+000	4.05096E-002	0.00000E+000	4.45734E-002	4.03996E-001	4.13993E-002	4.98925E+001	11	...........	6.90615E-002	-5.35514E-003	6.09278E-001	5.33339E-001	-2.57579E-002	-3.67662E-002	7.08525E-001	-4.38214E-002	2.79766E-003	-2.16935E-004	2.46816E-002	2.16054E-002	-1.04344E-003	-1.48939E-003	2.87021E-002	-1.77519E-003
	59	59	1.10039E+000	4.04385E-002	0.00000E+000	4.44982E-002	4.03291E-001	4.13736E-002	4.96964E+001	11	...........	6.90187E-002	-5.38444E-003	6.09388E-001	5.33394E-001	-2.57575E-002	-3.67528E-002	7.08461E-001	-4.37350E-002	2.79102E-003	-2.17739E-004	2.46427E-002	2.15697E-002	-1.04160E-003	-1.48623E-003	2.86491E-002	-1.76858E-003
	60	60	1.10038E+000	3.99600E-002	0.00000E+000	4.39713E-002	3.98536E-001	4.13639E-002	4.95038E+001	11	...........	6.90010E-002	-5.42278E-003	6.09347E-001	5.33426E-001	-2.57825E-002	-3.67483E-002	7.08476E-001	-4.37236E-002	2.75728E-003	-2.16694E-004	2.43495E-002	2.13157E-002	-1.03027E-003	-1.46846E-003	2.83107E-002	-1.74720E-003
	61	61	1.10032E+000	4.01389E-002	0.00000E+000	4.41654E-002	4.00313E-001	4.10855E-002	4.84259E+001	11	...........	6.85329E-002	-5.38167E-003	6.09342E-001	5.33381E-001	-2.57685E-002	-3.67621E-002	7.08462E-001	-4.36456E-002	2.75083E-003	-2.16014E-004	2.44583E-002	2.14093E-002	-1.03432E-003	-1.47559E-003	2.84369E-002	-1.75188E-003
	62	62	1.10039E+000	4.00981E-002	0.00000E+000	4.41236E-002	3.99910E-001	4.14111E-002	4.73492E+001	11	...........	6.90567E-002	-5.39486E-003	6.09493E-001	5.33393E-001	-2.57672E-002	-3.67729E-002	7.08542E-001	-4.36507E-002	2.76904E-003	-2.16324E-004	2.44395E-002	2.13880E-002	-1.03322E-003	-1.47452E-003	2.84112E-002	-1.75031E-003
	63	63	1.10039E+000	3.96596E-002	0.00000E+000	4.36409E-002	3.95549E-001	4.09761E-002	4.78912E+001	11	...........	6.83293E-002	-5.27194E-003	6.09330E-001	5.33510E-001	-2.57590E-002	-3.67492E-002	7.08665E-001	-4.36403E-002	2.70992E-003	-2.09083E-004	2.41658E-002	2.11588E-002	-1.02159E-003	-1.45746E-003	2.81054E-002	-1.73076E-003
	64	64	1.10031E+000	3.98655E-002	0.00000E+000	4.38645E-002	3.97594E-001	4.13507E-002	4.97744E+001	11	...........	6.89746E-002	-5.29944E-003	6.09263E-001	5.33469E-001	-2.57604E-002	-3.67386E-002	7.08515E-001	-4.35765E-002	2.74970E-003	-2.11265E-004	2.42886E-002	2.12670E-002	-1.02695E-003	-1.46460E-003	2.82453E-002	-1.73720E-003
	65	65	1.10039E+000	3.98854E-002	0.00000E+000	4.38894E-002	3.97792E-001	4.11726E-002	4.93591E+001	11	...........	6.86832E-002	-5.29917E-003	6.09195E-001	5.33426E-001	-2.57693E-002	-3.67710E-002	7.08437E-001	-4.36810E-002	2.73946E-003	-2.11360E-004	2.42980E-002	2.12759E-002	-1.02782E-003	-1.46663E-003	2.82563E-002	-1.74223E-003
	66	66	1.10039E+000	3.94273E-002	0.00000E+000	4.33856E-002	3.93238E-001	4.11469E-002	4.92031E+001	11	...........	6.86499E-002	-5.32861E-003	6.09257E-001	5.33387E-001	-2.57443E-002	-3.67928E-002	7.08385E-001	-4.37597E-002	2.70668E-003	-2.10093E-004	2.40214E-002	2.10300E-002	-1.01503E-003	-1.45064E-003	2.79297E-002	-1.72533E-003
	67	67	1.10031E+000	3.95901E-002	0.00000E+000	4.35615E-002	3.94856E-001	4.12247E-002	4.98303E+001	11	...........	6.87686E-002	-5.37944E-003	6.09241E-001	5.33379E-001	-2.57446E-002	-3.67899E-002	7.08472E-001	-4.37199E-002	2.72256E-003	-2.12973E-004	2.41199E-002	2.11165E-002	-1.01923E-003	-1.45651E-003	2.80485E-002	-1.73087E-003
	68	68	1.10038E+000	3.94893E-002	0.00000E+000	4.34533E-002	3.93856E-001	4.09826E-002	4.66154E+001	11	...........	6.83575E-002	-5.35389E-003	6.09217E-001	5.33373E-001	-2.57382E-002	-3.67996E-002	7.08518E-001	-4.37653E-002	2.69939E-003	-2.11421E-004	2.40575E-002	2.10625E-002	-1.01638E-003	-1.45319E-003	2.79789E-002	-1.72826E-003
	69	69	1.10040E+000	3.91735E-002	0.00000E+000	4.31064E-002	3.90716E-001	4.12033E-002	4.94900E+001	11	...........	6.87347E-002	-5.42819E-003	6.09192E-001	5.33170E-001	-2.57564E-002	-3.67881E-002	7.08527E-001	-4.37210E-002	2.69258E-003	-2.12642E-004	2.38642E-002	2.08862E-002	-1.00897E-003	-1.44112E-003	2.77555E-002	-1.71271E-003
	70	70	1.10031E+000	3.92697E-002	0.00000E+000	4.32090E-002	3.91673E-001	4.10373E-002	4.78019E+001	11	...........	6.84565E-002	-5.42667E-003	6.09288E-001	5.33184E-001	-2.57604E-002	-3.67990E-002	7.08377E-001	-4.36640E-002	2.68827E-003	-2.13104E-004	2.39266E-002	2.09380E-002	-1.01160E-003	-1.44509E-003	2.78177E-002	-1.71467E-003
	71	71	1.10038E+000	3.92927E-002	0.00000E+000	4.32367E-002	3.91898E-001	4.11146E-002	4.95754E+001	11	...........	6.85960E-002	-5.40528E-003	6.09644E-001	5.33210E-001	-2.57610E-002	-3.67850E-002	7.08413E-001	-4.35787E-002	2.69532E-003	-2.12388E-004	2.39545E-002	2.09512E-002	-1.01222E-003	-1.44538E-003	2.78354E-002	-1.71232E-003
	72	72	1.10040E+000	3.88177E-002	0.00000E+000	4.27151E-002	3.87177E-001	4.10015E-002	4.99963E+001	11	...........	6.83960E-002	-5.43333E-003	6.09636E-001	5.33190E-001	-2.57631E-002	-3.68161E-002	7.08544E-001	-4.37346E-002	2.65498E-003	-2.10910E-004	2.36647E-002	2.06972E-002	-1.00006E-003	-1.42912E-003	2.75041E-002	-1.69768E-003
	73	73	1.10031E+000	3.90068E-002	0.00000E+000	4.29195E-002	3.89058E-001	4.10536E-002	4.98073E+001	11	...........	6.84782E-002	-5.29847E-003	6.09754E-001	5.32995E-001	-2.57390E-002	-3.68292E-002	7.08482E-001	-4.37917E-002	2.67111E-003	-2.06676E-004	2.37845E-002	2.07904E-002	-1.00400E-003	-1.43659E-003	2.76356E-002	-1.70817E-003
	74	74	1.10038E+000	3.89941E-002	0.00000E+000	4.29083E-002	3.88935E-001	4.09982E-002	4.67794E+001	11	...........	6.83862E-002	-5.33819E-003	6.09787E-001	5.32876E-001	-2.57600E-002	-3.68192E-002	7.08550E-001	-4.38204E-002	2.66666E-003	-2.08158E-004	2.37781E-002	2.07790E-002	-1.00449E-003	-1.43573E-003	2.76293E-002	-1.70874E-003
	75	75	1.10040E+000	3.85294E-002	0.00000E+000	4.23979E-002	3.84312E-001	4.07732E-002	4.87370E+001	11	...........	6.80135E-002	-5.28403E-003	6.09603E-001	5.32897E-001	-2.57808E-002	-3.68189E-002	7.08532E-001	-4.37854E-002	2.62052E-003	-2.03591E-004	2.34877E-002	2.05322E-002	-9.93321E-004	-1.41861E-003	2.72993E-002	-1.68703E-003
	76	76	1.10031E+000	3.87657E-002	0.00000E+000	4.26543E-002	3.86664E-001	4.11111E-002	5.01750E+001	11	...........	6.85676E-002	-5.37556E-003	6.09533E-001	5.32792E-001	-2.57776E-002	-3.68381E-002	7.08472E-001	-4.38011E-002	2.65807E-003	-2.08387E-004	2.36290E-002	2.06541E-002	-9.99289E-004	-1.42805E-003	2.74644E-002	-1.69798E-003
	77	77	1.10037E+000	3.87418E-002	0.00000E+000	4.26305E-002	3.86422E-001	4.09228E-002	4.97442E+001	11	...........	6.82550E-002	-5.45889E-003	6.09407E-001	5.32818E-001	-2.57651E-002	-3.68576E-002	7.08306E-001	-4.37940E-002	2.64432E-003	-2.11487E-004	2.36095E-002	2.06424E-002	-9.98189E-004	-1.42793E-003	2.74411E-002	-1.69666E-003
	78	78	1.10041E+000	3.82777E-002	0.00000E+000	4.21212E-002	3.81811E-001	4.09360E-002	4.83561E+001	11	...........	6.82810E-002	-5.26403E-003	6.09394E-001	5.32833E-001	-2.57706E-002	-3.68803E-002	7.08310E-001	-4.37889E-002	2.61364E-003	-2.01495E-004	2.33262E-002	2.03956E-002	-9.86437E-004	-1.41169E-003	2.71125E-002	-1.67614E-003
	79	79	1.10031E+000	3.83795E-002	0.00000E+000	4.22293E-002	3.82825E-001	4.07542E-002	4.71239E+001	11	...........	6.79790E-002	-5.32333E-003	6.09397E-001	5.32906E-001	-2.57758E-002	-3.68986E-002	7.08447E-001	-4.37903E-002	2.60900E-003	-2.04307E-004	2.33884E-002	2.04527E-002	-9.89264E-004	-1.41615E-003	2.71898E-002	-1.68065E-003
	80	80	1.10037E+000	3.85074E-002	0.00000E+000	4.23724E-002	3.84096E-001	4.09358E-002	4.93642E+001	11	...........	6.82886E-002	-5.33056E-003	6.09394E-001	5.32996E-001	-2.57660E-002	-3.68712E-002	7.08595E-001	-4.38039E-002	2.62962E-003	-2.05266E-004	2.34662E-002	2.05243E-002	-9.92181E-004	-1.41982E-003	2.72861E-002	-1.68677E-003
	81	81	1.10041E+000	3.80321E-002	0.00000E+000	4.18511E-002	3.79369E-001	4.07972E-002	5.00793E+001	11	...........	6.80764E-002	-5.45111E-003	6.09514E-001	5.32970E-001	-2.57799E-002	-3.68779E-002	7.08675E-001	-4.38083E-002	2.58909E-003	-2.07317E-004	2.31811E-002	2.02700E-002	-9.80463E-004	-1.40255E-003	2.69524E-002	-1.66612E-003
	82	82	1.10031E+000	3.81629E-002	0.00000E+000	4.19909E-002	3.80669E-001	4.08431E-002	4.91481E+001	11	...........	6.81283E-002	-5.38167E-003	6.09727E-001	5.33036E-001	-2.57612E-002	-3.68750E-002	7.08635E-001	-4.38149E-002	2.59998E-003	-2.05380E-004	2.32689E-002	2.03422E-002	-9.83124E-004	-1.40726E-003	2.70436E-002	-1.67210E-003
	83	83	1.10037E+000	3.81729E-002	0.00000E+000	4.20043E-002	3.80771E-001	4.08092E-002	4.94532E+001	11	...........	6.80711E-002	-5.27583E-003	6.09747E-001	5.33057E-001	-2.57487E-002	-3.68749E-002	7.08697E-001	-4.37628E-002	2.59847E-003	-2.01394E-004	2.32758E-002	2.03483E-002	-9.82904E-004	-1.40762E-003	2.70530E-002	-1.67055E-003
	84	84	1.10042E+000	3.76910E-002	0.00000E+000	4.14759E-002	3.75979E-001	4.04925E-002	4.69784E+001	11	...........	6.75468E-002	-5.26514E-003	6.09773E-001	5.33045E-001	-2.57401E-002	-3.68567E-002	7.08630E-001	-4.38783E-002	2.54591E-003	-1.98449E-004	2.29830E-002	2.00910E-002	-9.70173E-004	-1.38917E-003	2.67090E-002	-1.65382E-003
	85	85	1.10031E+000	3.79009E-002	0.00000E+000	4.17026E-002	3.78070E-001	4.10073E-002	4.98012E+001	11	...........	6.84147E-002	-5.28056E-003	6.09705E-001	5.33123E-001	-2.57474E-002	-3.68632E-002	7.08529E-001	-4.40178E-002	2.59298E-003	-2.00138E-004	2.31084E-002	2.02058E-002	-9.75848E-004	-1.39715E-003	2.68539E-002	-1.66831E-003
	86	86	1.10037E+000	3.79446E-002	0.00000E+000	4.17530E-002	3.78504E-001	4.08590E-002	5.01537E+001	11	...........	6.81579E-002	-5.33403E-003	6.09778E-001	5.33056E-001	-2.57358E-002	-3.68694E-002	7.08590E-001	-4.40879E-002	2.58622E-003	-2.02397E-004	2.31378E-002	2.02266E-002	-9.76536E-004	-1.39900E-003	2.68872E-002	-1.67290E-003
	87	87	1.10042E+000	3.74397E-002	0.00000E+000	4.11993E-002	3.73484E-001	4.06307E-002	4.77233E+001	11	...........	6.77711E-002	-5.34806E-003	6.09810E-001	5.33041E-001	-2.57383E-002	-3.68500E-002	7.08549E-001	-4.40803E-002	2.53733E-003	-2.00230E-004	2.28311E-002	1.99569E-002	-9.63635E-004	-1.37965E-003	2.65279E-002	-1.65035E-003
	88	88	1.10030E+000	3.76301E-002	0.00000E+000	4.14045E-002	3.75373E-001	4.09142E-002	4.94006E+001	11	...........	6.82511E-002	-5.29139E-003	6.09864E-001	5.33115E-001	-2.57610E-002	-3.68432E-002	7.08468E-001	-4.38560E-002	2.56829E-003	-1.99115E-004	2.29492E-002	2.00611E-002	-9.69387E-004	-1.38641E-003	2.66597E-002	-1.65030E-003
	89	89	1.10036E+000	3.76376E-002	0.00000E+000	4.14151E-002	3.75448E-001	4.05310E-002	4.80298E+001	11	...........	6.76137E-002	-5.29958E-003	6.09851E-001	5.33214E-001	-2.57422E-002	-3.68174E-002	7.08589E-001	-4.39536E-002	2.54482E-003	-1.99464E-004	2.29533E-002	2.00689E-002	-9.68875E-004	-1.38572E-003	2.66696E-002	-1.65431E-003
	90	90	1.10042E+000	3.72280E-002	0.00000E+000	4.09665E-002	3.71378E-001	4.06786E-002	4.79265E+001	11	...........	6.78614E-002	-5.25264E-003	6.09915E-001	5.33130E-001	-2.57429E-002	-3.68037E-002	7.08641E-001	-4.39665E-002	2.52634E-003	-1.95545E-004	2.27059E-002	1.98473E-002	-9.58357E-004	-1.37013E-003	2.63813E-002	-1.63678E-003
	91	91	1.10030E+000	3.73231E-002	0.00000E+000	4.10668E-002	3.72322E-001	4.04892E-002	4.89233E+001	11	...........	6.75321E-002	-5.22208E-003	6.10041E-001	5.33189E-001	-2.57351E-002	-3.68125E-002	7.08531E-001	-4.38775E-002	2.52051E-003	-1.94905E-004	2.27686E-002	1.99003E-002	-9.60516E-004	-1.37396E-003	2.64446E-002	-1.63765E-003
	92	92	1.10036E+000	3.74297E-002	0.00000E+000	4.11862E-002	3.73380E-001	4.08584E-002	5.01245E+001	11	...........	6.81511E-002	-5.23375E-003	6.10179E-001	5.33172E-001	-2.57412E-002	-3.68204E-002	7.08548E-001	-4.38572E-002	2.55088E-003	-1.95898E-004	2.28388E-002	1.99565E-002	-9.63488E-004	-1.37818E-003	2.65208E-002	-1.64156E-003
	93	93	1.10043E+000	3.69680E-002	0.00000E+000	4.06805E-002	3.68791E-001	4.06953E-002	4.92108E+001	11	...........	6.78825E-002	-5.24306E-003	6.10214E-001	5.32967E-001	-2.57582E-002	-3.68139E-002	7.08512E-001	-4.38419E-002	2.50948E-003	-1.93825E-004	2.25584E-002	1.97027E-002	-9.52229E-004	-1.36094E-003	2.61923E-002	-1.62075E-003
	94	94	1.10030E+000	3.69847E-002	0.00000E+000	4.06944E-002	3.68957E-001	4.03172E-002	4.68202E+001	11	...........	6.72426E-002	-5.23458E-003	6.09968E-001	5.33046E-001	-2.57537E-002	-3.67935E-002	7.08541E-001	-4.39000E-002	2.48695E-003	-1.93600E-004	2.25595E-002	1.97146E-002	-9.52495E-004	-1.36080E-003	2.62052E-002	-1.62363E-003
	95	95	1.10036E+000	3.71398E-002	0.00000E+000	4.08671E-002	3.70501E-001	4.08063E-002	4.94877E+001	11	...........	6.80672E-002	-5.15806E-003	6.09916E-001	5.33028E-001	-2.57547E-002	-3.68103E-002	7.08627E-001	-4.38076E-002	2.52800E-003	-1.91569E-004	2.26521E-002	1.97965E-002	-9.56524E-004	-1.36712E-003	2.63182E-002	-1.62700E-003
	96	96	1.10043E+000	3.67453E-002	0.00000E+000	4.04355E-002	3.66573E-001	4.05997E-002	4.94421E+001	11	...........	6.77372E-002	-5.33236E-003	6.09836E-001	5.33107E-001	-2.57414E-002	-3.68133E-002	7.08615E-001	-4.37792E-002	2.48903E-003	-1.95939E-004	2.24086E-002	1.95892E-002	-9.45875E-004	-1.35272E-003	2.60383E-002	-1.60868E-003
	97	97	1.10030E+000	3.67441E-002	0.00000E+000	4.04297E-002	3.66562E-001	4.04128E-002	4.74416E+001	11	...........	6.74067E-002	-5.27111E-003	6.09693E-001	5.33319E-001	-2.57118E-002	-3.68137E-002	7.08612E-001	-4.36978E-002	2.47680E-003	-1.93682E-004	2.24026E-002	1.95963E-002	-9.44756E-004	-1.35269E-003	2.60373E-002	-1.60563E-003
	98	98	1.10036E+000	3.68774E-002	0.00000E+000	4.05784E-002	3.67889E-001	4.07622E-002	4.94221E+001	11	...........	6.79733E-002	-5.26542E-003	6.09600E-001	5.33084E-001	-2.57097E-002	-3.68144E-002	7.08584E-001	-4.37154E-002	2.50668E-003	-1.94175E-004	2.24805E-002	1.96588E-002	-9.48109E-004	-1.35762E-003	2.61307E-002	-1.61211E-003
	99	99	1.10043E+000	3.64464E-002	0.00000E+000	4.01067E-002	3.63602E-001	4.03318E-002	4.72950E+001	11	...........	6.72642E-002	-5.26514E-003	6.09623E-001	5.33011E-001	-2.57086E-002	-3.68086E-002	7.08573E-001	-4.37110E-002	2.45154E-003	-1.91896E-004	2.22186E-002	1.94263E-002	-9.36987E-004	-1.34154E-003	2.58250E-002	-1.59311E-003
	100	100	1.10030E+000	3.65371E-002	0.00000E+000	4.02020E-002	3.64504E-001	4.06403E-002	4.74547E+001	11	...........	6.77887E-002	-5.29278E-003	6.09579E-001	5.33030E-001	-2.56933E-002	-3.67803E-002	7.08601E-001	-4.38326E-002	2.47681E-003	-1.93383E-004	2.22722E-002	1.94754E-002	-9.38760E-004	-1.34385E-003	2.58902E-002	-1.60152E-003
	101	101	1.10036E+000	3.66022E-002	0.00000E+000	4.02755E-002	3.65153E-001	4.04596E-002	4.94528E+001	11	...........	6.74876E-002	-5.31028E-003	6.09347E-001	5.33116E-001	-2.57000E-002	-3.67831E-002	7.08581E-001	-4.38604E-002	2.47020E-003	-1.94368E-004	2.23034E-002	1.95132E-002	-9.40677E-004	-1.34634E-003	2.59357E-002	-1.60539E-003
	102	102	1.10043E+000	3.62244E-002	0.00000E+000	3.98624E-002	3.61397E-001	4.04946E-002	4.93118E+001	11	...........	6.75554E-002	-5.36000E-003	6.09337E-001	5.33442E-001	-2.56981E-002	-3.67787E-002	7.08669E-001	-4.38028E-002	2.44716E-003	-1.94163E-004	2.20729E-002	1.93236E-002	-9.30897E-004	-1.33229E-003	2.56711E-002	-1.58673E-003
	103	103	1.10030E+000	3.62608E-002	0.00000E+000	3.98980E-002	3.61756E-001	4.04397E-002	4.96551E+001	11	...........	6.74640E-002	-5.18208E-003	6.09076E-001	5.33499E-001	-2.57078E-002	-3.67547E-002	7.08521E-001	-4.38301E-002	2.44630E-003	-1.87907E-004	2.20856E-002	1.93451E-002	-9.32185E-004	-1.33276E-003	2.56916E-002	-1.58932E-003
	104	104	1.10036E+000	3.63160E-002	0.00000E+000	3.99605E-002	3.62303E-001	4.03748E-002	4.75059E+001	11	...........	6.73512E-002	-5.15556E-003	6.09132E-001	5.33489E-001	-2.56987E-002	-3.67625E-002	7.08493E-001	-4.37958E-002	2.44593E-003	-1.87229E-004	2.21212E-002	1.93742E-002	-9.33276E-004	-1.33507E-003	2.57296E-002	-1.59049E-003
	105	105	1.10043E+000	3.60310E-002	0.00000E+000	3.96496E-002	3.59468E-001	4.05619E-002	4.94954E+001	11	...........	6.76551E-002	-5.31972E-003	6.09108E-001	5.33369E-001	-2.57136E-002	-3.67754E-002	7.08524E-001	-4.38142E-002	2.43768E-003	-1.91675E-004	2.19468E-002	1.92178E-002	-9.26488E-004	-1.32506E-003	2.55289E-002	-1.57867E-003
	106	106	1.10031E+000	3.59617E-002	0.00000E+000	3.95689E-002	3.58779E-001	4.02588E-002	4.78686E+001	11	...........	6.71539E-002	-5.25222E-003	6.09145E-001	5.33306E-001	-2.57097E-002	-3.67808E-002	7.08566E-001	-4.37596E-002	2.41497E-003	-1.88879E-004	2.19059E-002	1.91786E-002	-9.24564E-004	-1.32270E-003	2.54812E-002	-1.57367E-003
	107	107	1.10035E+000	3.60963E-002	0.00000E+000	3.97186E-002	3.60116E-001	4.02598E-002	4.83708E+001	11	...........	6.71586E-002	-5.28125E-003	6.09001E-001	5.33296E-001	-2.57231E-002	-3.67837E-002	7.08580E-001	-4.37054E-002	2.42418E-003	-1.90633E-004	2.19826E-002	1.92500E-002	-9.28506E-004	-1.32776E-003	2.55771E-002	-1.57760E-003
	108	108	1.10043E+000	3.57738E-002	0.00000E+000	3.93666E-002	3.56910E-001	4.05427E-002	4.83575E+001	11	...........	6.76197E-002	-5.46500E-003	6.09175E-001	5.33265E-001	-2.57178E-002	-3.68133E-002	7.08546E-001	-4.36812E-002	2.41901E-003	-1.95504E-004	2.17925E-002	1.90769E-002	-9.20022E-004	-1.31695E-003	2.53474E-002	-1.56264E-003
	109	109	1.10030E+000	3.57326E-002	0.00000E+000	3.93168E-002	3.56502E-001	4.02870E-002	4.95994E+001	11	...........	6.71935E-002	-5.31181E-003	6.09278E-001	5.33222E-001	-2.57242E-002	-3.68078E-002	7.08431E-001	-4.38140E-002	2.40100E-003	-1.89805E-004	2.17711E-002	1.90534E-002	-9.19192E-004	-1.31524E-003	2.53141E-002	-1.56559E-003
	110	110	1.10035E+000	3.58405E-002	0.00000E+000	3.94373E-002	3.57578E-001	4.05040E-002	4.90913E+001	11	...........	6.75387E-002	-5.28889E-003	6.09425E-001	5.33224E-001	-2.56981E-002	-3.67900E-002	7.08439E-001	-4.38218E-002	2.42063E-003	-1.89557E-004	2.18421E-002	1.91110E-002	-9.21032E-004	-1.31857E-003	2.53909E-002	-1.57060E-003
	111	111	1.10043E+000	3.54343E-002	0.00000E+000	3.89930E-002	3.53538E-001	3.99681E-002	4.64471E+001	11	...........	6.66728E-002	-5.24222E-003	6.09487E-001	5.33106E-001	-2.57051E-002	-3.67994E-002	7.08379E-001	-4.38839E-002	2.36250E-003	-1.85754E-004	2.15967E-002	1.88902E-002	-9.10842E-004	-1.30396E-003	2.51009E-002	-1.55499E-003
	112	112	1.10031E+000	3.54803E-002	0.00000E+000	3.90392E-002	3.53993E-001	4.04937E-002	4.91321E+001	11	...........	6.75539E-002	-5.22264E-003	6.09469E-001	5.33088E-001	-2.57012E-002	-3.68306E-002	7.08595E-001	-4.37393E-002	2.39683E-003	-1.85301E-004	2.16241E-002	1.89141E-002	-9.11888E-004	-1.30676E-003	2.51412E-002	-1.55188E-003
	113	113	1.10035E+000	3.55815E-002	0.00000E+000	3.91522E-002	3.55001E-001	4.03546E-002	4.98989E+001	11	...........	6.73167E-002	-5.32278E-003	6.09334E-001	5.33096E-001	-2.57412E-002	-3.68389E-002	7.08574E-001	-4.37664E-002	2.39523E-003	-1.89393E-004	2.16810E-002	1.89684E-002	-9.15913E-004	-1.31078E-003	2.52121E-002	-1.55727E-003
	114	114	1.10043E+000	3.52440E-002	0.00000E+000	3.87836E-002	3.51641E-001	4.02309E-002	4.92908E+001	11	...........	6.71146E-002	-5.38972E-003	6.09348E-001	5.33168E-001	-2.57386E-002	-3.68136E-002	7.08640E-001	-4.37746E-002	2.36538E-003	-1.89955E-004	2.14758E-002	1.87910E-002	-9.07130E-004	-1.29746E-003	2.49753E-002	-1.54279E-003
	115	115	1.10031E+000	3.51942E-002	0.00000E+000	3.87244E-002	3.51149E-001	4.03587E-002	4.74363E+001	11	...........	6.73244E-002	-5.29472E-003	6.09428E-001	5.32941E-001	-2.57633E-002	-3.68074E-002	7.08794E-001	-4.38122E-002	2.36943E-003	-1.86344E-004	2.14483E-002	1.87564E-002	-9.06720E-004	-1.29541E-003	2.49454E-002	-1.54194E-003
	116	116	1.10035E+000	3.52856E-002	0.00000E+000	3.88266E-002	3.52061E-001	3.99797E-002	4.80974E+001	11	...........	6.66903E-002	-5.20014E-003	6.09356E-001	5.32840E-001	-2.57790E-002	-3.67911E-002	7.08796E-001	-4.38800E-002	2.35321E-003	-1.83490E-004	2.15015E-002	1.88016E-002	-9.09630E-004	-1.29820E-003	2.50103E-002	-1.54833E-003
	117	117	1.10043E+000	3.50745E-002	0.00000E+000	3.85971E-002	3.49958E-001	4.03587E-002	4.82719E+001	11	...........	6.73379E-002	-5.22361E-003	6.09406E-001	5.32779E-001	-2.57869E-002	-3.68056E-002	7.08772E-001	-4.38728E-002	2.36184E-003	-1.83215E-004	2.13746E-002	1.86870E-002	-9.04464E-004	-1.29094E-003	2.48598E-002	-1.53882E-003
	118	118	1.10031E+000	3.49608E-002	0.00000E+000	3.84677E-002	3.48829E-001	4.00191E-002	4.90660E+001	11	...........	6.67632E-002	-5.25931E-003	6.09266E-001	5.32775E-001	-2.57535E-002	-3.68058E-002	7.08737E-001	-4.37608E-002	2.33410E-003	-1.83870E-004	2.13004E-002	1.86263E-002	-9.00363E-004	-1.28676E-003	2.47780E-002	-1.52992E-003
	119	119	1.10035E+000	3.51222E-002	0.00000E+000	3.86467E-002	3.50431E-001	4.03272E-002	4.99176E+001	11	...........	6.72687E-002	-5.46708E-003	6.09308E-001	5.32949E-001	-2.57369E-002	-3.68624E-002	7.08756E-001	-4.36832E-002	2.36263E-003	-1.92016E-004	2.14002E-002	1.87184E-002	-9.03938E-004	-1.29469E-003	2.48931E-002	-1.53425E-003
	120	120	1.10043E+000	3.48051E-002	0.00000E+000	3.83006E-002	3.47275E-001	4.01714E-002	4.89691E+001	11	...........	6.70124E-002	-5.34736E-003	6.09180E-001	5.32974E-001	-2.57408E-002	-3.68556E-002	7.08751E-001	-4.36618E-002	2.33237E-003	-1.86115E-004	2.12025E-002	1.85502E-002	-8.95912E-004	-1.28276E-003	2.46681E-002	-1.51965E-003
	121	121	1.10031E+000	3.46520E-002	0.00000E+000	3.81280E-002	3.45752E-001	3.99536E-002	4.77809E+001	11	...........	6.66401E-002	-5.17694E-003	6.09110E-001	5.32937E-001	-2.57369E-002	-3.68319E-002	7.08759E-001	-4.37010E-002	2.30922E-003	-1.79392E-004	2.11069E-002	1.84673E-002	-8.91837E-004	-1.27630E-003	2.45599E-002	-1.51433E-003
	122	122	1.10035E+000	3.48905E-002	0.00000E+000	3.83917E-002	3.48123E-001	4.03492E-002	4.99278E+001	11	...........	6.73097E-002	-5.21361E-003	6.09163E-001	5.32995E-001	-2.57586E-002	-3.68350E-002	7.08545E-001	-4.37714E-002	2.34847E-003	-1.81906E-004	2.12540E-002	1.85965E-002	-8.98731E-004	-1.28519E-003	2.47215E-002	-1.52721E-003
	123	123	1.10043E+000	3.45606E-002	0.00000E+000	3.80316E-002	3.44843E-001	4.00700E-002	4.92770E+001	11	...........	6.68532E-002	-5.24736E-003	6.09310E-001	5.32910E-001	-2.57568E-002	-3.68415E-002	7.08592E-001	-4.37203E-002	2.31049E-003	-1.81352E-004	2.10581E-002	1.84177E-002	-8.90171E-004	-1.27327E-003	2.44894E-002	-1.51100E-003
	124	124	1.10031E+000	3.44385E-002	0.00000E+000	3.78932E-002	3.43630E-001	4.00167E-002	4.79610E+001	11	...........	6.67621E-002	-5.28833E-003	6.09265E-001	5.33111E-001	-2.57369E-002	-3.68187E-002	7.08640E-001	-4.37593E-002	2.29919E-003	-1.82122E-004	2.09822E-002	1.83595E-002	-8.86342E-004	-1.26798E-003	2.44045E-002	-1.50701E-003
	125	125	1.10035E+000	3.46068E-002	0.00000E+000	3.80794E-002	3.45309E-001	4.01368E-002	4.95886E+001	11	...........	6.69529E-002	-5.27458E-003	6.09131E-001	5.33074E-001	-2.57450E-002	-3.67975E-002	7.08561E-001	-4.37725E-002	2.31703E-003	-1.82536E-004	2.10801E-002	1.84480E-002	-8.90952E-004	-1.27344E-003	2.45210E-002	-1.51483E-003
	126	126	1.10043E+000	3.42962E-002	0.00000E+000	3.77405E-002	3.42217E-001	3.99465E-002	4.74477E+001	11	...........	6.66361E-002	-5.20806E-003	6.09017E-001	5.33230E-001	-2.57087E-002	-3.67857E-002	7.08528E-001	-4.37567E-002	2.28536E-003	-1.78616E-004	2.08870E-002	1.82877E-002	-8.81711E-004	-1.26161E-003	2.42998E-002	-1.50069E-003
	127	127	1.10031E+000	3.42217E-002	0.00000E+000	3.76546E-002	3.41472E-001	3.99987E-002	4.94121E+001	11	...........	6.67411E-002	-5.19417E-003	6.09083E-001	5.33232E-001	-2.56926E-002	-3.67954E-002	7.08549E-001	-4.37874E-002	2.28399E-003	-1.77753E-004	2.08438E-002	1.82481E-002	-8.79245E-004	-1.25920E-003	2.42477E-002	-1.49848E-003
	128	128	1.10035E+000	3.43700E-002	0.00000E+000	3.78189E-002	3.42952E-001	4.00781E-002	5.01588E+001	11	...........	6.68628E-002	-5.36639E-003	6.09273E-001	5.33235E-001	-2.56936E-002	-3.68099E-002	7.08486E-001	-4.38436E-002	2.29807E-003	-1.84443E-004	2.09407E-002	1.83273E-002	-8.83089E-004	-1.26515E-003	2.43506E-002	-1.50690E-003
	129	129	1.10043E+000	3.41209E-002	0.00000E+000	3.75476E-002	3.40474E-001	3.99982E-002	4.80939E+001	11	...........	6.67075E-002	-5.35542E-003	6.09405E-001	5.33272E-001	-2.56842E-002	-3.68236E-002	7.08481E-001	-4.38744E-002	2.27612E-003	-1.82732E-004	2.07934E-002	1.81957E-002	-8.76367E-004	-1.25645E-003	2.41740E-002	-1.49704E-003
	130	130	1.10032E+000	3.39530E-002	0.00000E+000	3.73590E-002	3.38805E-001	3.96972E-002	4.83775E+001	11	...........	6.62075E-002	-5.29597E-003	6.09373E-001	5.33199E-001	-2.56746E-002	-3.68144E-002	7.08383E-001	-4.38787E-002	2.24794E-003	-1.79814E-004	2.06900E-002	1.81037E-002	-8.71728E-004	-1.24996E-003	2.40517E-002	-1.48981E-003
	131	131	1.10035E+000	3.41337E-002	0.00000E+000	3.75589E-002	3.40601E-001	4.02137E-002	4.84001E+001	11	...........	6.70757E-002	-5.41764E-003	6.09231E-001	5.33153E-001	-2.56874E-002	-3.68278E-002	7.08407E-001	-4.38376E-002	2.28954E-003	-1.84924E-004	2.07953E-002	1.81985E-002	-8.76804E-004	-1.25707E-003	2.41805E-002	-1.49634E-003
	132	132	1.10043E+000	3.38401E-002	0.00000E+000	3.72386E-002	3.37682E-001	3.97842E-002	4.92092E+001	11	...........	6.63779E-002	-5.32861E-003	6.09231E-001	5.33250E-001	-2.57089E-002	-3.68219E-002	7.08515E-001	-4.37640E-002	2.24624E-003	-1.80321E-004	2.06165E-002	1.80452E-002	-8.69993E-004	-1.24606E-003	2.39763E-002	-1.48098E-003
	133	133	1.10032E+000	3.37419E-002	0.00000E+000	3.71269E-002	3.36706E-001	4.00658E-002	4.91384E+001	11	...........	6.68269E-002	-5.26875E-003	6.09207E-001	5.33201E-001	-2.56886E-002	-3.68186E-002	7.08564E-001	-4.37433E-002	2.25487E-003	-1.77778E-004	2.05558E-002	1.79912E-002	-8.66783E-004	-1.24233E-003	2.39083E-002	-1.47598E-003
	134	134	1.10034E+000	3.39184E-002	0.00000E+000	3.73219E-002	3.38458E-001	4.00128E-002	4.95960E+001	11	...........	6.67371E-002	-5.38639E-003	6.09168E-001	5.32999E-001	-2.56890E-002	-3.68535E-002	7.08577E-001	-4.37876E-002	2.26361E-003	-1.82698E-004	2.06620E-002	1.80785E-002	-8.71330E-004	-1.25001E-003	2.40338E-002	-1.48521E-003
	135	135	1.10043E+000	3.36457E-002	0.00000E+000	3.70246E-002	3.35750E-001	3.98413E-002	4.95906E+001	11	...........	6.64678E-002	-5.43986E-003	6.09138E-001	5.32960E-001	-2.56979E-002	-3.68444E-002	7.08608E-001	-4.39124E-002	2.23636E-003	-1.83028E-004	2.04949E-002	1.79318E-002	-8.64625E-004	-1.23966E-003	2.38416E-002	-1.47746E-003
	136	136	1.10032E+000	3.34804E-002	0.00000E+000	3.68391E-002	3.34104E-001	4.00528E-002	4.80696E+001	11	...........	6.68142E-002	-5.32583E-003	6.09112E-001	5.32899E-001	-2.56971E-002	-3.68512E-002	7.08488E-001	-4.38426E-002	2.23696E-003	-1.78311E-004	2.03933E-002	1.78417E-002	-8.60348E-004	-1.23379E-003	2.37205E-002	-1.46787E-003
	137	137	1.10034E+000	3.35940E-002	0.00000E+000	3.69650E-002	3.35237E-001	3.93395E-002	4.70086E+001	11	...........	6.56056E-002	-5.23583E-003	6.09137E-001	5.32985E-001	-2.57117E-002	-3.68485E-002	7.08536E-001	-4.36914E-002	2.20395E-003	-1.75893E-004	2.04634E-002	1.79051E-002	-8.63758E-004	-1.23789E-003	2.38026E-002	-1.46777E-003
	138	138	1.10042E+000	3.34235E-002	0.00000E+000	3.67800E-002	3.33542E-001	4.02482E-002	4.90175E+001	11	...........	6.71450E-002	-5.23208E-003	6.09226E-001	5.33068E-001	-2.57040E-002	-3.68687E-002	7.08635E-001	-4.36840E-002	2.24422E-003	-1.74874E-004	2.03625E-002	1.78170E-002	-8.59118E-004	-1.23228E-003	2.36851E-002	-1.46007E-003
	139	139	1.10032E+000	3.32645E-002	0.00000E+000	3.66017E-002	3.31958E-001	3.98299E-002	4.98175E+001	11	...........	6.64389E-002	-5.28819E-003	6.09322E-001	5.32940E-001	-2.56865E-002	-3.68811E-002	7.08551E-001	-4.36362E-002	2.21006E-003	-1.75909E-004	2.02688E-002	1.77280E-002	-8.54451E-004	-1.22683E-003	2.35696E-002	-1.45154E-003
	140	140	1.10034E+000	3.33893E-002	0.00000E+000	3.67397E-002	3.33199E-001	3.98247E-002	4.86803E+001	11	...........	6.64282E-002	-5.35569E-003	6.09472E-001	5.32820E-001	-2.56842E-002	-3.68925E-002	7.08568E-001	-4.36199E-002	2.21799E-003	-1.78823E-004	2.03499E-002	1.77905E-002	-8.57577E-004	-1.23182E-003	2.36586E-002	-1.45644E-003
	141	141	1.10042E+000	3.32157E-002	0.00000E+000	3.65513E-002	3.31474E-001	3.98757E-002	4.98257E+001	11	...........	6.65179E-002	-5.42681E-003	6.09414E-001	5.32843E-001	-2.56678E-002	-3.68943E-002	7.08491E-001	-4.36754E-002	2.20944E-003	-1.80255E-004	2.02421E-002	1.76988E-002	-8.52574E-004	-1.22547E-003	2.35330E-002	-1.45071E-003
	142	142	1.10033E+000	3.29992E-002	0.00000E+000	3.63099E-002	3.29323E-001	3.97796E-002	4.79539E+001	11	...........	6.63654E-002	-5.45764E-003	6.09366E-001	5.32882E-001	-2.56761E-002	-3.68836E-002	7.08504E-001	-4.36882E-002	2.19001E-003	-1.80098E-004	2.01086E-002	1.75847E-002	-8.47291E-004	-1.21713E-003	2.33801E-002	-1.44168E-003
	143	143	1.10034E+000	3.31933E-002	0.00000E+000	3.65239E-002	3.31255E-001	3.96905E-002	4.88951E+001	11	...........	6.62032E-002	-5.36347E-003	6.09320E-001	5.33164E-001	-2.57101E-002	-3.68768E-002	7.08563E-001	-4.37556E-002	2.19750E-003	-1.78031E-004	2.02254E-002	1.76975E-002	-8.53405E-004	-1.22406E-003	2.35196E-002	-1.45239E-003
	144	144	1.10042E+000	3.30180E-002	0.00000E+000	3.63337E-002	3.29508E-001	3.98208E-002	5.01130E+001	11	...........	6.64168E-002	-5.27028E-003	6.09283E-001	5.33256E-001	-2.57011E-002	-3.69097E-002	7.08543E-001	-4.38408E-002	2.19295E-003	-1.74014E-004	2.01173E-002	1.76071E-002	-8.48600E-004	-1.21869E-003	2.33947E-002	-1.44754E-003
	145	145	1.10033E+000	3.27870E-002	0.00000E+000	3.60765E-002	3.27213E-001	3.97597E-002	4.94245E+001	11	...........	6.63214E-002	-5.23486E-003	6.09309E-001	5.33187E-001	-2.56986E-002	-3.69131E-002	7.08659E-001	-4.38492E-002	2.17448E-003	-1.71636E-004	1.99774E-002	1.74816E-002	-8.42581E-004	-1.21027E-003	2.32348E-002	-1.43768E-003
	146	146	1.10034E+000	3.29151E-002	0.00000E+000	3.62178E-002	3.28482E-001	3.94875E-002	4.56578E+001	11	...........	6.58631E-002	-5.20764E-003	6.09218E-001	5.33105E-001	-2.56940E-002	-3.69003E-002	7.08562E-001	-4.37986E-002	2.16789E-003	-1.71410E-004	2.00525E-002	1.75472E-002	-8.45722E-004	-1.21458E-003	2.33224E-002	-1.44164E-003
	147	147	1.10042E+000	3.27687E-002	0.00000E+000	3.60593E-002	3.27029E-001	3.98293E-002	4.93432E+001	11	...........	6.64406E-002	-5.18931E-003	6.09136E-001	5.33135E-001	-2.57036E-002	-3.68543E-002	7.08552E-001	-4.38285E-002	2.17717E-003	-1.70047E-004	1.99606E-002	1.74701E-002	-8.42275E-004	-1.20767E-003	2.32184E-002	-1.43620E-003
	148	148	1.10033E+000	3.25430E-002	0.00000E+000	3.58080E-002	3.24785E-001	3.96450E-002	4.94233E+001	11	...........	6.61319E-002	-5.28194E-003	6.08895E-001	5.33291E-001	-2.57225E-002	-3.68272E-002	7.08545E-001	-4.38660E-002	2.15213E-003	-1.71890E-004	1.98152E-002	1.73549E-002	-8.37086E-004	-1.19847E-003	2.30581E-002	-1.42753E-003
	149	149	1.10034E+000	3.27506E-002	0.00000E+000	3.60368E-002	3.26848E-001	3.97071E-002	5.00195E+001	11	...........	6.62387E-002	-5.38111E-003	6.08811E-001	5.33270E-001	-2.83040E-002	-3.62232E-002	7.08677E-001	-4.37372E-002	2.16936E-003	-1.76235E-004	1.99389E-002	1.74649E-002	-9.26974E-004	-1.18633E-003	2.32096E-002	-1.43242E-003
	150	150	1.10042E+000	3.25701E-002	0.00000E+000	3.58407E-002	3.25059E-001	3.96848E-002	4.87111E+001	11	...........	6.61989E-002	-5.30569E-003	6.08917E-001	5.33240E-001	-3.51496E-002	-3.87321E-002	7.08589E-001	-4.36426E-002	2.15611E-003	-1.72807E-004	1.98325E-002	1.73677E-002	-1.14483E-003	-1.26151E-003	2.30789E-002	-1.42145E-003
	151	151	1.10033E+000	3.22985E-002	0.00000E+000	3.55392E-002	3.22354E-001	3.94417E-002	4.74677E+001	11	...........	6.57876E-002	-5.30903E-003	6.08846E-001	5.33417E-001	-2.19699E-002	-3.79129E-002	7.08451E-001	-4.37564E-002	2.12484E-003	-1.71474E-004	1.96648E-002	1.72286E-002	-7.09594E-004	-1.22453E-003	2.28819E-002	-1.41327E-003
	152	152	1.10034E+000	3.24951E-002	0.00000E+000	3.57557E-002	3.24306E-001	3.96548E-002	4.89393E+001	11	...........	6.61699E-002	-5.26264E-003	6.08828E-001	5.33479E-001	-2.29551E-002	-3.76533E-002	7.08547E-001	-4.37985E-002	2.15020E-003	-1.71010E-004	1.97839E-002	1.73355E-002	-7.45930E-004	-1.22355E-003	2.30243E-002	-1.42324E-003
	153	153	1.10041E+000	3.23510E-002	0.00000E+000	3.55995E-002	3.22871E-001	3.96616E-002	5.00344E+001	11	...........	6.61540E-002	-5.21514E-003	6.08737E-001	5.33550E-001	-2.35118E-002	-3.73581E-002	7.08595E-001	-4.37939E-002	2.14015E-003	-1.68715E-004	1.96932E-002	1.72609E-002	-7.60630E-004	-1.20857E-003	2.29237E-002	-1.41678E-003
	154	154	1.10034E+000	3.21161E-002	0.00000E+000	3.53386E-002	3.20541E-001	3.96515E-002	4.94006E+001	11	...........	6.61524E-002	-5.23111E-003	6.08794E-001	5.33645E-001	-2.40324E-002	-3.71957E-002	7.08680E-001	-4.38528E-002	2.12456E-003	-1.68003E-004	1.95521E-002	1.71386E-002	-7.71826E-004	-1.19458E-003	2.27601E-002	-1.40838E-003
	155	155	1.10034E+000	3.22720E-002	0.00000E+000	3.55101E-002	3.22089E-001	3.95409E-002	4.97420E+001	11	...........	6.59765E-002	-5.26319E-003	6.08803E-001	5.33771E-001	-2.43553E-002	-3.70540E-002	7.08632E-001	-4.38985E-002	2.12919E-003	-1.69854E-004	1.96473E-002	1.72259E-002	-7.85993E-004	-1.19581E-003	2.28690E-002	-1.41669E-003
	156	156	1.10041E+000	3.20699E-002	0.00000E+000	3.52901E-002	3.20081E-001	3.95614E-002	4.84716E+001	11	...........	6.59964E-002	-5.34417E-003	6.08904E-001	5.33786E-001	-2.45592E-002	-3.68947E-002	7.08587E-001	-4.38587E-002	2.11649E-003	-1.71387E-004	1.95275E-002	1.71184E-002	-7.87609E-004	-1.18321E-003	2.27243E-002	-1.40654E-003
	157	157	1.10034E+000	3.18763E-002	0.00000E+000	3.50747E-002	3.18157E-001	3.95910E-002	4.70804E+001	11	...........	6.60079E-002	-5.42986E-003	6.08850E-001	5.33720E-001	-2.47169E-002	-3.67794E-002	7.08503E-001	-4.38471E-002	2.10409E-003	-1.73084E-004	1.94079E-002	1.70130E-002	-7.87885E-004	-1.17239E-003	2.25845E-002	-1.39768E-003
	158	158	1.10034E+000	3.20506E-002	0.00000E+000	3.52665E-002	3.19893E-001	3.94875E-002	4.94398E+001	11	...........	6.58733E-002	-5.47750E-003	6.08791E-001	5.33596E-001	-2.48931E-002	-3.66869E-002	7.08512E-001	-4.37474E-002	2.11128E-003	-1.75557E-004	1.95121E-002	1.71021E-002	-7.97837E-004	-1.17584E-003	2.27082E-002	-1.40213E-003
	159	159	1.10041E+000	3.19046E-002	0.00000E+000	3.51081E-002	3.18438E-001	3.96446E-002	4.99552E+001	11	...........	6.60929E-002	-5.46417E-003	6.08821E-001	5.33410E-001	-2.50499E-002	-3.66433E-002	7.08505E-001	-4.37636E-002	2.10867E-003	-1.74332E-004	1.94242E-002	1.70182E-002	-7.99205E-004	-1.16909E-003	2.26046E-002	-1.39626E-003
	160	160	1.10034E+000	3.16660E-002	0.00000E+000	3.48434E-002	3.16066E-001	3.95492E-002	4.92280E+001	11	...........	6.59785E-002	-5.30278E-003	6.08776E-001	5.33355E-001	-2.51862E-002	-3.65765E-002	7.08624E-001	-4.38231E-002	2.08927E-003	-1.67918E-004	1.92775E-002	1.68892E-002	-7.97547E-004	-1.15823E-003	2.24393E-002	-1.38770E-003
	161	161	1.10034E+000	3.18103E-002	0.00000E+000	3.50021E-002	3.17499E-001	3.94096E-002	4.83467E+001	11	...........	6.57569E-002	-5.31403E-003	6.08648E-001	5.33345E-001	-2.52800E-002	-3.65232E-002	7.08584E-001	-4.38581E-002	2.09174E-003	-1.69041E-004	1.93613E-002	1.69658E-002	-8.04163E-004	-1.16181E-003	2.25402E-002	-1.39514E-003
	162	162	1.10041E+000	3.17387E-002	0.00000E+000	3.49256E-002	3.16789E-001	3.95452E-002	4.98376E+001	11	...........	6.59626E-002	-5.30889E-003	6.08824E-001	5.33116E-001	-2.53783E-002	-3.64887E-002	7.08531E-001	-4.39437E-002	2.09357E-003	-1.68497E-004	1.93233E-002	1.69204E-002	-8.05476E-004	-1.15811E-003	2.24879E-002	-1.39472E-003
	163	163	1.10034E+000	3.14456E-002	0.00000E+000	3.46009E-002	3.13872E-001	3.94752E-002	4.96836E+001	11	...........	6.58575E-002	-5.24250E-003	6.09038E-001	5.33058E-001	-2.54625E-002	-3.64447E-002	7.08492E-001	-4.39285E-002	2.07093E-003	-1.64854E-004	1.91516E-002	1.67623E-002	-8.00683E-004	-1.14603E-003	2.22789E-002	-1.38136E-003
	164	164	1.10034E+000	3.16021E-002	0.00000E+000	3.47731E-002	3.15433E-001	3.94842E-002	4.83950E+001	11	...........	6.58519E-002	-5.30264E-003	6.09257E-001	5.32841E-001	-2.55031E-002	-3.63904E-002	7.08490E-001	-4.36403E-002	2.08106E-003	-1.67575E-004	1.92538E-002	1.68389E-002	-8.05951E-004	-1.15001E-003	2.23898E-002	-1.37913E-003
	165	165	1.10040E+000	3.14725E-002	0.00000E+000	3.46325E-002	3.14145E-001	3.93378E-002	4.86936E+001	11	...........	6.56332E-002	-5.31806E-003	6.09202E-001	5.32761E-001	-2.55325E-002	-3.63628E-002	7.08515E-001	-4.36236E-002	2.06564E-003	-1.67373E-004	1.91731E-002	1.67673E-002	-8.03572E-004	-1.14443E-003	2.22987E-002	-1.37294E-003
	166	166	1.10035E+000	3.12333E-002	0.00000E+000	3.43675E-002	3.11765E-001	3.93813E-002	5.00232E+001	11	...........	6.56918E-002	-5.32875E-003	6.09312E-001	5.32831E-001	-2.57247E-002	-3.63612E-002	7.08566E-001	-4.36776E-002	2.05177E-003	-1.66435E-004	1.90308E-002	1.66421E-002	-8.03469E-004	-1.13568E-003	2.21309E-002	-1.36420E-003
	167	167	1.10034E+000	3.13727E-002	0.00000E+000	3.45206E-002	3.13147E-001	3.93649E-002	4.72956E+001	11	...........	6.56646E-002	-5.31139E-003	6.09392E-001	5.32900E-001	-2.78047E-002	-3.65987E-002	7.08546E-001	-4.37993E-002	2.06008E-003	-1.66633E-004	1.91183E-002	1.67185E-002	-8.72309E-004	-1.14820E-003	2.22290E-002	-1.37410E-003
	168	168	1.10040E+000	3.12986E-002	0.00000E+000	3.44411E-002	3.12416E-001	3.95199E-002	4.96308E+001	11	...........	6.59278E-002	-5.36000E-003	6.09458E-001	5.32842E-001	-4.62661E-002	-3.81303E-002	7.08765E-001	-4.39097E-002	2.06345E-003	-1.67761E-004	1.90752E-002	1.66772E-002	-1.44807E-003	-1.19343E-003	2.21834E-002	-1.37431E-003
	169	169	1.10035E+000	3.09960E-002	0.00000E+000	3.41064E-002	3.09403E-001	3.91824E-002	4.93880E+001	11	...........	6.53558E-002	-5.27653E-003	6.09390E-001	5.33253E-001	-2.08561E-002	-3.76083E-002	7.08229E-001	-4.37858E-002	2.02577E-003	-1.63551E-004	1.88886E-002	1.65287E-002	-6.46455E-004	-1.16571E-003	2.19522E-002	-1.35718E-003
	170	170	1.10034E+000	3.11725E-002	0.00000E+000	3.43002E-002	3.11157E-001	3.94731E-002	4.90819E+001	11	...........	6.58440E-002	-5.26653E-003	6.09374E-001	5.33275E-001	-2.02419E-002	-3.77325E-002	7.08392E-001	-4.37407E-002	2.05252E-003	-1.64171E-004	1.89957E-002	1.66235E-002	-6.30991E-004	-1.17622E-003	2.20823E-002	-1.36351E-003
	171	171	1.10040E+000	3.10500E-002	0.00000E+000	3.41675E-002	3.09944E-001	3.91562E-002	4.71683E+001	11	...........	6.53107E-002	-5.19722E-003	6.09463E-001	5.33318E-001	-2.14893E-002	-3.72028E-002	7.08461E-001	-4.37176E-002	2.02789E-003	-1.61374E-004	1.89238E-002	1.65595E-002	-6.67242E-004	-1.15515E-003	2.19977E-002	-1.35743E-003
	172	172	1.10035E+000	3.08073E-002	0.00000E+000	3.38989E-002	3.07531E-001	3.93423E-002	4.93451E+001	11	...........	6.55964E-002	-5.24778E-003	6.09512E-001	5.33302E-001	-2.25231E-002	-3.68232E-002	7.08561E-001	-4.37568E-002	2.02085E-003	-1.61670E-004	1.87774E-002	1.64296E-002	-6.93875E-004	-1.13442E-003	2.18289E-002	-1.34803E-003
	173	173	1.10033E+000	3.10160E-002	0.00000E+000	3.41280E-002	3.09603E-001	3.94269E-002	5.00514E+001	11	...........	6.57735E-002	-5.26292E-003	6.09502E-001	5.33356E-001	-2.32403E-002	-3.65724E-002	7.08524E-001	-4.36846E-002	2.04003E-003	-1.63235E-004	1.89043E-002	1.65426E-002	-7.20821E-004	-1.13433E-003	2.19756E-002	-1.35492E-003
	174	174	1.10040E+000	3.09205E-002	0.00000E+000	3.40249E-002	3.08656E-001	3.92813E-002	4.90461E+001	11	...........	6.55283E-002	-5.32708E-003	6.09328E-001	5.33485E-001	-2.37465E-002	-3.63537E-002	7.08481E-001	-4.36635E-002	2.02617E-003	-1.64716E-004	1.88407E-002	1.64956E-002	-7.34254E-004	-1.12408E-003	2.19066E-002	-1.35010E-003
	175	175	1.10036E+000	3.06141E-002	0.00000E+000	3.36864E-002	3.05608E-001	3.93257E-002	4.96910E+001	11	...........	6.56036E-002	-5.39292E-003	6.09147E-001	5.33375E-001	-2.41443E-002	-3.61956E-002	7.08594E-001	-4.36801E-002	2.00839E-003	-1.65099E-004	1.86485E-002	1.63288E-002	-7.39156E-004	-1.10809E-003	2.16930E-002	-1.33723E-003
	176	176	1.10033E+000	3.07585E-002	0.00000E+000	3.38446E-002	3.07045E-001	3.91178E-002	4.72501E+001	11	...........	6.52576E-002	-5.39847E-003	6.09118E-001	5.33158E-001	-2.44858E-002	-3.60975E-002	7.08674E-001	-4.35956E-002	2.00723E-003	-1.66049E-004	1.87355E-002	1.63991E-002	-7.53147E-004	-1.11030E-003	2.17977E-002	-1.34093E-003
	177	177	1.10040E+000	3.07157E-002	0.00000E+000	3.37996E-002	3.06619E-001	3.92606E-002	4.90849E+001	11	...........	6.55028E-002	-5.34250E-003	6.09152E-001	5.33237E-001	-2.47635E-002	-3.60328E-002	7.08668E-001	-4.36762E-002	2.01197E-003	-1.64099E-004	1.87106E-002	1.63788E-002	-7.60628E-004	-1.10677E-003	2.17672E-002	-1.34155E-003
	178	178	1.10036E+000	3.04004E-002	0.00000E+000	3.34513E-002	3.03486E-001	3.93145E-002	5.01580E+001	11	...........	6.55853E-002	-5.38000E-003	6.09123E-001	5.33345E-001	-2.49958E-002	-3.59929E-002	7.08521E-001	-4.37836E-002	1.99382E-003	-1.63554E-004	1.85176E-002	1.62139E-002	-7.59882E-004	-1.09420E-003	2.15393E-002	-1.33104E-003
	179	179	1.10033E+000	3.05666E-002	0.00000E+000	3.36335E-002	3.05138E-001	3.92764E-002	5.00780E+001	11	...........	6.55111E-002	-5.36681E-003	6.09251E-001	5.33374E-001	-2.51764E-002	-3.59544E-002	7.08582E-001	-4.37397E-002	2.00245E-003	-1.64045E-004	1.86228E-002	1.63035E-002	-7.69558E-004	-1.09901E-003	2.16590E-002	-1.33698E-003
	180	180	1.10040E+000	3.04495E-002	0.00000E+000	3.35065E-002	3.03974E-001	3.90568E-002	4.55531E+001	11	...........	6.51510E-002	-5.36181E-003	6.09292E-001	5.33516E-001	-2.53137E-002	-3.59089E-002	7.08538E-001	-4.38293E-002	1.98381E-003	-1.63264E-004	1.85526E-002	1.62453E-002	-7.70791E-004	-1.09341E-003	2.15746E-002	-1.33458E-003
	181	181	1.10036E+000	3.02042E-002	0.00000E+000	3.32355E-002	3.01536E-001	3.92128E-002	4.85906E+001	11	...........	6.54035E-002	-5.20931E-003	6.09212E-001	5.33559E-001	-2.53915E-002	-3.58975E-002	7.08471E-001	-4.37687E-002	1.97546E-003	-1.57343E-004	1.84007E-002	1.61157E-002	-7.66930E-004	-1.08425E-003	2.13988E-002	-1.32200E-003
	182	182	1.10033E+000	3.03707E-002	0.00000E+000	3.34179E-002	3.03189E-001	3.92525E-002	4.99472E+001	11	...........	6.54800E-002	-5.26875E-003	6.09356E-001	5.33352E-001	-2.54657E-002	-3.58936E-002	7.08433E-001	-4.38279E-002	1.98868E-003	-1.60016E-004	1.85066E-002	1.61983E-002	-7.73412E-004	-1.09012E-003	2.15157E-002	-1.33109E-003
	183	183	1.10039E+000	3.03006E-002	0.00000E+000	3.33426E-002	3.02494E-001	3.92480E-002	4.97978E+001	11	...........	6.54751E-002	-5.30931E-003	6.09391E-001	5.33249E-001	-2.55239E-002	-3.58890E-002	7.08445E-001	-4.38324E-002	1.98393E-003	-1.60875E-004	1.84649E-002	1.61577E-002	-7.73388E-004	-1.08746E-003	2.14663E-002	-1.32814E-003
	184	184	1.10037E+000	2.99984E-002	0.00000E+000	3.30091E-002	2.99489E-001	3.91943E-002	4.87447E+001	11	...........	6.53767E-002	-5.31444E-003	6.09526E-001	5.33275E-001	-2.55571E-002	-3.58986E-002	7.08369E-001	-4.37731E-002	1.96119E-003	-1.59425E-004	1.82848E-002	1.59974E-002	-7.66670E-004	-1.07690E-003	2.12499E-002	-1.31312E-003
	185	185	1.10033E+000	3.01363E-002	0.00000E+000	3.31599E-002	3.00860E-001	3.92020E-002	4.79454E+001	11	...........	6.53946E-002	-5.33875E-003	6.09648E-001	5.33145E-001	-2.55885E-002	-3.58785E-002	7.08272E-001	-4.38172E-002	1.97075E-003	-1.60890E-004	1.83725E-002	1.60670E-002	-7.71141E-004	-1.08124E-003	2.13447E-002	-1.32049E-003
	186	186	1.10039E+000	3.00793E-002	0.00000E+000	3.30989E-002	3.00292E-001	3.90817E-002	4.86290E+001	11	...........	6.51957E-002	-5.33903E-003	6.09727E-001	5.33108E-001	-2.56026E-002	-3.58742E-002	7.08291E-001	-4.38157E-002	1.96104E-003	-1.60594E-004	1.83402E-002	1.60355E-002	-7.70109E-004	-1.07907E-003	2.13049E-002	-1.31795E-003
	187	187	1.10037E+000	2.97772E-002	0.00000E+000	3.27659E-002	2.97291E-001	3.90131E-002	4.86090E+001	11	...........	6.50840E-002	-5.36833E-003	6.09849E-001	5.33058E-001	-2.56283E-002	-3.58822E-002	7.08317E-001	-4.37026E-002	1.93802E-003	-1.59854E-004	1.81596E-002	1.58730E-002	-7.63141E-004	-1.06847E-003	2.10917E-002	-1.30134E-003
	188	188	1.10033E+000	2.99536E-002	0.00000E+000	3.29589E-002	2.99045E-001	3.92810E-002	4.97747E+001	11	...........	6.55208E-002	-5.40361E-003	6.10017E-001	5.33147E-001	-2.56460E-002	-3.58921E-002	7.08412E-001	-4.37878E-002	1.96259E-003	-1.61858E-004	1.82722E-002	1.59697E-002	-7.68190E-004	-1.07510E-003	2.12195E-002	-1.31160E-003
	189	189	1.10039E+000	2.98764E-002	0.00000E+000	3.28757E-002	2.98278E-001	3.90853E-002	4.92990E+001	11	...........	6.52129E-002	-5.45375E-003	6.10014E-001	5.33132E-001	-2.56575E-002	-3.59310E-002	7.08425E-001	-4.38235E-002	1.94833E-003	-1.62938E-004	1.82250E-002	1.59281E-002	-7.66553E-004	-1.07349E-003	2.11652E-002	-1.30929E-003
	190	190	1.10037E+000	2.95331E-002	0.00000E+000	3.24973E-002	2.94865E-001	3.88363E-002	4.60971E+001	11	...........	6.47735E-002	-5.48778E-003	6.09992E-001	5.33017E-001	-2.56762E-002	-3.59779E-002	7.08407E-001	-4.37774E-002	1.91296E-003	-1.62071E-004	1.80149E-002	1.57416E-002	-7.58298E-004	-1.06254E-003	2.09214E-002	-1.29288E-003
	191	191	1.10033E+000	2.97271E-002	0.00000E+000	3.27096E-002	2.96795E-001	3.91057E-002	4.78971E+001	11	...........	6.52304E-002	-5.38625E-003	6.10032E-001	5.32979E-001	-2.56974E-002	-3.59997E-002	7.08305E-001	-4.38192E-002	1.93911E-003	-1.60118E-004	1.81345E-002	1.58439E-002	-7.63908E-004	-1.07017E-003	2.10559E-002	-1.30262E-003
	192	192	1.10039E+000	2.97000E-002	0.00000E+000	3.26815E-002	2.96521E-001	3.91877E-002	4.97822E+001	11	...........	6.53675E-002	-5.40903E-003	6.10193E-001	5.32949E-001	-2.56947E-002	-3.60200E-002	7.08260E-001	-4.37619E-002	1.94141E-003	-1.60648E-004	1.81227E-002	1.58286E-002	-7.63133E-004	-1.06979E-003	2.10353E-002	-1.29973E-003
	193	193	1.10037E+000	2.93498E-002	0.00000E+000	3.22958E-002	2.93039E-001	3.90855E-002	4.94131E+001	11	...........	6.51761E-002	-5.41944E-003	6.10369E-001	5.33049E-001	-2.57149E-002	-3.60561E-002	7.08196E-001	-4.37501E-002	1.91291E-003	-1.59060E-004	1.79142E-002	1.56449E-002	-7.54726E-004	-1.05824E-003	2.07854E-002	-1.28406E-003
	194	194	1.10033E+000	2.95173E-002	0.00000E+000	3.24787E-002	2.94704E-001	3.91229E-002	4.73586E+001	11	...........	6.52558E-002	-5.36639E-003	6.10269E-001	5.33012E-001	-2.57207E-002	-3.60624E-002	7.08273E-001	-4.38064E-002	1.92617E-003	-1.58401E-004	1.80135E-002	1.57331E-002	-7.59204E-004	-1.06446E-003	2.09063E-002	-1.29304E-003
	195	195	1.10038E+000	2.95038E-002	0.00000E+000	3.24655E-002	2.94568E-001	3.90202E-002	4.95358E+001	11	...........	6.50972E-002	-5.41389E-003	6.10292E-001	5.32954E-001	-2.57017E-002	-3.60774E-002	7.08316E-001	-4.38657E-002	1.92062E-003	-1.59730E-004	1.80060E-002	1.57242E-002	-7.58298E-004	-1.06442E-003	2.08980E-002	-1.29421E-003
	196	196	1.10038E+000	2.91755E-002	0.00000E+000	3.21040E-002	2.91303E-001	3.90126E-002	4.97808E+001	11	...........	6.50832E-002	-5.36069E-003	6.10352E-001	5.32875E-001	-2.56997E-002	-3.60953E-002	7.08335E-001	-4.39524E-002	1.89883E-003	-1.56401E-004	1.78073E-002	1.55469E-002	-7.49802E-004	-1.05310E-003	2.06660E-002	-1.28233E-003
	197	197	1.10033E+000	2.92829E-002	0.00000E+000	3.22208E-002	2.92375E-001	3.90499E-002	4.73120E+001	11	...........	6.51446E-002	-5.42139E-003	6.10534E-001	5.32892E-001	-2.57026E-002	-3.61211E-002	7.08279E-001	-4.38957E-002	1.90762E-003	-1.58754E-004	1.78782E-002	1.56046E-002	-7.52647E-004	-1.05773E-003	2.07404E-002	-1.28539E-003
	198	198	1.10038E+000	2.92678E-002	0.00000E+000	3.22058E-002	2.92223E-001	3.87839E-002	4.75455E+001	11	...........	6.46925E-002	-5.39264E-003	6.10480E-001	5.32970E-001	-2.56896E-002	-3.61576E-002	7.08361E-001	-4.38778E-002	1.89341E-003	-1.57831E-004	1.78674E-002	1.55989E-002	-7.51878E-004	-1.05826E-003	2.07322E-002	-1.28421E-003
	199	199	1.10038E+000	2.89802E-002	0.00000E+000	3.18892E-002	2.89364E-001	3.90857E-002	4.87216E+001	11	...........	6.52125E-002	-5.52569E-003	6.10605E-001	5.32871E-001	-2.57067E-002	-3.61865E-002	7.08610E-001	-4.37957E-002	1.88987E-003	-1.60136E-004	1.76954E-002	1.54427E-002	-7.44983E-004	-1.04869E-003	2.05356E-002	-1.26921E-003
	200	200	1.10033E+000	2.91178E-002	0.00000E+000	3.20391E-002	2.90734E-001	3.89687E-002	4.92644E+001	11	...........	6.50086E-002	-5.42208E-003	6.10673E-001	5.32881E-001	-2.57056E-002	-3.62086E-002	7.08615E-001	-4.38239E-002	1.89291E-003	-1.57879E-004	1.77815E-002	1.55163E-002	-7.48489E-004	-1.05431E-003	2.06333E-002	-1.27605E-003
	201	201	1.10038E+000	2.91158E-002	0.00000E+000	3.20384E-002	2.90714E-001	3.90333E-002	4.96102E+001	11	...........	6.51168E-002	-5.41986E-003	6.10659E-001	5.32867E-001	-2.57374E-002	-3.62357E-002	7.08598E-001	-4.38714E-002	1.89593E-003	-1.57803E-004	1.77798E-002	1.55148E-002	-7.49363E-004	-1.05503E-003	2.06314E-002	-1.27735E-003
	202	202	1.10038E+000	2.87715E-002	0.00000E+000	3.16597E-002	2.87294E-001	3.89169E-002	4.89910E+001	11	...........	6.49330E-002	-5.27347E-003	6.10644E-001	5.32722E-001	-2.57271E-002	-3.62618E-002	7.08615E-001	-4.38658E-002	1.86822E-003	-1.51726E-004	1.75691E-002	1.53272E-002	-7.40207E-004	-1.04331E-003	2.03879E-002	-1.26209E-003
	203	203	1.10033E+000	2.89144E-002	0.00000E+000	3.18153E-002	2.88713E-001	3.90057E-002	4.93512E+001	11	...........	6.50774E-002	-5.19819E-003	6.10517E-001	5.32547E-001	-2.57242E-002	-3.63007E-002	7.08557E-001	-4.37883E-002	1.88167E-003	-1.50303E-004	1.76527E-002	1.53983E-002	-7.43799E-004	-1.04961E-003	2.04875E-002	-1.26611E-003
	204	204	1.10038E+000	2.88670E-002	0.00000E+000	3.17646E-002	2.88243E-001	3.88983E-002	4.62765E+001	11	...........	6.48826E-002	-5.23306E-003	6.10266E-001	5.32231E-001	-2.57187E-002	-3.63279E-002	7.08671E-001	-4.36040E-002	1.87297E-003	-1.51063E-004	1.76166E-002	1.53639E-002	-7.42424E-004	-1.04868E-003	2.04572E-002	-1.25872E-003
	205	204.79	1.10041E+000	2.85763E-002	0.00000E+000	3.14456E-002	2.85357E-001	3.84852E-002	4.75634E+001	11	...........	6.42157E-002	-5.18864E-003	6.10025E-001	5.32229E-001	-2.57268E-002	-3.63553E-002	7.08573E-001	-4.36278E-002	1.83505E-003	-1.48272E-004	1.74322E-002	1.52091E-002	-7.35176E-004	-1.03890E-003	2.02484E-002	-1.24672E-003
STARTTIMEOFFSET	QUANT	675260.8	Start Time Offset (s)
