EXPLAIN
TAG	PWR800_CHARGE
TITLE	LABEL	PWR Charge	Test Identifier
DATE	LABEL	10/12/2022	Date
TIME	LABEL	21:21:15	Time
NOTES	NOTES	1	Notes...
	
PSTAT	PSTAT	REF3000-21114	Potentiostat
CAPACITY	QUANT	5.30000E-002	Capacity (A-hr)
CELLTYPE	SELECTOR	1	Cell Type
WORKINGCONNECTION	SELECTOR	0	Working Connection
MAXCHARGETIME	VARIABLEANDUNITS	7.20000E+003	s	2.00000E+000	hour(s)	Max Charge Time
CHARGEMODE	MULTIPARAM	0	1.00000E-001	Charge Mode	Constant Current	Amp(s)
CHARGECURRENT	QUANT	0.1	Charge Current (A)
VOLTAGEFINISH	TWOPARAM	T	2.50000E-002	7.20000E+003	Voltage Finish	I (A) <	Max Time(s)
SAMPLETIME	QUANT	1.00000E+000	Sample Period (s)
CHARGESTOPAT1	MULTIPARAM	2	1.10000E+000	Stop At 1	|Voltage| > Limit	V
CHARGESTOPAT2	MULTIPARAM	0	0.00000E+000	Stop At 2	None	N/A
AESELECTOR	AESELECTOR	0x1	T	Set Limits	AE Channels
AESBHCSELECTOR	TOGGLE	F	Save Both Half Cells
IRCOMP	TOGGLE	F	IR Measure
EOC	QUANT	0.2526408	Open Circuit (V)
SEQUENCER	TOGGLE	TRUE	Run as Sequence
PSTATMODEL	IQUANT	5	Pstat Model
PSTATSECTION	LABEL	REF3000-21114	Pstat Section
PSTATSERIALNO	LABEL	21114	Pstat Serial Number
CTRLMODE	IQUANT	0	Control Mode
ELECTROMETER	IQUANT	0	RE=0 or CS=1
IESTAB	IQUANT	0	I/E Stability
CASPEED	IQUANT	4	Control Amp Speed
CONVENTION	IQUANT	1	Current Convention
ICHRANGE	IQUANT	2	Ich Range
ICHRANGEMODE	TOGGLE	T	Ich Auto Range
ICHOFFSETENABLE	TOGGLE	F	Ich Offset Enable
ICHOFFSET	QUANT	0	Ich Offset (V)
ICHFILTER	IQUANT	1	Ich Filter
VCHRANGE	IQUANT	3	Vch Range
VCHRANGEMODE	TOGGLE	T	Vch Auto Range
VCHOFFSETENABLE	TOGGLE	F	Vch Offset Enable
VCHOFFSET	QUANT	0	Vch Offset (V)
VCHFILTER	IQUANT	1	Vch Filter
ACHRANGE	IQUANT	2	Ach Range
ACHOFFSETENABLE	TOGGLE	F	Ach Offset Enable
ACHOFFSET	QUANT	0	Ach Offset (V)
ACHFILTER	IQUANT	1	Ach Filter
IERANGELOWERLIMIT	IQUANT	9	I/E Range Lower Limit
IERANGEMODE	TOGGLE	F	I/E AutoRange
IERANGE	IQUANT	9	I/E Range
POSFEEDENABLE	TOGGLE	F	Positive Feedback IR Comp
POSFEEDRESISTANCE	QUANT	0	Positive Feedback Resistance (ohm)
ACHSELECT	IQUANT	1	Ach Select
SENSECABLEID	IQUANT	13	Sense Cable ID
PWRCABLEID	IQUANT	13	Power Cable ID
DCCALDATE	LABEL		DC Calibration Date
ACCALDATE	LABEL		AC Calibration Date
THERMOSELECT	IQUANT	1	Thermo Select
FRAMEWORKVERSION	LABEL	7.8.6	Framework Version
INSTRUMENTVERSION	LABEL	4.50	Instrument Version
COMPLIANCEVOLTAGE	IQUANT	0	Compliance Voltage
CURVE	TABLE	95
	Pt	T	Vf	Im	Vu	Pwr	Sig	Ach	Temp	IERange	Over	Vf1	Vf2	Vf3	Vf4	Vf5	Vf6	Vf7	Vf8	Pwr1	Pwr2	Pwr3	Pwr4	Pwr5	Pwr6	Pwr7	Pwr8
	#	s	V	A	V	W	V	V	deg C	#	bits	V	V	V	V	V	V	V	V	W	W	W	W	W	W	W	W
	0	1	5.39921E-001	9.98654E-002	0.00000E+000	5.39194E-002	9.94000E-001	4.10876E-002	4.12987E+001	11	...........	6.82308E-002	-4.19889E-003	5.67246E-001	6.24400E-001	-2.94776E-002	-3.92282E-002	6.55667E-001	-4.33375E-002	6.81390E-003	-4.19324E-004	5.66482E-002	6.23559E-002	-2.94380E-003	-3.91754E-003	6.54785E-002	-4.32792E-003
	1	2	7.89456E-001	9.98659E-002	0.00000E+000	7.88397E-002	9.94000E-001	4.18897E-002	4.51684E+001	11	...........	6.95583E-002	-4.21986E-003	5.67468E-001	6.24507E-001	-2.94697E-002	-3.92171E-002	6.55610E-001	-4.33072E-002	6.94651E-003	-4.21420E-004	5.66707E-002	6.23670E-002	-2.94302E-003	-3.91645E-003	6.54731E-002	-4.32492E-003
	2	2.21667	1.05752E+000	9.98665E-002	0.00000E+000	1.05610E-001	9.94000E-001	4.19365E-002	5.09116E+001	11	...........	6.95853E-002	-4.32949E-003	5.67597E-001	6.24613E-001	-2.94558E-002	-3.92179E-002	6.55585E-001	-4.31962E-002	6.94923E-003	-4.32371E-004	5.66839E-002	6.23779E-002	-2.94164E-003	-3.91656E-003	6.54710E-002	-4.31385E-003
	3	3	1.10063E+000	6.95023E-002	0.00000E+000	7.64965E-002	6.92089E-001	4.17580E-002	5.08303E+001	11	...........	6.93117E-002	-4.27447E-003	5.67635E-001	6.24749E-001	-2.94860E-002	-3.92454E-002	6.55564E-001	-4.31840E-002	4.81732E-003	-2.97085E-004	3.94520E-002	4.34215E-002	-2.04934E-003	-2.72764E-003	4.55632E-002	-3.00139E-003
	4	4	1.10027E+000	5.27766E-002	0.00000E+000	5.80685E-002	5.25783E-001	4.16678E-002	4.98865E+001	11	...........	6.91783E-002	-4.20694E-003	5.67775E-001	6.24773E-001	-2.94650E-002	-3.92232E-002	6.55580E-001	-4.32899E-002	3.65100E-003	-2.22028E-004	2.99652E-002	3.29734E-002	-1.55506E-003	-2.07007E-003	3.45993E-002	-2.28469E-003
	5	5	1.10009E+000	4.70148E-002	0.00000E+000	5.17203E-002	4.68503E-001	4.16492E-002	4.92804E+001	11	...........	6.91399E-002	-4.11264E-003	5.67765E-001	6.24694E-001	-2.94612E-002	-3.92264E-002	6.55555E-001	-4.32343E-002	3.25059E-003	-1.93355E-004	2.66933E-002	2.93698E-002	-1.38511E-003	-1.84422E-003	3.08208E-002	-2.03265E-003
	6	6	1.10012E+000	4.39962E-002	0.00000E+000	4.84011E-002	4.38488E-001	4.16483E-002	4.87989E+001	11	...........	6.91331E-002	-4.25958E-003	5.67820E-001	6.24638E-001	-2.94708E-002	-3.92307E-002	6.55547E-001	-4.33358E-002	3.04159E-003	-1.87406E-004	2.49819E-002	2.74817E-002	-1.29660E-003	-1.72600E-003	2.88416E-002	-1.90661E-003
	7	7	1.10020E+000	4.15575E-002	0.00000E+000	4.57216E-002	4.14242E-001	4.16241E-002	4.84123E+001	11	...........	6.91072E-002	-4.22583E-003	5.67828E-001	6.24460E-001	-2.95043E-002	-3.92308E-002	6.55439E-001	-4.33512E-002	2.87192E-003	-1.75615E-004	2.35975E-002	2.59510E-002	-1.22613E-003	-1.63034E-003	2.72384E-002	-1.80157E-003
	8	8	1.10006E+000	4.00356E-002	0.00000E+000	4.40416E-002	3.99105E-001	4.17945E-002	4.79312E+001	11	...........	6.93799E-002	-4.15625E-003	5.67732E-001	6.24450E-001	-2.94758E-002	-3.92382E-002	6.55482E-001	-4.33379E-002	2.77767E-003	-1.66398E-004	2.27295E-002	2.50003E-002	-1.18008E-003	-1.57093E-003	2.62427E-002	-1.73506E-003
	9	9	1.10010E+000	3.91280E-002	0.00000E+000	4.30448E-002	3.90083E-001	4.17229E-002	4.73961E+001	11	...........	6.92665E-002	-4.13250E-003	5.67504E-001	6.24484E-001	-2.95035E-002	-3.92369E-002	6.55377E-001	-4.33690E-002	2.71026E-003	-1.61696E-004	2.22053E-002	2.44348E-002	-1.15441E-003	-1.53526E-003	2.56436E-002	-1.69694E-003
	10	10	1.10019E+000	3.80538E-002	0.00000E+000	4.18663E-002	3.79409E-001	4.15718E-002	4.74810E+001	11	...........	6.90131E-002	-4.02431E-003	5.67186E-001	6.24439E-001	-2.95160E-002	-3.92481E-002	6.55401E-001	-4.33628E-002	2.62621E-003	-1.53140E-004	2.15836E-002	2.37623E-002	-1.12319E-003	-1.49354E-003	2.49405E-002	-1.65012E-003
	11	11	1.10006E+000	3.74204E-002	0.00000E+000	4.11646E-002	3.73116E-001	4.15890E-002	4.66738E+001	11	...........	6.90081E-002	-3.93264E-003	5.66980E-001	6.24373E-001	-2.95485E-002	-3.92372E-002	6.55464E-001	-4.32875E-002	2.58231E-003	-1.47161E-004	2.12166E-002	2.33643E-002	-1.10572E-003	-1.46827E-003	2.45278E-002	-1.61984E-003
	12	12	1.10009E+000	3.71514E-002	0.00000E+000	4.08700E-002	3.70437E-001	4.15616E-002	4.69095E+001	11	...........	6.89747E-002	-3.97181E-003	5.66940E-001	6.24364E-001	-2.95424E-002	-3.92444E-002	6.55464E-001	-4.33603E-002	2.56251E-003	-1.47558E-004	2.10626E-002	2.31960E-002	-1.09754E-003	-1.45799E-003	2.43514E-002	-1.61090E-003
	13	13	1.10018E+000	3.65575E-002	0.00000E+000	4.02199E-002	3.64532E-001	4.15748E-002	4.68774E+001	11	...........	6.90032E-002	-4.05569E-003	5.66864E-001	6.24369E-001	-2.95214E-002	-3.92700E-002	6.55472E-001	-4.33896E-002	2.52258E-003	-1.48266E-004	2.07231E-002	2.28254E-002	-1.07923E-003	-1.43561E-003	2.39624E-002	-1.58622E-003
	14	14	1.10006E+000	3.62356E-002	0.00000E+000	3.98612E-002	3.61330E-001	4.15461E-002	4.68121E+001	11	...........	6.89596E-002	-4.06083E-003	5.66865E-001	6.24412E-001	-2.95392E-002	-3.92822E-002	6.55568E-001	-4.33419E-002	2.49879E-003	-1.47147E-004	2.05407E-002	2.26260E-002	-1.07037E-003	-1.42342E-003	2.37549E-002	-1.57052E-003
	15	15	1.10009E+000	3.62143E-002	0.00000E+000	3.98390E-002	3.61115E-001	4.15382E-002	4.67472E+001	11	...........	6.89485E-002	-4.06208E-003	5.66908E-001	6.24481E-001	-2.95681E-002	-3.92864E-002	6.55623E-001	-4.33994E-002	2.49692E-003	-1.47105E-004	2.05302E-002	2.26151E-002	-1.07079E-003	-1.42273E-003	2.37429E-002	-1.57168E-003
	16	16	1.10018E+000	3.57990E-002	0.00000E+000	3.93853E-002	3.56987E-001	4.15148E-002	4.66769E+001	11	...........	6.89178E-002	-4.01681E-003	5.66765E-001	6.24610E-001	-2.95840E-002	-3.92865E-002	6.55740E-001	-4.34169E-002	2.46719E-003	-1.43798E-004	2.02896E-002	2.23604E-002	-1.05908E-003	-1.40642E-003	2.34748E-002	-1.55428E-003
	17	17	1.10006E+000	3.55813E-002	0.00000E+000	3.91415E-002	3.54820E-001	4.14971E-002	4.65905E+001	11	...........	6.88828E-002	-4.06417E-003	5.66587E-001	6.24698E-001	-2.95396E-002	-3.92954E-002	6.55590E-001	-4.34369E-002	2.45094E-003	-1.44608E-004	2.01599E-002	2.22276E-002	-1.05106E-003	-1.39818E-003	2.33268E-002	-1.54554E-003
	18	18	1.10009E+000	3.56255E-002	0.00000E+000	3.91912E-002	3.55259E-001	4.14707E-002	4.65521E+001	11	...........	6.88537E-002	-3.98750E-003	5.66621E-001	6.24796E-001	-2.95294E-002	-3.92993E-002	6.55728E-001	-4.34208E-002	2.45295E-003	-1.42057E-004	2.01862E-002	2.22587E-002	-1.05200E-003	-1.40006E-003	2.33607E-002	-1.54689E-003
	19	19	1.10018E+000	3.52980E-002	0.00000E+000	3.88340E-002	3.52005E-001	4.14373E-002	4.65249E+001	11	...........	6.88065E-002	-4.03736E-003	5.66542E-001	6.24886E-001	-2.95235E-002	-3.93331E-002	6.55719E-001	-4.33944E-002	2.42874E-003	-1.42511E-004	1.99978E-002	2.20573E-002	-1.04212E-003	-1.38838E-003	2.31456E-002	-1.53174E-003
	20	20	1.10006E+000	3.51106E-002	0.00000E+000	3.86237E-002	3.50138E-001	4.14421E-002	4.62074E+001	11	...........	6.90079E-002	-4.06431E-003	5.66495E-001	6.24767E-001	-2.95454E-002	-3.93478E-002	6.55692E-001	-4.33157E-002	2.42291E-003	-1.42700E-004	1.98900E-002	2.19359E-002	-1.03736E-003	-1.38152E-003	2.30217E-002	-1.52084E-003
	21	21	1.10009E+000	3.51939E-002	0.00000E+000	3.87164E-002	3.50971E-001	4.11748E-002	4.64285E+001	11	...........	6.87276E-002	-4.05972E-003	5.66534E-001	6.24762E-001	-2.96064E-002	-3.93550E-002	6.55587E-001	-4.33499E-002	2.41879E-003	-1.42878E-004	1.99386E-002	2.19878E-002	-1.04196E-003	-1.38506E-003	2.30727E-002	-1.52565E-003
	22	22	1.10017E+000	3.49140E-002	0.00000E+000	3.84115E-002	3.48188E-001	4.11535E-002	4.57099E+001	11	...........	6.87067E-002	-4.02000E-003	5.66563E-001	6.24589E-001	-2.95553E-002	-3.93671E-002	6.55638E-001	-4.33703E-002	2.39883E-003	-1.40354E-004	1.97810E-002	2.18069E-002	-1.03189E-003	-1.37446E-003	2.28910E-002	-1.51423E-003
	23	23	1.10006E+000	3.46377E-002	0.00000E+000	3.81037E-002	3.45442E-001	4.09504E-002	4.59781E+001	11	...........	6.83574E-002	-3.99736E-003	5.66589E-001	6.24667E-001	-2.95614E-002	-3.93642E-002	6.55595E-001	-4.33342E-002	2.36774E-003	-1.38460E-004	1.96254E-002	2.16370E-002	-1.02394E-003	-1.36349E-003	2.27083E-002	-1.50100E-003
	24	24	1.10009E+000	3.48188E-002	0.00000E+000	3.83037E-002	3.47238E-001	4.11528E-002	4.66165E+001	11	...........	6.86954E-002	-3.99639E-003	5.66713E-001	6.24715E-001	-2.95499E-002	-3.93811E-002	6.55617E-001	-4.32914E-002	2.39189E-003	-1.39149E-004	1.97323E-002	2.17518E-002	-1.02889E-003	-1.37120E-003	2.28278E-002	-1.50735E-003
	25	25	1.10017E+000	3.45705E-002	0.00000E+000	3.80335E-002	3.44774E-001	4.10315E-002	4.67127E+001	11	...........	6.85061E-002	-3.95167E-003	5.66599E-001	6.24758E-001	-2.95679E-002	-3.93735E-002	6.55612E-001	-4.33996E-002	2.36829E-003	-1.36611E-004	1.95876E-002	2.15982E-002	-1.02218E-003	-1.36116E-003	2.26648E-002	-1.50034E-003
	26	26	1.10006E+000	3.43636E-002	0.00000E+000	3.78022E-002	3.42718E-001	4.09980E-002	4.66963E+001	11	...........	6.84386E-002	-3.94069E-003	5.66608E-001	6.24833E-001	-2.95833E-002	-3.93918E-002	6.55599E-001	-4.34507E-002	2.35180E-003	-1.35417E-004	1.94707E-002	2.14715E-002	-1.01659E-003	-1.35365E-003	2.25288E-002	-1.49312E-003
	27	27	1.10009E+000	3.44750E-002	0.00000E+000	3.79254E-002	3.43825E-001	4.09766E-002	4.66803E+001	11	...........	6.84137E-002	-3.96417E-003	5.66643E-001	6.24631E-001	-2.95739E-002	-3.93787E-002	6.55730E-001	-4.34007E-002	2.35856E-003	-1.36665E-004	1.95350E-002	2.15341E-002	-1.01956E-003	-1.35758E-003	2.26063E-002	-1.49624E-003
	28	28	1.10017E+000	3.42195E-002	0.00000E+000	3.76473E-002	3.41283E-001	4.09657E-002	4.66947E+001	11	...........	6.83608E-002	-4.01681E-003	5.66655E-001	6.24652E-001	-2.95799E-002	-3.93756E-002	6.55704E-001	-4.32783E-002	2.33927E-003	-1.37453E-004	1.93906E-002	2.13753E-002	-1.01221E-003	-1.34741E-003	2.24379E-002	-1.48096E-003
	29	29	1.10007E+000	3.40322E-002	0.00000E+000	3.74377E-002	3.39423E-001	4.09402E-002	4.67030E+001	11	...........	6.83172E-002	-4.02903E-003	5.66669E-001	6.24565E-001	-2.96087E-002	-3.93619E-002	6.55656E-001	-4.33449E-002	2.32498E-003	-1.37117E-004	1.92850E-002	2.12553E-002	-1.00765E-003	-1.33957E-003	2.23134E-002	-1.47512E-003
	30	30	1.10008E+000	3.41508E-002	0.00000E+000	3.75688E-002	3.40603E-001	4.10085E-002	4.65483E+001	11	...........	6.84456E-002	-4.11153E-003	5.66677E-001	6.24672E-001	-2.96453E-002	-3.93892E-002	6.55665E-001	-4.33536E-002	2.33747E-003	-1.40412E-004	1.93525E-002	2.13331E-002	-1.01241E-003	-1.34517E-003	2.23915E-002	-1.48056E-003
	31	31	1.10017E+000	3.39252E-002	0.00000E+000	3.73234E-002	3.38358E-001	4.08451E-002	4.66808E+001	11	...........	6.81715E-002	-4.06208E-003	5.66730E-001	6.24723E-001	-2.96394E-002	-3.93732E-002	6.55699E-001	-4.33286E-002	2.31273E-003	-1.37807E-004	1.92264E-002	2.11938E-002	-1.00552E-003	-1.33574E-003	2.22447E-002	-1.46993E-003
	32	32	1.10007E+000	3.37248E-002	0.00000E+000	3.70996E-002	3.36364E-001	4.08482E-002	4.66401E+001	11	...........	6.81733E-002	-4.00778E-003	5.66800E-001	6.24847E-001	-2.96221E-002	-3.93743E-002	6.55776E-001	-4.32969E-002	2.29913E-003	-1.35161E-004	1.91152E-002	2.10728E-002	-9.98998E-004	-1.32789E-003	2.21159E-002	-1.46018E-003
	33	33	1.10008E+000	3.38432E-002	0.00000E+000	3.72304E-002	3.37539E-001	4.08965E-002	4.65958E+001	11	...........	6.82587E-002	-3.99528E-003	5.66819E-001	6.24888E-001	-2.95781E-002	-3.94062E-002	6.55666E-001	-4.33732E-002	2.31009E-003	-1.35213E-004	1.91830E-002	2.11482E-002	-1.00102E-003	-1.33363E-003	2.21898E-002	-1.46789E-003
	34	34	1.10017E+000	3.36430E-002	0.00000E+000	3.70130E-002	3.35552E-001	4.07688E-002	4.66684E+001	11	...........	6.80549E-002	-3.98042E-003	5.66725E-001	6.24893E-001	-2.95822E-002	-3.94012E-002	6.55501E-001	-4.34294E-002	2.28957E-003	-1.33913E-004	1.90663E-002	2.10233E-002	-9.95235E-004	-1.32558E-003	2.20530E-002	-1.46110E-003
	35	35	1.10007E+000	3.34215E-002	0.00000E+000	3.67660E-002	3.33351E-001	4.07699E-002	4.66622E+001	11	...........	6.80529E-002	-3.98056E-003	5.66933E-001	6.24813E-001	-2.95782E-002	-3.93924E-002	6.55528E-001	-4.34803E-002	2.27443E-003	-1.33036E-004	1.89477E-002	2.08822E-002	-9.88547E-004	-1.31655E-003	2.19087E-002	-1.45317E-003
	36	36	1.10008E+000	3.35540E-002	0.00000E+000	3.69122E-002	3.34667E-001	4.07565E-002	4.66698E+001	11	...........	6.80218E-002	-4.03972E-003	5.67021E-001	6.24672E-001	-2.95479E-002	-3.93871E-002	6.55631E-001	-4.35304E-002	2.28240E-003	-1.35549E-004	1.90258E-002	2.09603E-002	-9.91451E-004	-1.32159E-003	2.19990E-002	-1.46062E-003
	37	37	1.10017E+000	3.33594E-002	0.00000E+000	3.67009E-002	3.32733E-001	4.07315E-002	4.66879E+001	11	...........	6.79764E-002	-3.99667E-003	5.66984E-001	6.24505E-001	-2.95657E-002	-3.93882E-002	6.55645E-001	-4.35879E-002	2.26765E-003	-1.33326E-004	1.89143E-002	2.08331E-002	-9.86294E-004	-1.31397E-003	2.18719E-002	-1.45407E-003
	38	38	1.10007E+000	3.31285E-002	0.00000E+000	3.64438E-002	3.30439E-001	4.07152E-002	4.66842E+001	11	...........	6.79337E-002	-3.97181E-003	5.67087E-001	6.24369E-001	-2.95318E-002	-3.93858E-002	6.55725E-001	-4.36081E-002	2.25055E-003	-1.31580E-004	1.87868E-002	2.06844E-002	-9.78346E-004	-1.30480E-003	2.17232E-002	-1.44467E-003
	39	39	1.10008E+000	3.32582E-002	0.00000E+000	3.65867E-002	3.31729E-001	4.06789E-002	4.66936E+001	11	...........	6.79153E-002	-3.96639E-003	5.67135E-001	6.24223E-001	-2.95537E-002	-3.93987E-002	6.55704E-001	-4.34868E-002	2.25874E-003	-1.31915E-004	1.88619E-002	2.07605E-002	-9.82904E-004	-1.31033E-003	2.18075E-002	-1.44629E-003
	40	40	1.10016E+000	3.30977E-002	0.00000E+000	3.64129E-002	3.30132E-001	4.06512E-002	4.66828E+001	11	...........	6.78576E-002	-4.05597E-003	5.66959E-001	6.24354E-001	-2.95764E-002	-3.93817E-002	6.55740E-001	-4.34932E-002	2.24593E-003	-1.34243E-004	1.87650E-002	2.06647E-002	-9.78910E-004	-1.30344E-003	2.17035E-002	-1.43952E-003
	41	41	1.10008E+000	3.28494E-002	0.00000E+000	3.61369E-002	3.27661E-001	4.06182E-002	4.66637E+001	11	...........	6.77985E-002	-4.06667E-003	5.66920E-001	6.24531E-001	-2.95362E-002	-3.93814E-002	6.55774E-001	-4.35249E-002	2.22714E-003	-1.33588E-004	1.86230E-002	2.05155E-002	-9.70249E-004	-1.29366E-003	2.15418E-002	-1.42977E-003
	42	42	1.10008E+000	3.30027E-002	0.00000E+000	3.63057E-002	3.29186E-001	4.06047E-002	4.65904E+001	11	...........	6.77689E-002	-4.05236E-003	5.66815E-001	6.24584E-001	-2.95008E-002	-3.94044E-002	6.55833E-001	-4.34756E-002	2.23656E-003	-1.33739E-004	1.87065E-002	2.06130E-002	-9.73609E-004	-1.30045E-003	2.16443E-002	-1.43481E-003
	43	43	1.10016E+000	3.28280E-002	0.00000E+000	3.61161E-002	3.27449E-001	4.05753E-002	4.66072E+001	11	...........	6.77289E-002	-4.07250E-003	5.66857E-001	6.24453E-001	-2.95181E-002	-3.94014E-002	6.55734E-001	-4.33439E-002	2.22340E-003	-1.33692E-004	1.86088E-002	2.04995E-002	-9.69019E-004	-1.29347E-003	2.15264E-002	-1.42289E-003
	44	44	1.10008E+000	3.25796E-002	0.00000E+000	3.58401E-002	3.24979E-001	4.05400E-002	4.66153E+001	11	...........	6.76753E-002	-4.00222E-003	5.66736E-001	6.24274E-001	-2.95251E-002	-3.94118E-002	6.55714E-001	-4.33862E-002	2.20483E-003	-1.30391E-004	1.84640E-002	2.03386E-002	-9.61918E-004	-1.28402E-003	2.13629E-002	-1.41351E-003
	45	45	1.10008E+000	3.27415E-002	0.00000E+000	3.60184E-002	3.26589E-001	4.05358E-002	4.66105E+001	11	...........	6.76487E-002	-3.88667E-003	5.66820E-001	6.24094E-001	-2.95808E-002	-3.94061E-002	6.55787E-001	-4.34500E-002	2.21492E-003	-1.27255E-004	1.85586E-002	2.04338E-002	-9.68522E-004	-1.29022E-003	2.14715E-002	-1.42262E-003
	46	46	1.10016E+000	3.25720E-002	0.00000E+000	3.58344E-002	3.24900E-001	4.05062E-002	4.65973E+001	11	...........	6.76003E-002	-4.00708E-003	5.66977E-001	6.24133E-001	-2.95744E-002	-3.93737E-002	6.55753E-001	-4.34931E-002	2.20187E-003	-1.30519E-004	1.84676E-002	2.03293E-002	-9.63298E-004	-1.28248E-003	2.13592E-002	-1.41665E-003
	47	47	1.10008E+000	3.22961E-002	0.00000E+000	3.55284E-002	3.22159E-001	4.04687E-002	4.65655E+001	11	...........	6.75518E-002	-4.01542E-003	5.66999E-001	6.24165E-001	-2.95360E-002	-3.93760E-002	6.55733E-001	-4.34557E-002	2.18166E-003	-1.29682E-004	1.83119E-002	2.01581E-002	-9.53898E-004	-1.27169E-003	2.11776E-002	-1.40345E-003
	48	48	1.10008E+000	3.24502E-002	0.00000E+000	3.56979E-002	3.23693E-001	4.04499E-002	4.65713E+001	11	...........	6.75211E-002	-4.03292E-003	5.67100E-001	6.24290E-001	-2.95362E-002	-3.94087E-002	6.55811E-001	-4.35418E-002	2.19108E-003	-1.30869E-004	1.84025E-002	2.02583E-002	-9.58458E-004	-1.27882E-003	2.12812E-002	-1.41294E-003
	49	49	1.10016E+000	3.23272E-002	0.00000E+000	3.55650E-002	3.22467E-001	4.04254E-002	4.65602E+001	11	...........	6.74815E-002	-4.02847E-003	5.67130E-001	6.24419E-001	-2.95336E-002	-3.93907E-002	6.55858E-001	-4.34610E-002	2.18149E-003	-1.30229E-004	1.83337E-002	2.01857E-002	-9.54738E-004	-1.27339E-003	2.12020E-002	-1.40497E-003
	50	50	1.10008E+000	3.20622E-002	0.00000E+000	3.52710E-002	3.19833E-001	4.03918E-002	4.65353E+001	11	...........	6.74324E-002	-4.13778E-003	5.67330E-001	6.24418E-001	-2.95594E-002	-3.93789E-002	6.55856E-001	-4.33978E-002	2.16203E-003	-1.32666E-004	1.81898E-002	2.00202E-002	-9.47740E-004	-1.26257E-003	2.10282E-002	-1.39143E-003
	51	51	1.10008E+000	3.22059E-002	0.00000E+000	3.54290E-002	3.21262E-001	4.03751E-002	4.65244E+001	11	...........	6.73939E-002	-4.18972E-003	5.67262E-001	6.24420E-001	-2.95587E-002	-3.93658E-002	6.55837E-001	-4.33276E-002	2.17048E-003	-1.34934E-004	1.82691E-002	2.01100E-002	-9.51965E-004	-1.26781E-003	2.11218E-002	-1.39540E-003
	52	52	1.10016E+000	3.20567E-002	0.00000E+000	3.52674E-002	3.19782E-001	4.03498E-002	4.65131E+001	11	...........	6.73537E-002	-4.07736E-003	5.67329E-001	6.24595E-001	-2.95708E-002	-3.93639E-002	6.55840E-001	-4.34006E-002	2.15914E-003	-1.30707E-004	1.81867E-002	2.00225E-002	-9.47944E-004	-1.26188E-003	2.10241E-002	-1.39128E-003
	53	53	1.10009E+000	3.17845E-002	0.00000E+000	3.49656E-002	3.17074E-001	4.03183E-002	4.65065E+001	11	...........	6.73049E-002	-4.07542E-003	5.67158E-001	6.24548E-001	-2.95457E-002	-3.93924E-002	6.55764E-001	-4.34282E-002	2.13925E-003	-1.29535E-004	1.80268E-002	1.98509E-002	-9.39094E-004	-1.25207E-003	2.08431E-002	-1.38034E-003
	54	54	1.10008E+000	3.19187E-002	0.00000E+000	3.51132E-002	3.18403E-001	4.02939E-002	4.65042E+001	11	...........	6.72539E-002	-4.01208E-003	5.66939E-001	6.24459E-001	-2.96056E-002	-3.93919E-002	6.55786E-001	-4.35086E-002	2.14666E-003	-1.28061E-004	1.80960E-002	1.99319E-002	-9.44972E-004	-1.25734E-003	2.09319E-002	-1.38874E-003
	55	55	1.10016E+000	3.18126E-002	0.00000E+000	3.49988E-002	3.17351E-001	4.02640E-002	4.64883E+001	11	...........	6.72200E-002	-4.04000E-003	5.66827E-001	6.24489E-001	-2.95962E-002	-3.93879E-002	6.55800E-001	-4.34776E-002	2.13845E-003	-1.28523E-004	1.80322E-002	1.98666E-002	-9.41535E-004	-1.25303E-003	2.08627E-002	-1.38314E-003
	56	56	1.10009E+000	3.15107E-002	0.00000E+000	3.46645E-002	3.14348E-001	4.02360E-002	4.64539E+001	11	...........	6.71771E-002	-4.09333E-003	5.66811E-001	6.24595E-001	-2.95503E-002	-3.93921E-002	6.55898E-001	-4.33921E-002	2.11679E-003	-1.28984E-004	1.78606E-002	1.96814E-002	-9.31149E-004	-1.24127E-003	2.06678E-002	-1.36731E-003
	57	57	1.10008E+000	3.16553E-002	0.00000E+000	3.48233E-002	3.15784E-001	4.02134E-002	4.64595E+001	11	...........	6.71346E-002	-4.06736E-003	5.66761E-001	6.24547E-001	-2.95243E-002	-3.93715E-002	6.55783E-001	-4.33842E-002	2.12516E-003	-1.28753E-004	1.79410E-002	1.97702E-002	-9.34599E-004	-1.24632E-003	2.07590E-002	-1.37334E-003
	58	58	1.10015E+000	3.15682E-002	0.00000E+000	3.47299E-002	3.14919E-001	4.01828E-002	4.64602E+001	11	...........	6.70714E-002	-4.04722E-003	5.66941E-001	6.24518E-001	-2.95329E-002	-3.93576E-002	6.55847E-001	-4.33997E-002	2.11733E-003	-1.27764E-004	1.78973E-002	1.97149E-002	-9.32302E-004	-1.24245E-003	2.07039E-002	-1.37005E-003
	59	59	1.10009E+000	3.12709E-002	0.00000E+000	3.44008E-002	3.11966E-001	4.01533E-002	4.64589E+001	11	...........	6.70335E-002	-4.02417E-003	5.66990E-001	6.24733E-001	-2.95201E-002	-3.93240E-002	6.55814E-001	-4.33300E-002	2.09619E-003	-1.25839E-004	1.77303E-002	1.95359E-002	-9.23120E-004	-1.22970E-003	2.05079E-002	-1.35497E-003
	60	60	1.10008E+000	3.14206E-002	0.00000E+000	3.45651E-002	3.13454E-001	4.01298E-002	4.64314E+001	11	...........	6.70033E-002	-4.04444E-003	5.66917E-001	6.24716E-001	-2.94986E-002	-3.92918E-002	6.55804E-001	-4.32882E-002	2.10528E-003	-1.27079E-004	1.78128E-002	1.96289E-002	-9.26863E-004	-1.23457E-003	2.06057E-002	-1.36014E-003
	61	61	1.10015E+000	3.13130E-002	0.00000E+000	3.44490E-002	3.12383E-001	4.01060E-002	4.64181E+001	11	...........	6.69644E-002	-4.03278E-003	5.66748E-001	6.24619E-001	-2.95040E-002	-3.92906E-002	6.55815E-001	-4.32942E-002	2.09685E-003	-1.26278E-004	1.77466E-002	1.95587E-002	-9.23858E-004	-1.23030E-003	2.05355E-002	-1.35567E-003
	62	62	1.10009E+000	3.10267E-002	0.00000E+000	3.41322E-002	3.09539E-001	4.00789E-002	4.64142E+001	11	...........	6.68972E-002	-3.98972E-003	5.66676E-001	6.24545E-001	-2.94892E-002	-3.93058E-002	6.55729E-001	-4.32883E-002	2.07560E-003	-1.23788E-004	1.75821E-002	1.93776E-002	-9.14952E-004	-1.21953E-003	2.03451E-002	-1.34309E-003
	63	63	1.10008E+000	3.11803E-002	0.00000E+000	3.43008E-002	3.11063E-001	4.02413E-002	4.63317E+001	11	...........	6.71636E-002	-3.95611E-003	5.66567E-001	6.24495E-001	-2.95314E-002	-3.92887E-002	6.55754E-001	-4.32908E-002	2.09418E-003	-1.23353E-004	1.76657E-002	1.94719E-002	-9.20798E-004	-1.22504E-003	2.04466E-002	-1.34982E-003
	64	64	1.10015E+000	3.10895E-002	0.00000E+000	3.42031E-002	3.10161E-001	3.99397E-002	4.62597E+001	11	...........	6.66946E-002	-4.01556E-003	5.66575E-001	6.24485E-001	-2.95429E-002	-3.92825E-002	6.55780E-001	-4.33001E-002	2.07350E-003	-1.24842E-004	1.76145E-002	1.94149E-002	-9.18474E-004	-1.22127E-003	2.03878E-002	-1.34618E-003
	65	65	1.10010E+000	3.07770E-002	0.00000E+000	3.38576E-002	3.07053E-001	4.00005E-002	4.63571E+001	11	...........	6.67664E-002	-4.02833E-003	5.66649E-001	6.24646E-001	-2.95307E-002	-3.92642E-002	6.55916E-001	-4.33281E-002	2.05487E-003	-1.23980E-004	1.74398E-002	1.92247E-002	-9.08865E-004	-1.20843E-003	2.01871E-002	-1.33351E-003
	66	66	1.10008E+000	3.09260E-002	0.00000E+000	3.40209E-002	3.08538E-001	3.99740E-002	4.64135E+001	11	...........	6.67406E-002	-4.14861E-003	5.66733E-001	6.24715E-001	-2.95214E-002	-3.92719E-002	6.56018E-001	-4.34331E-002	2.06402E-003	-1.28300E-004	1.75268E-002	1.93199E-002	-9.12977E-004	-1.21452E-003	2.02880E-002	-1.34321E-003
	67	67	1.10015E+000	3.08357E-002	0.00000E+000	3.39238E-002	3.07638E-001	3.99455E-002	4.64385E+001	11	...........	6.66937E-002	-4.04500E-003	5.66817E-001	6.24671E-001	-2.94965E-002	-3.92903E-002	6.56011E-001	-4.34815E-002	2.05655E-003	-1.24730E-004	1.74782E-002	1.92621E-002	-9.09545E-004	-1.21154E-003	2.02285E-002	-1.34078E-003
	68	68	1.10010E+000	3.05299E-002	0.00000E+000	3.35859E-002	3.04603E-001	3.99279E-002	4.64231E+001	11	...........	6.66642E-002	-3.95500E-003	5.66880E-001	6.24579E-001	-2.95551E-002	-3.92833E-002	6.55998E-001	-4.34146E-002	2.03525E-003	-1.20746E-004	1.73068E-002	1.90683E-002	-9.02315E-004	-1.19932E-003	2.00275E-002	-1.32544E-003
	69	69	1.10008E+000	3.06745E-002	0.00000E+000	3.37443E-002	3.06037E-001	3.97256E-002	4.63453E+001	11	...........	6.66325E-002	-4.03750E-003	5.66858E-001	6.24522E-001	-2.95117E-002	-3.92565E-002	6.56001E-001	-4.33251E-002	2.04392E-003	-1.23848E-004	1.73881E-002	1.91569E-002	-9.05255E-004	-1.20417E-003	2.01225E-002	-1.32898E-003
	70	70	1.10015E+000	3.06103E-002	0.00000E+000	3.36758E-002	3.05398E-001	3.98843E-002	4.64028E+001	11	...........	6.65714E-002	-4.04292E-003	5.66833E-001	6.24641E-001	-2.95154E-002	-3.92615E-002	6.56011E-001	-4.32906E-002	2.03777E-003	-1.23755E-004	1.73510E-002	1.91205E-002	-9.03477E-004	-1.20181E-003	2.00807E-002	-1.32514E-003
	71	71	1.10010E+000	3.02940E-002	0.00000E+000	3.33265E-002	3.02256E-001	3.98621E-002	4.64074E+001	11	...........	6.65419E-002	-4.08278E-003	5.66871E-001	6.24512E-001	-2.94615E-002	-3.92949E-002	6.55908E-001	-4.33472E-002	2.01582E-003	-1.23684E-004	1.71728E-002	1.89190E-002	-8.92508E-004	-1.19040E-003	1.98701E-002	-1.31316E-003
	72	72	1.10008E+000	3.04329E-002	0.00000E+000	3.34785E-002	3.03639E-001	3.98446E-002	4.64029E+001	11	...........	6.65290E-002	-4.07069E-003	5.66870E-001	6.24437E-001	-2.94704E-002	-3.93069E-002	6.55861E-001	-4.33794E-002	2.02467E-003	-1.23883E-004	1.72515E-002	1.90034E-002	-8.96871E-004	-1.19623E-003	1.99598E-002	-1.32016E-003
	73	73	1.10014E+000	3.03966E-002	0.00000E+000	3.34406E-002	3.03275E-001	3.98367E-002	4.58049E+001	11	...........	6.64892E-002	-4.05208E-003	5.66894E-001	6.24631E-001	-2.94792E-002	-3.92943E-002	6.55667E-001	-4.34026E-002	2.02105E-003	-1.23170E-004	1.72317E-002	1.89867E-002	-8.96067E-004	-1.19441E-003	1.99301E-002	-1.31929E-003
	74	74	1.10010E+000	2.99980E-002	0.00000E+000	3.30010E-002	2.99311E-001	3.97344E-002	4.50344E+001	11	...........	6.63212E-002	-4.06819E-003	5.66946E-001	6.24816E-001	-2.94228E-002	-3.92897E-002	6.55652E-001	-4.34071E-002	1.98951E-003	-1.22038E-004	1.70073E-002	1.87433E-002	-8.82626E-004	-1.17861E-003	1.96683E-002	-1.30213E-003
	75	75	1.10008E+000	3.01683E-002	0.00000E+000	3.31874E-002	3.01005E-001	3.97842E-002	4.60882E+001	11	...........	6.64210E-002	-4.10389E-003	5.66905E-001	6.24733E-001	-2.94468E-002	-3.92956E-002	6.55773E-001	-4.34250E-002	2.00381E-003	-1.23807E-004	1.71026E-002	1.88471E-002	-8.88360E-004	-1.18548E-003	1.97836E-002	-1.31006E-003
	76	76	1.10014E+000	3.01314E-002	0.00000E+000	3.31488E-002	3.00635E-001	3.97402E-002	4.62056E+001	11	...........	6.63258E-002	-4.07319E-003	5.66852E-001	6.24929E-001	-2.94608E-002	-3.92729E-002	6.55752E-001	-4.34929E-002	1.99849E-003	-1.22731E-004	1.70800E-002	1.88300E-002	-8.87696E-004	-1.18335E-003	1.97587E-002	-1.31050E-003
	77	77	1.10011E+000	2.98034E-002	0.00000E+000	3.27869E-002	2.97377E-001	3.97000E-002	4.61977E+001	11	...........	6.62769E-002	-4.01125E-003	5.66903E-001	6.24983E-001	-2.94679E-002	-3.92454E-002	6.55785E-001	-4.36728E-002	1.97528E-003	-1.19549E-004	1.68957E-002	1.86266E-002	-8.78245E-004	-1.16965E-003	1.95446E-002	-1.30160E-003
	78	78	1.10007E+000	2.99599E-002	0.00000E+000	3.29582E-002	2.98931E-001	3.96881E-002	4.61967E+001	11	...........	6.62568E-002	-3.94500E-003	5.66942E-001	6.25078E-001	-2.94872E-002	-3.92436E-002	6.55854E-001	-4.34956E-002	1.98505E-003	-1.18192E-004	1.69855E-002	1.87273E-002	-8.83435E-004	-1.17574E-003	1.96493E-002	-1.30312E-003
	79	79	1.10014E+000	2.99195E-002	0.00000E+000	3.29156E-002	2.98531E-001	3.96798E-002	4.62273E+001	11	...........	6.62057E-002	-4.01069E-003	5.66934E-001	6.25166E-001	-2.94754E-002	-3.92490E-002	6.55788E-001	-4.34871E-002	1.98084E-003	-1.19998E-004	1.69624E-002	1.87047E-002	-8.81890E-004	-1.17431E-003	1.96209E-002	-1.30111E-003
	80	80	1.10011E+000	2.95892E-002	0.00000E+000	3.25514E-002	2.95245E-001	3.96363E-002	4.62357E+001	11	...........	6.61699E-002	-4.06486E-003	5.66966E-001	6.25064E-001	-2.95025E-002	-3.92512E-002	6.55805E-001	-4.33485E-002	1.95791E-003	-1.20276E-004	1.67761E-002	1.84952E-002	-8.72955E-004	-1.16141E-003	1.94047E-002	-1.28265E-003
	81	81	1.10007E+000	2.97445E-002	0.00000E+000	3.27211E-002	2.96789E-001	3.99914E-002	4.59824E+001	11	...........	6.67371E-002	-4.05861E-003	5.67169E-001	6.24990E-001	-2.95351E-002	-3.92496E-002	6.55874E-001	-4.33662E-002	1.98506E-003	-1.20721E-004	1.68701E-002	1.85900E-002	-8.78508E-004	-1.16746E-003	1.95087E-002	-1.28991E-003
	82	82	1.10014E+000	2.97173E-002	0.00000E+000	3.26930E-002	2.96518E-001	3.93622E-002	4.61669E+001	11	...........	6.57272E-002	-4.05167E-003	5.67155E-001	6.24877E-001	-2.94972E-002	-3.92510E-002	6.55861E-001	-4.34131E-002	1.95323E-003	-1.20404E-004	1.68543E-002	1.85696E-002	-8.76576E-004	-1.16643E-003	1.94904E-002	-1.29012E-003
	83	83	1.10011E+000	2.93817E-002	0.00000E+000	3.23232E-002	2.93180E-001	3.95817E-002	4.61262E+001	11	...........	6.60639E-002	-4.01389E-003	5.67235E-001	6.24764E-001	-2.94978E-002	-3.92107E-002	6.55719E-001	-4.35283E-002	1.94107E-003	-1.17935E-004	1.66663E-002	1.83566E-002	-8.66695E-004	-1.15208E-003	1.92661E-002	-1.27894E-003
	84	84	1.10007E+000	2.95339E-002	0.00000E+000	3.24895E-002	2.94697E-001	3.95484E-002	4.61002E+001	11	...........	6.60150E-002	-3.98431E-003	5.67063E-001	6.24702E-001	-2.95075E-002	-3.92224E-002	6.55824E-001	-4.35169E-002	1.94968E-003	-1.17672E-004	1.67476E-002	1.84499E-002	-8.71473E-004	-1.15839E-003	1.93691E-002	-1.28523E-003
	85	85	1.10013E+000	2.94979E-002	0.00000E+000	3.24517E-002	2.94337E-001	3.95417E-002	4.61108E+001	11	...........	6.59979E-002	-4.01569E-003	5.66941E-001	6.24708E-001	-2.95169E-002	-3.92436E-002	6.56033E-001	-4.34950E-002	1.94680E-003	-1.18455E-004	1.67236E-002	1.84276E-002	-8.70688E-004	-1.15760E-003	1.93516E-002	-1.28301E-003
	86	86	1.10012E+000	2.91513E-002	0.00000E+000	3.20698E-002	2.90891E-001	3.97111E-002	4.59519E+001	11	...........	6.62872E-002	-4.01569E-003	5.66865E-001	6.24809E-001	-2.95228E-002	-3.92451E-002	6.55867E-001	-4.34171E-002	1.93236E-003	-1.17063E-004	1.65249E-002	1.82140E-002	-8.60628E-004	-1.14405E-003	1.91194E-002	-1.26566E-003
	87	87	1.10007E+000	2.92885E-002	0.00000E+000	3.22195E-002	2.92262E-001	3.93899E-002	4.61317E+001	11	...........	6.57556E-002	-4.02944E-003	5.66969E-001	6.25047E-001	-2.95014E-002	-3.92576E-002	6.55768E-001	-4.34165E-002	1.92588E-003	-1.18016E-004	1.66057E-002	1.83067E-002	-8.64052E-004	-1.14980E-003	1.92065E-002	-1.27161E-003
	88	88	1.10013E+000	2.92913E-002	0.00000E+000	3.22243E-002	2.92287E-001	3.94762E-002	4.60804E+001	11	...........	6.59174E-002	-3.90014E-003	5.66983E-001	6.25223E-001	-2.94883E-002	-3.92668E-002	6.55920E-001	-4.33743E-002	1.93081E-003	-1.14240E-004	1.66077E-002	1.83136E-002	-8.63752E-004	-1.15018E-003	1.92128E-002	-1.27049E-003
	89	89	1.10012E+000	2.89415E-002	0.00000E+000	3.18391E-002	2.88815E-001	3.94522E-002	4.61194E+001	11	...........	6.58822E-002	-3.99458E-003	5.66861E-001	6.25285E-001	-2.94732E-002	-3.92793E-002	6.55787E-001	-4.33796E-002	1.90673E-003	-1.15609E-004	1.64058E-002	1.80967E-002	-8.53000E-004	-1.13680E-003	1.89795E-002	-1.25547E-003
	90	90	1.10007E+000	2.90591E-002	0.00000E+000	3.19671E-002	2.89984E-001	3.94486E-002	4.61341E+001	11	...........	6.58575E-002	-4.10431E-003	5.66914E-001	6.25239E-001	-2.94775E-002	-3.92858E-002	6.55618E-001	-4.33910E-002	1.91376E-003	-1.19268E-004	1.64740E-002	1.81689E-002	-8.56590E-004	-1.14161E-003	1.90517E-002	-1.26090E-003
	91	91	1.10013E+000	2.90546E-002	0.00000E+000	3.19638E-002	2.89936E-001	3.94232E-002	4.61357E+001	11	...........	6.58219E-002	-4.11806E-003	5.66911E-001	6.25281E-001	-2.94835E-002	-3.92971E-002	6.55685E-001	-4.34731E-002	1.91243E-003	-1.19649E-004	1.64714E-002	1.81673E-002	-8.56632E-004	-1.14176E-003	1.90507E-002	-1.26309E-003
	92	92	1.10012E+000	2.87192E-002	0.00000E+000	3.15946E-002	2.86601E-001	3.94157E-002	4.61389E+001	11	...........	6.57862E-002	-4.10875E-003	5.66924E-001	6.25393E-001	-2.94653E-002	-3.93015E-002	6.55887E-001	-4.33906E-002	1.88933E-003	-1.18000E-004	1.62816E-002	1.79608E-002	-8.46218E-004	-1.12871E-003	1.88365E-002	-1.24614E-003
	93	93	1.10007E+000	2.88377E-002	0.00000E+000	3.17235E-002	2.87779E-001	3.93802E-002	4.61303E+001	11	...........	6.57592E-002	-4.02181E-003	5.67129E-001	6.25266E-001	-2.94553E-002	-3.92814E-002	6.55905E-001	-4.33618E-002	1.89634E-003	-1.15980E-004	1.63547E-002	1.80312E-002	-8.49422E-004	-1.13278E-003	1.89148E-002	-1.25045E-003
	94	93.6583	1.10019E+000	2.87650E-002	0.00000E+000	3.16469E-002	2.87057E-001	3.93761E-002	4.61176E+001	11	...........	6.57255E-002	-4.08186E-003	5.67128E-001	6.25248E-001	-2.94975E-002	-3.92390E-002	6.55978E-001	-4.33751E-002	1.89059E-003	-1.17415E-004	1.63134E-002	1.79852E-002	-8.48494E-004	-1.12871E-003	1.88692E-002	-1.24768E-003
STARTTIMEOFFSET	QUANT	522681.8	Start Time Offset (s)
