EXPLAIN
TAG	PWR800_CHARGE
TITLE	LABEL	PWR Charge	Test Identifier
DATE	LABEL	10/13/2022	Date
TIME	LABEL	22:46:34	Time
NOTES	NOTES	1	Notes...
	
PSTAT	PSTAT	REF3000-21114	Potentiostat
CAPACITY	QUANT	5.30000E-002	Capacity (A-hr)
CELLTYPE	SELECTOR	1	Cell Type
WORKINGCONNECTION	SELECTOR	0	Working Connection
MAXCHARGETIME	VARIABLEANDUNITS	7.20000E+003	s	2.00000E+000	hour(s)	Max Charge Time
CHARGEMODE	MULTIPARAM	0	1.00000E-001	Charge Mode	Constant Current	Amp(s)
CHARGECURRENT	QUANT	0.1	Charge Current (A)
VOLTAGEFINISH	TWOPARAM	T	2.50000E-002	7.20000E+003	Voltage Finish	I (A) <	Max Time(s)
SAMPLETIME	QUANT	1.00000E+000	Sample Period (s)
CHARGESTOPAT1	MULTIPARAM	2	1.10000E+000	Stop At 1	|Voltage| > Limit	V
CHARGESTOPAT2	MULTIPARAM	0	0.00000E+000	Stop At 2	None	N/A
AESELECTOR	AESELECTOR	0x1	T	Set Limits	AE Channels
AESBHCSELECTOR	TOGGLE	F	Save Both Half Cells
IRCOMP	TOGGLE	F	IR Measure
EOC	QUANT	0.2123504	Open Circuit (V)
SEQUENCER	TOGGLE	TRUE	Run as Sequence
PSTATMODEL	IQUANT	5	Pstat Model
PSTATSECTION	LABEL	REF3000-21114	Pstat Section
PSTATSERIALNO	LABEL	21114	Pstat Serial Number
CTRLMODE	IQUANT	0	Control Mode
ELECTROMETER	IQUANT	0	RE=0 or CS=1
IESTAB	IQUANT	0	I/E Stability
CASPEED	IQUANT	4	Control Amp Speed
CONVENTION	IQUANT	1	Current Convention
ICHRANGE	IQUANT	2	Ich Range
ICHRANGEMODE	TOGGLE	T	Ich Auto Range
ICHOFFSETENABLE	TOGGLE	F	Ich Offset Enable
ICHOFFSET	QUANT	0	Ich Offset (V)
ICHFILTER	IQUANT	1	Ich Filter
VCHRANGE	IQUANT	3	Vch Range
VCHRANGEMODE	TOGGLE	T	Vch Auto Range
VCHOFFSETENABLE	TOGGLE	F	Vch Offset Enable
VCHOFFSET	QUANT	0	Vch Offset (V)
VCHFILTER	IQUANT	1	Vch Filter
ACHRANGE	IQUANT	2	Ach Range
ACHOFFSETENABLE	TOGGLE	F	Ach Offset Enable
ACHOFFSET	QUANT	0	Ach Offset (V)
ACHFILTER	IQUANT	1	Ach Filter
IERANGELOWERLIMIT	IQUANT	9	I/E Range Lower Limit
IERANGEMODE	TOGGLE	F	I/E AutoRange
IERANGE	IQUANT	9	I/E Range
POSFEEDENABLE	TOGGLE	F	Positive Feedback IR Comp
POSFEEDRESISTANCE	QUANT	0	Positive Feedback Resistance (ohm)
ACHSELECT	IQUANT	1	Ach Select
SENSECABLEID	IQUANT	13	Sense Cable ID
PWRCABLEID	IQUANT	13	Power Cable ID
DCCALDATE	LABEL		DC Calibration Date
ACCALDATE	LABEL		AC Calibration Date
THERMOSELECT	IQUANT	1	Thermo Select
FRAMEWORKVERSION	LABEL	7.8.6	Framework Version
INSTRUMENTVERSION	LABEL	4.50	Instrument Version
COMPLIANCEVOLTAGE	IQUANT	0	Compliance Voltage
CURVE	TABLE	226
	Pt	T	Vf	Im	Vu	Pwr	Sig	Ach	Temp	IERange	Over	Vf1	Vf2	Vf3	Vf4	Vf5	Vf6	Vf7	Vf8	Pwr1	Pwr2	Pwr3	Pwr4	Pwr5	Pwr6	Pwr7	Pwr8
	#	s	V	A	V	W	V	V	deg C	#	bits	V	V	V	V	V	V	V	V	W	W	W	W	W	W	W	W
	0	1	4.83349E-001	9.98415E-002	0.00000E+000	4.82583E-002	9.94000E-001	4.36082E-002	4.26983E+001	11	...........	7.23983E-002	-5.40861E-003	6.04776E-001	5.37392E-001	-2.71687E-002	-3.81686E-002	7.04861E-001	-4.40068E-002	7.22836E-003	-5.40004E-004	6.03818E-002	5.36540E-002	-2.71257E-003	-3.81081E-003	7.03744E-002	-4.39371E-003
	1	2	6.22484E-001	9.98420E-002	0.00000E+000	6.21500E-002	9.94000E-001	4.36929E-002	4.39965E+001	11	...........	7.25414E-002	-5.50931E-003	6.04864E-001	5.37386E-001	-2.71833E-002	-3.82144E-002	7.04779E-001	-4.39911E-002	7.24267E-003	-5.50060E-004	6.03909E-002	5.36537E-002	-2.71404E-003	-3.81541E-003	7.03665E-002	-4.39216E-003
	2	3	8.28664E-001	9.98425E-002	0.00000E+000	8.27359E-002	9.94000E-001	4.43057E-002	4.76349E+001	11	...........	7.35619E-002	-5.53708E-003	6.04967E-001	5.37519E-001	-2.71936E-002	-3.82136E-002	7.04837E-001	-4.39535E-002	7.34461E-003	-5.52836E-004	6.04014E-002	5.36672E-002	-2.71508E-003	-3.81534E-003	7.03727E-002	-4.38843E-003
	3	3.27167	1.05304E+000	9.98433E-002	0.00000E+000	1.05139E-001	9.94000E-001	4.49555E-002	5.26487E+001	11	...........	7.45757E-002	-5.67076E-003	6.05100E-001	5.37609E-001	-2.72526E-002	-3.81830E-002	7.04883E-001	-4.40107E-002	7.44588E-003	-5.66187E-004	6.04152E-002	5.36766E-002	-2.72098E-003	-3.81232E-003	7.03778E-002	-4.39418E-003
	4	4	1.10081E+000	7.55362E-002	0.00000E+000	8.31508E-002	7.52291E-001	4.44559E-002	5.29706E+001	11	...........	7.37742E-002	-5.60946E-003	6.05117E-001	5.37724E-001	-2.71646E-002	-3.82056E-002	7.04879E-001	-4.39899E-002	5.57262E-003	-4.23717E-004	4.57083E-002	4.06176E-002	-2.05191E-003	-2.88590E-003	5.32439E-002	-3.32283E-003
	5	5	1.10038E+000	6.16348E-002	0.00000E+000	6.78216E-002	6.14059E-001	4.43027E-002	5.21333E+001	11	...........	7.35018E-002	-5.43750E-003	6.05009E-001	5.37850E-001	-2.72015E-002	-3.81728E-002	7.04817E-001	-4.38507E-002	4.53027E-003	-3.35139E-004	3.72896E-002	3.31503E-002	-1.67656E-003	-2.35277E-003	4.34413E-002	-2.70273E-003
	6	6	1.10045E+000	5.60307E-002	0.00000E+000	6.16588E-002	5.58333E-001	4.38499E-002	4.77247E+001	11	...........	7.32294E-002	-5.31292E-003	6.04875E-001	5.37900E-001	-2.72026E-002	-3.81844E-002	7.04674E-001	-4.39307E-002	4.10310E-003	-2.97687E-004	3.38916E-002	3.01389E-002	-1.52418E-003	-2.13950E-003	3.94834E-002	-2.46147E-003
	7	7	1.10026E+000	5.34237E-002	0.00000E+000	5.87799E-002	5.32409E-001	4.43482E-002	5.04845E+001	11	...........	7.35918E-002	-5.27681E-003	6.05010E-001	5.37978E-001	-2.71912E-002	-3.82111E-002	7.04651E-001	-4.39204E-002	3.93155E-003	-2.81907E-004	3.23219E-002	2.87408E-002	-1.45266E-003	-2.04138E-003	3.76451E-002	-2.34639E-003
	8	8	1.10029E+000	5.20500E-002	0.00000E+000	5.72703E-002	5.18752E-001	4.43087E-002	5.09427E+001	11	...........	7.35386E-002	-5.27889E-003	6.05158E-001	5.37891E-001	-2.71746E-002	-3.82197E-002	7.04654E-001	-4.39154E-002	3.82769E-003	-2.74766E-004	3.14985E-002	2.79972E-002	-1.41444E-003	-1.98934E-003	3.66773E-002	-2.28580E-003
	9	9	1.10041E+000	5.08176E-002	0.00000E+000	5.59202E-002	5.06494E-001	4.42562E-002	4.89336E+001	11	...........	7.34631E-002	-5.40264E-003	6.05087E-001	5.37980E-001	-2.71836E-002	-3.82303E-002	7.04714E-001	-4.39087E-002	3.73321E-003	-2.74549E-004	3.07491E-002	2.73389E-002	-1.38141E-003	-1.94277E-003	3.58119E-002	-2.23134E-003
	10	10	1.10025E+000	4.99996E-002	0.00000E+000	5.50120E-002	4.98359E-001	4.41053E-002	4.99729E+001	11	...........	7.32315E-002	-5.27319E-003	6.04916E-001	5.38013E-001	-2.71847E-002	-3.82326E-002	7.04774E-001	-4.39754E-002	3.66155E-003	-2.63658E-004	3.02456E-002	2.69004E-002	-1.35923E-003	-1.91162E-003	3.52384E-002	-2.19875E-003
	11	11	1.10028E+000	4.98015E-002	0.00000E+000	5.47957E-002	4.96387E-001	4.43209E-002	5.03477E+001	11	...........	7.35554E-002	-5.29375E-003	6.04957E-001	5.37961E-001	-2.71662E-002	-3.82633E-002	7.04689E-001	-4.38979E-002	3.66317E-003	-2.63637E-004	3.01278E-002	2.67913E-002	-1.35292E-003	-1.90557E-003	3.50946E-002	-2.18618E-003
	12	12	1.10040E+000	4.92488E-002	0.00000E+000	5.41935E-002	4.90897E-001	4.41779E-002	5.02754E+001	11	...........	7.33451E-002	-5.31194E-003	6.04955E-001	5.37896E-001	-2.71726E-002	-3.82918E-002	7.04754E-001	-4.38819E-002	3.61216E-003	-2.61607E-004	2.97933E-002	2.64907E-002	-1.33822E-003	-1.88583E-003	3.47083E-002	-2.16113E-003
	13	13	1.10025E+000	4.88029E-002	0.00000E+000	5.36954E-002	4.86461E-001	4.41778E-002	5.00493E+001	11	...........	7.33147E-002	-5.20375E-003	6.04946E-001	5.37870E-001	-2.71742E-002	-3.82844E-002	7.04748E-001	-4.38540E-002	3.57797E-003	-2.53958E-004	2.95231E-002	2.62496E-002	-1.32618E-003	-1.86839E-003	3.43938E-002	-2.14020E-003
	14	14	1.10028E+000	4.88104E-002	0.00000E+000	5.37051E-002	4.86538E-001	4.41519E-002	5.01970E+001	11	...........	7.32696E-002	-5.25125E-003	6.05091E-001	5.37659E-001	-2.71651E-002	-3.82606E-002	7.04583E-001	-4.39369E-002	3.57632E-003	-2.56316E-004	2.95348E-002	2.62434E-002	-1.32594E-003	-1.86751E-003	3.43910E-002	-2.14458E-003
	15	15	1.10039E+000	4.83871E-002	0.00000E+000	5.32448E-002	4.82327E-001	4.41155E-002	5.01433E+001	11	...........	7.32175E-002	-5.42931E-003	6.05066E-001	5.37757E-001	-2.71500E-002	-3.82737E-002	7.04557E-001	-4.38793E-002	3.54278E-003	-2.62708E-004	2.92774E-002	2.60205E-002	-1.31371E-003	-1.85195E-003	3.40914E-002	-2.12319E-003
	16	16	1.10026E+000	4.80768E-002	0.00000E+000	5.28968E-002	4.79243E-001	4.40993E-002	5.01422E+001	11	...........	7.32083E-002	-5.44653E-003	6.05178E-001	5.37637E-001	-2.71436E-002	-3.82985E-002	7.04661E-001	-4.38581E-002	3.51962E-003	-2.61852E-004	2.90950E-002	2.58479E-002	-1.30498E-003	-1.84127E-003	3.38779E-002	-2.10856E-003
	17	17	1.10028E+000	4.81482E-002	0.00000E+000	5.29764E-002	4.79949E-001	4.40393E-002	5.01138E+001	11	...........	7.30751E-002	-5.37819E-003	6.05216E-001	5.37634E-001	-2.71396E-002	-3.82956E-002	7.04760E-001	-4.39929E-002	3.51844E-003	-2.58950E-004	2.91400E-002	2.58861E-002	-1.30672E-003	-1.84386E-003	3.39329E-002	-2.11818E-003
	18	18	1.10039E+000	4.77464E-002	0.00000E+000	5.25398E-002	4.75957E-001	4.40307E-002	4.80966E+001	11	...........	7.30978E-002	-5.32806E-003	6.05130E-001	5.37513E-001	-2.71324E-002	-3.82851E-002	7.04850E-001	-4.39056E-002	3.49016E-003	-2.54396E-004	2.88928E-002	2.56643E-002	-1.29547E-003	-1.82798E-003	3.36541E-002	-2.09633E-003
	19	19	1.10026E+000	4.74235E-002	0.00000E+000	5.21781E-002	4.72743E-001	4.37862E-002	4.96246E+001	11	...........	7.26929E-002	-5.37458E-003	6.05002E-001	5.37425E-001	-2.71331E-002	-3.82826E-002	7.04903E-001	-4.38693E-002	3.44736E-003	-2.54882E-004	2.86913E-002	2.54866E-002	-1.28675E-003	-1.81550E-003	3.34290E-002	-2.08044E-003
	20	20	1.10028E+000	4.76205E-002	0.00000E+000	5.23957E-002	4.74709E-001	4.38654E-002	4.99623E+001	11	...........	7.30490E-002	-5.34792E-003	6.05100E-001	5.37390E-001	-2.71199E-002	-3.82879E-002	7.04916E-001	-4.38922E-002	3.47863E-003	-2.54671E-004	2.88152E-002	2.55908E-002	-1.29146E-003	-1.82329E-003	3.35685E-002	-2.09017E-003
	21	21	1.10039E+000	4.73020E-002	0.00000E+000	5.20506E-002	4.71542E-001	4.37120E-002	4.97662E+001	11	...........	7.29375E-002	-5.37597E-003	6.05234E-001	5.37384E-001	-2.71179E-002	-3.82971E-002	7.04817E-001	-4.39069E-002	3.45009E-003	-2.54294E-004	2.86288E-002	2.54194E-002	-1.28273E-003	-1.81153E-003	3.33393E-002	-2.07689E-003
	22	22	1.10026E+000	4.69335E-002	0.00000E+000	5.16391E-002	4.67883E-001	4.35291E-002	4.80405E+001	11	...........	7.26499E-002	-5.37403E-003	6.05101E-001	5.37534E-001	-2.71021E-002	-3.82956E-002	7.04757E-001	-4.38542E-002	3.40971E-003	-2.52222E-004	2.83995E-002	2.52284E-002	-1.27200E-003	-1.79734E-003	3.30767E-002	-2.05823E-003
	23	23	1.10028E+000	4.71272E-002	0.00000E+000	5.18529E-002	4.69810E-001	4.35751E-002	4.90980E+001	11	...........	7.27167E-002	-5.26667E-003	6.05003E-001	5.37522E-001	-2.71275E-002	-3.82785E-002	7.04600E-001	-4.39653E-002	3.42693E-003	-2.48203E-004	2.85121E-002	2.53319E-002	-1.27844E-003	-1.80396E-003	3.32059E-002	-2.07196E-003
	24	24	1.10039E+000	4.68187E-002	0.00000E+000	5.15186E-002	4.66737E-001	4.34944E-002	4.89700E+001	11	...........	7.25719E-002	-5.28972E-003	6.04910E-001	5.37612E-001	-2.71399E-002	-3.83071E-002	7.04619E-001	-4.39325E-002	3.39772E-003	-2.47658E-004	2.83211E-002	2.51703E-002	-1.27065E-003	-1.79349E-003	3.29893E-002	-2.05686E-003
	25	25	1.10026E+000	4.65609E-002	0.00000E+000	5.12292E-002	4.64174E-001	4.36842E-002	4.97158E+001	11	...........	7.29158E-002	-5.32486E-003	6.04929E-001	5.37608E-001	-2.71460E-002	-3.83065E-002	7.04807E-001	-4.38904E-002	3.39503E-003	-2.47930E-004	2.81660E-002	2.50315E-002	-1.26394E-003	-1.78359E-003	3.28164E-002	-2.04358E-003
	26	26	1.10027E+000	4.67327E-002	0.00000E+000	5.14187E-002	4.65885E-001	4.35375E-002	4.99027E+001	11	...........	7.26686E-002	-5.31028E-003	6.04835E-001	5.37744E-001	-2.71267E-002	-3.83240E-002	7.04893E-001	-4.39263E-002	3.39600E-003	-2.48163E-004	2.82655E-002	2.51302E-002	-1.26770E-003	-1.79098E-003	3.29415E-002	-2.05279E-003
	27	27	1.10038E+000	4.64729E-002	0.00000E+000	5.11381E-002	4.63298E-001	4.34708E-002	4.97818E+001	11	...........	7.25654E-002	-5.31125E-003	6.04715E-001	5.37814E-001	-2.71199E-002	-3.83471E-002	7.04866E-001	-4.39764E-002	3.37233E-003	-2.46829E-004	2.81029E-002	2.49938E-002	-1.26034E-003	-1.78210E-003	3.27572E-002	-2.04371E-003
	28	28	1.10027E+000	4.61347E-002	0.00000E+000	5.07605E-002	4.59938E-001	4.34197E-002	4.98654E+001	11	...........	7.24835E-002	-5.28389E-003	6.04858E-001	5.37941E-001	-2.71368E-002	-3.83549E-002	7.04851E-001	-4.40418E-002	3.34400E-003	-2.43771E-004	2.79049E-002	2.48178E-002	-1.25195E-003	-1.76949E-003	3.25181E-002	-2.03186E-003
	29	29	1.10027E+000	4.63339E-002	0.00000E+000	5.09799E-002	4.61921E-001	4.34028E-002	4.80583E+001	11	...........	7.24369E-002	-5.21611E-003	6.04920E-001	5.38053E-001	-2.71211E-002	-3.83426E-002	7.04890E-001	-4.41028E-002	3.35628E-003	-2.41683E-004	2.80283E-002	2.49301E-002	-1.25663E-003	-1.77656E-003	3.26603E-002	-2.04345E-003
	30	30	1.10038E+000	4.60376E-002	0.00000E+000	5.06589E-002	4.58974E-001	4.32242E-002	4.92909E+001	11	...........	7.21442E-002	-5.24583E-003	6.04816E-001	5.37995E-001	-2.71269E-002	-3.83274E-002	7.04879E-001	-4.40154E-002	3.32134E-003	-2.41506E-004	2.78443E-002	2.47680E-002	-1.24886E-003	-1.76450E-003	3.24509E-002	-2.02636E-003
	31	31	1.10027E+000	4.57798E-002	0.00000E+000	5.03701E-002	4.56410E-001	4.34122E-002	4.97927E+001	11	...........	7.24490E-002	-5.31583E-003	6.04839E-001	5.38012E-001	-2.71208E-002	-3.83192E-002	7.04926E-001	-4.39656E-002	3.31670E-003	-2.43358E-004	2.76894E-002	2.46301E-002	-1.24159E-003	-1.75424E-003	3.22714E-002	-2.01273E-003
	32	32	1.10027E+000	4.59479E-002	0.00000E+000	5.05551E-002	4.58078E-001	4.33195E-002	4.98624E+001	11	...........	7.22847E-002	-5.27111E-003	6.04890E-001	5.38074E-001	-2.71218E-002	-3.83062E-002	7.04860E-001	-4.39151E-002	3.32133E-003	-2.42196E-004	2.77934E-002	2.47234E-002	-1.24619E-003	-1.76009E-003	3.23868E-002	-2.01781E-003
	33	33	1.10038E+000	4.56961E-002	0.00000E+000	5.02832E-002	4.55577E-001	4.32328E-002	4.98186E+001	11	...........	7.21661E-002	-5.32444E-003	6.05026E-001	5.37970E-001	-2.70801E-002	-3.82787E-002	7.04838E-001	-4.39203E-002	3.29771E-003	-2.43306E-004	2.76473E-002	2.45832E-002	-1.23746E-003	-1.74919E-003	3.22083E-002	-2.00699E-003
	34	34	1.10027E+000	4.53370E-002	0.00000E+000	4.98830E-002	4.52003E-001	4.31790E-002	4.97270E+001	11	...........	7.20724E-002	-5.27319E-003	6.05343E-001	5.37816E-001	-2.70833E-002	-3.82582E-002	7.04770E-001	-4.39760E-002	3.26755E-003	-2.39071E-004	2.74444E-002	2.43830E-002	-1.22788E-003	-1.73451E-003	3.19522E-002	-1.99374E-003
	35	35	1.10027E+000	4.55727E-002	0.00000E+000	5.01423E-002	4.54350E-001	4.31704E-002	4.98265E+001	11	...........	7.20603E-002	-5.32236E-003	6.05538E-001	5.37813E-001	-2.71014E-002	-3.82700E-002	7.04704E-001	-4.40642E-002	3.28398E-003	-2.42554E-004	2.75960E-002	2.45096E-002	-1.23508E-003	-1.74407E-003	3.21152E-002	-2.00812E-003
	36	36	1.10038E+000	4.53496E-002	0.00000E+000	4.99017E-002	4.52132E-001	4.31887E-002	4.98692E+001	11	...........	7.20943E-002	-5.36903E-003	6.05442E-001	5.37852E-001	-2.71140E-002	-3.82893E-002	7.04740E-001	-4.40432E-002	3.26945E-003	-2.43483E-004	2.74566E-002	2.43914E-002	-1.22961E-003	-1.73640E-003	3.19596E-002	-1.99734E-003
	37	37	1.10028E+000	4.50220E-002	0.00000E+000	4.95366E-002	4.48872E-001	4.30884E-002	4.97885E+001	11	...........	7.19199E-002	-5.32389E-003	6.05315E-001	5.37904E-001	-2.71247E-002	-3.82814E-002	7.04694E-001	-4.40308E-002	3.23798E-003	-2.39692E-004	2.72525E-002	2.42175E-002	-1.22121E-003	-1.72351E-003	3.17267E-002	-1.98236E-003
	38	38	1.10027E+000	4.52114E-002	0.00000E+000	4.97447E-002	4.50756E-001	4.31357E-002	4.97846E+001	11	...........	7.19921E-002	-5.39069E-003	6.05184E-001	5.37865E-001	-2.71575E-002	-3.82625E-002	7.04861E-001	-4.39724E-002	3.25487E-003	-2.43721E-004	2.73612E-002	2.43176E-002	-1.22783E-003	-1.72990E-003	3.18678E-002	-1.98805E-003
	39	39	1.10038E+000	4.49731E-002	0.00000E+000	4.94873E-002	4.48387E-001	4.30918E-002	4.79016E+001	11	...........	7.19129E-002	-5.32000E-003	6.05184E-001	5.37920E-001	-2.71475E-002	-3.82531E-002	7.04839E-001	-4.39693E-002	3.23415E-003	-2.39257E-004	2.72170E-002	2.41920E-002	-1.22091E-003	-1.72036E-003	3.16988E-002	-1.97744E-003
	40	40	1.10028E+000	4.45483E-002	0.00000E+000	4.90156E-002	4.44161E-001	4.27129E-002	4.79035E+001	11	...........	7.12828E-002	-5.22611E-003	6.05179E-001	5.37980E-001	-2.71510E-002	-3.82551E-002	7.04708E-001	-4.39844E-002	3.17553E-003	-2.32814E-004	2.69597E-002	2.39661E-002	-1.20953E-003	-1.70420E-003	3.13936E-002	-1.95943E-003
	41	41	1.10027E+000	4.48420E-002	0.00000E+000	4.93383E-002	4.47080E-001	4.31258E-002	4.93996E+001	11	...........	7.19847E-002	-5.35125E-003	6.05505E-001	5.38091E-001	-2.71631E-002	-3.82639E-002	7.04781E-001	-4.38601E-002	3.22794E-003	-2.39961E-004	2.71520E-002	2.41291E-002	-1.21805E-003	-1.71583E-003	3.16038E-002	-1.96678E-003
	42	42	1.10037E+000	4.46583E-002	0.00000E+000	4.91409E-002	4.45255E-001	4.29988E-002	4.95497E+001	11	...........	7.17614E-002	-5.18069E-003	6.05576E-001	5.38065E-001	-2.71554E-002	-3.82936E-002	7.04722E-001	-4.38306E-002	3.20474E-003	-2.31361E-004	2.70440E-002	2.40291E-002	-1.21272E-003	-1.71013E-003	3.14717E-002	-1.95740E-003
	43	43	1.10028E+000	4.42739E-002	0.00000E+000	4.87139E-002	4.41433E-001	4.29814E-002	4.90074E+001	11	...........	7.17422E-002	-5.14847E-003	6.05477E-001	5.38089E-001	-2.71453E-002	-3.83014E-002	7.04800E-001	-4.39629E-002	3.17631E-003	-2.27943E-004	2.68069E-002	2.38233E-002	-1.20183E-003	-1.69575E-003	3.12043E-002	-1.94641E-003
	44	44	1.10027E+000	4.44534E-002	0.00000E+000	4.89105E-002	4.43216E-001	4.29077E-002	4.92139E+001	11	...........	7.16210E-002	-5.28528E-003	6.05444E-001	5.38121E-001	-2.71237E-002	-3.82881E-002	7.04914E-001	-4.38953E-002	3.18379E-003	-2.34948E-004	2.69140E-002	2.39213E-002	-1.20574E-003	-1.70203E-003	3.13358E-002	-1.95129E-003
	45	45	1.10037E+000	4.43056E-002	0.00000E+000	4.87525E-002	4.41748E-001	4.29347E-002	4.92940E+001	11	...........	7.16417E-002	-5.41611E-003	6.05399E-001	5.38148E-001	-2.71253E-002	-3.82837E-002	7.04800E-001	-4.38754E-002	3.17413E-003	-2.39964E-004	2.68226E-002	2.38430E-002	-1.20180E-003	-1.69618E-003	3.12266E-002	-1.94393E-003
	46	46	1.10029E+000	4.39528E-002	0.00000E+000	4.83607E-002	4.38236E-001	4.29022E-002	4.93327E+001	11	...........	7.16011E-002	-5.46319E-003	6.05304E-001	5.38100E-001	-2.71389E-002	-3.82710E-002	7.04706E-001	-4.38936E-002	3.14707E-003	-2.40122E-004	2.66048E-002	2.36510E-002	-1.19283E-003	-1.68211E-003	3.09738E-002	-1.92924E-003
	47	47	1.10026E+000	4.41512E-002	0.00000E+000	4.85780E-002	4.40216E-001	4.28728E-002	4.93265E+001	11	...........	7.15411E-002	-5.44806E-003	6.05138E-001	5.38154E-001	-2.71674E-002	-3.82568E-002	7.04740E-001	-4.38817E-002	3.15863E-003	-2.40538E-004	2.67176E-002	2.37601E-002	-1.19947E-003	-1.68908E-003	3.11151E-002	-1.93743E-003
	48	48	1.10037E+000	4.40051E-002	0.00000E+000	4.84219E-002	4.38760E-001	4.28506E-002	4.93269E+001	11	...........	7.15164E-002	-5.29111E-003	6.04895E-001	5.38264E-001	-2.71610E-002	-3.82869E-002	7.04786E-001	-4.38511E-002	3.14708E-003	-2.32836E-004	2.66184E-002	2.36864E-002	-1.19522E-003	-1.68482E-003	3.10142E-002	-1.92967E-003
	49	49	1.10029E+000	4.35330E-002	0.00000E+000	4.78990E-002	4.34065E-001	4.27661E-002	4.92839E+001	11	...........	7.13925E-002	-5.42000E-003	6.04703E-001	5.38351E-001	-2.71529E-002	-3.82947E-002	7.04902E-001	-4.40543E-002	3.10793E-003	-2.35949E-004	2.63245E-002	2.34361E-002	-1.18205E-003	-1.66708E-003	3.06865E-002	-1.91782E-003
	50	50	1.10026E+000	4.37858E-002	0.00000E+000	4.81759E-002	4.36579E-001	4.27485E-002	4.93355E+001	11	...........	7.13557E-002	-5.42097E-003	6.04633E-001	5.38275E-001	-2.71467E-002	-3.82824E-002	7.04871E-001	-4.40197E-002	3.12437E-003	-2.37362E-004	2.64744E-002	2.35688E-002	-1.18864E-003	-1.67622E-003	3.08634E-002	-1.92744E-003
	51	51	1.10037E+000	4.36618E-002	0.00000E+000	4.80439E-002	4.35344E-001	4.27914E-002	4.94378E+001	11	...........	7.14211E-002	-5.26458E-003	6.04579E-001	5.38130E-001	-2.71401E-002	-3.82697E-002	7.04828E-001	-4.40671E-002	3.11837E-003	-2.29861E-004	2.63970E-002	2.34957E-002	-1.18499E-003	-1.67092E-003	3.07740E-002	-1.92405E-003
	52	52	1.10030E+000	4.32786E-002	0.00000E+000	4.76193E-002	4.31533E-001	4.27128E-002	4.89745E+001	11	...........	7.12979E-002	-5.22222E-003	6.04580E-001	5.38193E-001	-2.71161E-002	-3.82812E-002	7.04791E-001	-4.41069E-002	3.08568E-003	-2.26011E-004	2.61654E-002	2.32923E-002	-1.17355E-003	-1.65676E-003	3.05024E-002	-1.90889E-003
	53	53	1.10026E+000	4.33235E-002	0.00000E+000	4.76672E-002	4.31977E-001	4.24403E-002	4.67396E+001	11	...........	7.08325E-002	-5.18375E-003	6.04528E-001	5.38180E-001	-2.70943E-002	-3.82811E-002	7.04893E-001	-4.41215E-002	3.06871E-003	-2.24578E-004	2.61903E-002	2.33158E-002	-1.17382E-003	-1.65847E-003	3.05384E-002	-1.91150E-003
	54	54	1.10036E+000	4.33867E-002	0.00000E+000	4.77410E-002	4.32607E-001	4.27057E-002	4.92234E+001	11	...........	7.12836E-002	-5.15500E-003	6.04499E-001	5.38221E-001	-2.70847E-002	-3.82467E-002	7.04939E-001	-4.41296E-002	3.09276E-003	-2.23658E-004	2.62272E-002	2.33516E-002	-1.17512E-003	-1.65940E-003	3.05850E-002	-1.91464E-003
	55	55	1.10030E+000	4.29408E-002	0.00000E+000	4.72478E-002	4.28176E-001	4.25869E-002	4.96839E+001	11	...........	7.10750E-002	-5.24556E-003	6.04492E-001	5.38186E-001	-2.70532E-002	-3.82551E-002	7.04937E-001	-4.41517E-002	3.05202E-003	-2.25248E-004	2.59574E-002	2.31101E-002	-1.16169E-003	-1.64271E-003	3.02706E-002	-1.89591E-003
	56	56	1.10026E+000	4.31034E-002	0.00000E+000	4.74251E-002	4.29793E-001	4.25464E-002	4.95946E+001	11	...........	7.09944E-002	-5.17972E-003	6.04465E-001	5.38278E-001	-2.70721E-002	-3.82594E-002	7.04861E-001	-4.43044E-002	3.06010E-003	-2.23264E-004	2.60545E-002	2.32016E-002	-1.16690E-003	-1.64911E-003	3.03819E-002	-1.90967E-003
	57	57	1.10036E+000	4.30360E-002	0.00000E+000	4.73550E-002	4.29125E-001	4.24750E-002	4.95412E+001	11	...........	7.09085E-002	-5.19972E-003	6.04441E-001	5.38174E-001	-2.70878E-002	-3.82562E-002	7.04932E-001	-4.41301E-002	3.05161E-003	-2.23775E-004	2.60127E-002	2.31608E-002	-1.16575E-003	-1.64639E-003	3.03374E-002	-1.89918E-003
	58	58	1.10030E+000	4.25916E-002	0.00000E+000	4.68638E-002	4.24705E-001	4.24116E-002	4.95090E+001	11	...........	7.07914E-002	-5.19528E-003	6.04412E-001	5.38235E-001	-2.70951E-002	-3.82701E-002	7.05074E-001	-4.40699E-002	3.01512E-003	-2.21275E-004	2.57429E-002	2.29243E-002	-1.15403E-003	-1.62999E-003	3.00303E-002	-1.87701E-003
	59	59	1.10026E+000	4.27508E-002	0.00000E+000	4.70370E-002	4.26287E-001	4.24603E-002	4.95164E+001	11	...........	7.08761E-002	-5.25111E-003	6.04544E-001	5.38247E-001	-2.70946E-002	-3.82864E-002	7.05097E-001	-4.39850E-002	3.03001E-003	-2.24489E-004	2.58448E-002	2.30105E-002	-1.15832E-003	-1.63677E-003	3.01435E-002	-1.88039E-003
	60	60	1.10036E+000	4.27170E-002	0.00000E+000	4.70039E-002	4.25952E-001	4.23876E-002	4.96058E+001	11	...........	7.07629E-002	-5.40014E-003	6.04566E-001	5.38121E-001	-2.70960E-002	-3.82910E-002	7.05039E-001	-4.39794E-002	3.02278E-003	-2.30678E-004	2.58252E-002	2.29869E-002	-1.15746E-003	-1.63567E-003	3.01171E-002	-1.87867E-003
	61	61	1.10031E+000	4.22695E-002	0.00000E+000	4.65095E-002	4.21501E-001	4.24652E-002	4.70194E+001	11	...........	7.08694E-002	-5.44333E-003	6.04452E-001	5.37990E-001	-2.71460E-002	-3.83051E-002	7.04944E-001	-4.40565E-002	2.99561E-003	-2.30087E-004	2.55499E-002	2.27406E-002	-1.14745E-003	-1.61914E-003	2.97976E-002	-1.86225E-003
	62	62	1.10026E+000	4.24041E-002	0.00000E+000	4.66554E-002	4.22837E-001	4.21192E-002	4.84039E+001	11	...........	7.02986E-002	-5.51319E-003	6.04361E-001	5.37986E-001	-2.71490E-002	-3.83018E-002	7.04997E-001	-4.40025E-002	2.98095E-003	-2.33782E-004	2.56274E-002	2.28128E-002	-1.15123E-003	-1.62415E-003	2.98948E-002	-1.86589E-003
	63	63	1.10035E+000	4.23760E-002	0.00000E+000	4.66286E-002	4.22558E-001	4.24693E-002	4.92797E+001	11	...........	7.08885E-002	-5.45556E-003	6.04465E-001	5.37874E-001	-2.71394E-002	-3.83237E-002	7.05065E-001	-4.39296E-002	3.00397E-003	-2.31185E-004	2.56148E-002	2.27930E-002	-1.15006E-003	-1.62401E-003	2.98778E-002	-1.86156E-003
	64	64	1.10031E+000	4.19232E-002	0.00000E+000	4.61287E-002	4.18057E-001	4.23752E-002	4.94068E+001	11	...........	7.07124E-002	-5.27014E-003	6.04453E-001	5.37828E-001	-2.71376E-002	-3.83358E-002	7.05072E-001	-4.39558E-002	2.96449E-003	-2.20941E-004	2.53406E-002	2.25475E-002	-1.13770E-003	-1.60716E-003	2.95589E-002	-1.84277E-003
	65	65	1.10026E+000	4.21362E-002	0.00000E+000	4.63606E-002	4.20175E-001	4.23477E-002	4.94310E+001	11	...........	7.06790E-002	-5.30972E-003	6.04435E-001	5.37878E-001	-2.71496E-002	-3.83283E-002	7.05064E-001	-4.39472E-002	2.97814E-003	-2.23731E-004	2.54686E-002	2.26641E-002	-1.14398E-003	-1.61501E-003	2.97087E-002	-1.85177E-003
	66	66	1.10035E+000	4.20799E-002	0.00000E+000	4.63025E-002	4.19614E-001	4.23276E-002	4.94847E+001	11	...........	7.06249E-002	-5.31667E-003	6.04538E-001	5.37970E-001	-2.71515E-002	-3.83360E-002	7.05024E-001	-4.40140E-002	2.97189E-003	-2.23725E-004	2.54389E-002	2.26377E-002	-1.14253E-003	-1.61317E-003	2.96673E-002	-1.85211E-003
	67	67	1.10032E+000	4.16371E-002	0.00000E+000	4.58141E-002	4.15210E-001	4.22366E-002	4.85727E+001	11	...........	7.04997E-002	-5.35306E-003	6.04511E-001	5.37957E-001	-2.71512E-002	-3.83261E-002	7.04860E-001	-4.40549E-002	2.93540E-003	-2.22886E-004	2.51701E-002	2.23990E-002	-1.13050E-003	-1.59579E-003	2.93483E-002	-1.83432E-003
	68	68	1.10026E+000	4.17952E-002	0.00000E+000	4.59854E-002	4.16783E-001	4.22440E-002	4.90696E+001	11	...........	7.05111E-002	-5.42486E-003	6.04500E-001	5.37906E-001	-2.71676E-002	-3.82908E-002	7.04850E-001	-4.40399E-002	2.94703E-003	-2.26733E-004	2.52652E-002	2.24819E-002	-1.13548E-003	-1.60037E-003	2.94593E-002	-1.84065E-003
	69	69	1.10035E+000	4.17739E-002	0.00000E+000	4.59657E-002	4.16571E-001	4.22325E-002	4.91911E+001	11	...........	7.04778E-002	-5.32792E-003	6.04446E-001	5.37992E-001	-2.71757E-002	-3.83124E-002	7.04824E-001	-4.40947E-002	2.94413E-003	-2.22568E-004	2.52500E-002	2.24740E-002	-1.13523E-003	-1.60046E-003	2.94432E-002	-1.84201E-003
	70	70	1.10032E+000	4.13098E-002	0.00000E+000	4.54542E-002	4.11958E-001	4.22047E-002	4.91517E+001	11	...........	7.04374E-002	-5.42111E-003	6.04504E-001	5.37885E-001	-2.71724E-002	-3.82972E-002	7.04970E-001	-4.39928E-002	2.90975E-003	-2.23945E-004	2.49719E-002	2.22199E-002	-1.12248E-003	-1.58205E-003	2.91222E-002	-1.81733E-003
	71	71	1.10025E+000	4.14765E-002	0.00000E+000	4.56347E-002	4.13615E-001	4.21812E-002	4.92345E+001	11	...........	7.03985E-002	-5.41764E-003	6.04582E-001	5.37911E-001	-2.71737E-002	-3.82925E-002	7.04957E-001	-4.38590E-002	2.91988E-003	-2.24705E-004	2.50760E-002	2.23107E-002	-1.12707E-003	-1.58824E-003	2.92392E-002	-1.81912E-003
	72	72	1.10034E+000	4.14722E-002	0.00000E+000	4.56336E-002	4.13568E-001	4.21474E-002	4.92352E+001	11	...........	7.03454E-002	-5.35931E-003	6.04710E-001	5.37774E-001	-2.71844E-002	-3.82776E-002	7.04913E-001	-4.39044E-002	2.91738E-003	-2.22262E-004	2.50786E-002	2.23027E-002	-1.12740E-003	-1.58746E-003	2.92343E-002	-1.82081E-003
	73	73	1.10033E+000	4.10138E-002	0.00000E+000	4.51287E-002	4.09008E-001	4.21524E-002	4.91525E+001	11	...........	7.03525E-002	-5.33639E-003	6.04707E-001	5.37714E-001	-2.71864E-002	-3.82578E-002	7.04822E-001	-4.40100E-002	2.88543E-003	-2.18866E-004	2.48014E-002	2.20537E-002	-1.11502E-003	-1.56910E-003	2.89075E-002	-1.80502E-003
	74	74	1.10025E+000	4.11582E-002	0.00000E+000	4.52845E-002	4.10447E-001	4.20527E-002	4.92369E+001	11	...........	7.01861E-002	-5.31653E-003	6.04690E-001	5.37784E-001	-2.71582E-002	-3.82347E-002	7.04830E-001	-4.40714E-002	2.88874E-003	-2.18819E-004	2.48880E-002	2.21342E-002	-1.11778E-003	-1.57367E-003	2.90096E-002	-1.81390E-003
	75	75	1.10034E+000	4.11588E-002	0.00000E+000	4.52886E-002	4.10451E-001	4.20917E-002	4.92732E+001	11	...........	7.02328E-002	-5.34708E-003	6.04606E-001	5.37943E-001	-2.71472E-002	-3.82153E-002	7.04796E-001	-4.39686E-002	2.89070E-003	-2.20080E-004	2.48849E-002	2.21411E-002	-1.11735E-003	-1.57290E-003	2.90086E-002	-1.80970E-003
	76	76	1.10033E+000	4.07428E-002	0.00000E+000	4.48307E-002	4.06316E-001	4.20415E-002	4.92815E+001	11	...........	7.01732E-002	-5.37722E-003	6.04516E-001	5.37939E-001	-2.71368E-002	-3.81925E-002	7.04783E-001	-4.40506E-002	2.85905E-003	-2.19083E-004	2.46297E-002	2.19171E-002	-1.10563E-003	-1.55607E-003	2.87148E-002	-1.79474E-003
	77	77	1.10025E+000	4.08636E-002	0.00000E+000	4.49602E-002	4.07514E-001	4.20668E-002	4.87882E+001	11	...........	7.02178E-002	-5.32681E-003	6.04385E-001	5.38029E-001	-2.71247E-002	-3.82056E-002	7.04854E-001	-4.39918E-002	2.86935E-003	-2.17672E-004	2.46973E-002	2.19858E-002	-1.10841E-003	-1.56122E-003	2.88029E-002	-1.79766E-003
	78	78	1.10034E+000	4.07411E-002	0.00000E+000	4.48288E-002	4.06297E-001	4.16285E-002	4.54034E+001	11	...........	6.94792E-002	-5.20792E-003	6.04298E-001	5.38162E-001	-2.71481E-002	-3.82164E-002	7.04819E-001	-4.41029E-002	2.83066E-003	-2.12176E-004	2.46197E-002	2.19253E-002	-1.10604E-003	-1.55698E-003	2.87151E-002	-1.79680E-003
	79	79	1.10034E+000	4.04518E-002	0.00000E+000	4.45107E-002	4.03424E-001	4.20978E-002	4.87235E+001	11	...........	7.02551E-002	-5.22333E-003	6.04471E-001	5.38170E-001	-2.71443E-002	-3.82233E-002	7.04883E-001	-4.40499E-002	2.84195E-003	-2.11293E-004	2.44519E-002	2.17699E-002	-1.09804E-003	-1.54620E-003	2.85138E-002	-1.78190E-003
	80	80	1.10025E+000	4.05563E-002	0.00000E+000	4.46220E-002	4.04464E-001	4.18881E-002	4.93557E+001	11	...........	6.99262E-002	-5.29278E-003	6.04544E-001	5.38158E-001	-2.71229E-002	-3.82542E-002	7.04898E-001	-4.40182E-002	2.83595E-003	-2.14655E-004	2.45181E-002	2.18257E-002	-1.10000E-003	-1.55145E-003	2.85880E-002	-1.78521E-003
	81	81	1.10033E+000	4.05587E-002	0.00000E+000	4.46280E-002	4.04484E-001	4.19131E-002	4.92234E+001	11	...........	6.99578E-002	-5.30333E-003	6.04615E-001	5.38148E-001	-2.71201E-002	-3.82771E-002	7.04750E-001	-4.39928E-002	2.83739E-003	-2.15096E-004	2.45224E-002	2.18266E-002	-1.09996E-003	-1.55247E-003	2.85837E-002	-1.78429E-003
	82	82	1.10034E+000	4.01060E-002	0.00000E+000	4.41304E-002	3.99987E-001	4.18467E-002	4.93488E+001	11	...........	6.98549E-002	-5.41833E-003	6.04716E-001	5.38081E-001	-2.71429E-002	-3.82782E-002	7.04656E-001	-4.39767E-002	2.80160E-003	-2.17307E-004	2.42527E-002	2.15803E-002	-1.08859E-003	-1.53518E-003	2.82609E-002	-1.76373E-003
	83	83	1.10025E+000	4.02408E-002	0.00000E+000	4.42750E-002	4.01327E-001	4.18625E-002	4.93385E+001	11	...........	6.98835E-002	-5.36528E-003	6.04614E-001	5.38206E-001	-2.71622E-002	-3.83044E-002	7.04593E-001	-4.39432E-002	2.81217E-003	-2.15903E-004	2.43302E-002	2.16579E-002	-1.09303E-003	-1.54140E-003	2.83534E-002	-1.76831E-003
	84	84	1.10033E+000	4.02400E-002	0.00000E+000	4.42771E-002	4.01317E-001	4.18145E-002	4.94506E+001	11	...........	6.97949E-002	-5.39819E-003	6.04672E-001	5.38126E-001	-2.71615E-002	-3.83007E-002	7.04637E-001	-4.38925E-002	2.80855E-003	-2.17223E-004	2.43320E-002	2.16542E-002	-1.09298E-003	-1.54122E-003	2.83546E-002	-1.76623E-003
	85	85	1.10035E+000	3.97937E-002	0.00000E+000	4.37870E-002	3.96880E-001	4.18022E-002	4.73711E+001	11	...........	6.97729E-002	-5.33347E-003	6.04772E-001	5.38155E-001	-2.71412E-002	-3.82933E-002	7.04597E-001	-4.38753E-002	2.77652E-003	-2.12239E-004	2.40661E-002	2.14152E-002	-1.08005E-003	-1.52383E-003	2.80385E-002	-1.74596E-003
	86	86	1.10025E+000	3.99531E-002	0.00000E+000	4.39582E-002	3.98467E-001	4.16084E-002	4.89306E+001	11	...........	6.94226E-002	-5.34847E-003	6.04748E-001	5.38165E-001	-2.71478E-002	-3.82976E-002	7.04669E-001	-4.38846E-002	2.77365E-003	-2.13688E-004	2.41615E-002	2.15013E-002	-1.08464E-003	-1.53011E-003	2.81537E-002	-1.75332E-003
	87	87	1.10032E+000	3.99671E-002	0.00000E+000	4.39768E-002	3.98602E-001	4.18563E-002	4.91625E+001	11	...........	6.98512E-002	-5.38417E-003	6.04616E-001	5.38254E-001	-2.71281E-002	-3.83126E-002	7.04553E-001	-4.39035E-002	2.79175E-003	-2.15190E-004	2.41648E-002	2.15124E-002	-1.08423E-003	-1.53125E-003	2.81590E-002	-1.75470E-003
	88	88	1.10035E+000	3.94890E-002	0.00000E+000	4.34518E-002	3.93849E-001	4.16741E-002	4.93825E+001	11	...........	6.95626E-002	-5.27236E-003	6.04469E-001	5.38278E-001	-2.71231E-002	-3.83117E-002	7.04566E-001	-4.39590E-002	2.74696E-003	-2.08200E-004	2.38699E-002	2.12561E-002	-1.07106E-003	-1.51289E-003	2.78226E-002	-1.73590E-003
	89	89	1.10025E+000	3.96294E-002	0.00000E+000	4.36021E-002	3.95247E-001	4.16652E-002	4.93600E+001	11	...........	6.95569E-002	-5.31528E-003	6.04272E-001	5.38191E-001	-2.71140E-002	-3.83200E-002	7.04529E-001	-4.39462E-002	2.75650E-003	-2.10641E-004	2.39469E-002	2.13282E-002	-1.07451E-003	-1.51860E-003	2.79200E-002	-1.74156E-003
	90	90	1.10032E+000	3.96588E-002	0.00000E+000	4.36373E-002	3.95540E-001	4.17167E-002	4.94246E+001	11	...........	6.96243E-002	-5.39167E-003	6.04137E-001	5.38157E-001	-2.70857E-002	-3.83168E-002	7.04536E-001	-4.39424E-002	2.76121E-003	-2.13827E-004	2.39594E-002	2.13427E-002	-1.07419E-003	-1.51960E-003	2.79410E-002	-1.74270E-003
	91	91	1.10036E+000	3.92407E-002	0.00000E+000	4.31788E-002	3.91382E-001	4.16208E-002	4.94294E+001	11	...........	6.94674E-002	-5.47736E-003	6.04264E-001	5.38146E-001	-2.70789E-002	-3.83203E-002	7.04533E-001	-4.39665E-002	2.72595E-003	-2.14935E-004	2.37117E-002	2.11172E-002	-1.06259E-003	-1.50371E-003	2.76464E-002	-1.72528E-003
	92	92	1.10024E+000	3.93919E-002	0.00000E+000	4.33407E-002	3.92888E-001	4.16236E-002	4.93967E+001	11	...........	6.94736E-002	-5.26931E-003	6.04399E-001	5.38152E-001	-2.70585E-002	-3.83110E-002	7.04662E-001	-4.39843E-002	2.73670E-003	-2.07568E-004	2.38084E-002	2.11988E-002	-1.06588E-003	-1.50914E-003	2.77580E-002	-1.73263E-003
	93	93	1.10032E+000	3.93786E-002	0.00000E+000	4.33290E-002	3.92756E-001	4.15602E-002	4.70994E+001	11	...........	6.93747E-002	-5.24778E-003	6.04539E-001	5.38119E-001	-2.70776E-002	-3.82965E-002	7.04707E-001	-4.39319E-002	2.73188E-003	-2.06650E-004	2.38059E-002	2.11904E-002	-1.06628E-003	-1.50806E-003	2.77503E-002	-1.72998E-003
	94	94	1.10036E+000	3.89469E-002	0.00000E+000	4.28556E-002	3.88464E-001	4.14806E-002	4.88337E+001	11	...........	6.92949E-002	-5.29889E-003	6.04636E-001	5.38091E-001	-2.70632E-002	-3.82861E-002	7.04559E-001	-4.40375E-002	2.69882E-003	-2.06375E-004	2.35487E-002	2.09569E-002	-1.05403E-003	-1.49112E-003	2.74403E-002	-1.71512E-003
	95	95	1.10025E+000	3.90702E-002	0.00000E+000	4.29868E-002	3.89686E-001	4.15304E-002	4.80398E+001	11	...........	6.93099E-002	-5.20667E-003	6.04569E-001	5.38109E-001	-2.70514E-002	-3.82937E-002	7.04704E-001	-4.41761E-002	2.70795E-003	-2.03425E-004	2.36206E-002	2.10240E-002	-1.05690E-003	-1.49614E-003	2.75329E-002	-1.72597E-003
	96	96	1.10031E+000	3.91170E-002	0.00000E+000	4.30409E-002	3.90153E-001	4.14525E-002	4.89369E+001	11	...........	6.91772E-002	-5.12750E-003	6.04676E-001	5.38131E-001	-2.70665E-002	-3.83075E-002	7.04750E-001	-4.40314E-002	2.70600E-003	-2.00572E-004	2.36531E-002	2.10500E-002	-1.05876E-003	-1.49847E-003	2.75677E-002	-1.72237E-003
	97	97	1.10037E+000	3.86910E-002	0.00000E+000	4.25743E-002	3.85918E-001	4.15254E-002	4.92975E+001	11	...........	6.93214E-002	-5.18083E-003	6.04723E-001	5.38187E-001	-2.70803E-002	-3.82822E-002	7.04713E-001	-4.40151E-002	2.68212E-003	-2.00452E-004	2.33974E-002	2.08230E-002	-1.04776E-003	-1.48118E-003	2.72661E-002	-1.70299E-003
	98	98	1.10024E+000	3.87967E-002	0.00000E+000	4.26858E-002	3.86969E-001	4.15208E-002	4.93343E+001	11	...........	6.93008E-002	-5.30361E-003	6.04740E-001	5.38269E-001	-2.70862E-002	-3.82835E-002	7.04700E-001	-4.40729E-002	2.68864E-003	-2.05763E-004	2.34619E-002	2.08830E-002	-1.05086E-003	-1.48527E-003	2.73400E-002	-1.70988E-003
	99	99	1.10031E+000	3.88320E-002	0.00000E+000	4.27273E-002	3.87321E-001	4.15003E-002	4.93781E+001	11	...........	6.92499E-002	-5.38014E-003	6.04671E-001	5.38223E-001	-2.70661E-002	-3.82699E-002	7.04553E-001	-4.40474E-002	2.68911E-003	-2.08922E-004	2.34806E-002	2.09003E-002	-1.05103E-003	-1.48610E-003	2.73592E-002	-1.71045E-003
	100	100	1.10037E+000	3.83938E-002	0.00000E+000	4.22474E-002	3.82966E-001	4.14311E-002	4.93141E+001	11	...........	6.91682E-002	-5.38875E-003	6.04697E-001	5.38270E-001	-2.70867E-002	-3.82569E-002	7.04552E-001	-4.39839E-002	2.65563E-003	-2.06895E-004	2.32166E-002	2.06663E-002	-1.03996E-003	-1.46883E-003	2.70504E-002	-1.68871E-003
	101	101	1.10024E+000	3.84720E-002	0.00000E+000	4.23287E-002	3.83741E-001	4.14308E-002	4.94525E+001	11	...........	6.91447E-002	-5.38847E-003	6.04737E-001	5.38503E-001	-2.71043E-002	-3.82506E-002	7.04547E-001	-4.38993E-002	2.66014E-003	-2.07305E-004	2.32654E-002	2.07173E-002	-1.04276E-003	-1.47158E-003	2.71053E-002	-1.68890E-003
	102	102	1.10031E+000	3.84843E-002	0.00000E+000	4.23446E-002	3.83861E-001	4.13164E-002	4.69067E+001	11	...........	6.89501E-002	-5.38958E-003	6.04658E-001	5.38525E-001	-2.71229E-002	-3.82360E-002	7.04540E-001	-4.38174E-002	2.65350E-003	-2.07414E-004	2.32698E-002	2.07247E-002	-1.04381E-003	-1.47148E-003	2.71137E-002	-1.68628E-003
	103	103	1.10037E+000	3.81494E-002	0.00000E+000	4.19784E-002	3.80532E-001	4.13384E-002	4.89431E+001	11	...........	6.89901E-002	-5.29681E-003	6.04574E-001	5.38423E-001	-2.71514E-002	-3.82712E-002	7.04597E-001	-4.37375E-002	2.63193E-003	-2.02070E-004	2.30641E-002	2.05405E-002	-1.03581E-003	-1.46002E-003	2.68799E-002	-1.66856E-003
	104	104	1.10024E+000	3.82116E-002	0.00000E+000	4.20421E-002	3.81155E-001	4.13412E-002	4.94370E+001	11	...........	6.90078E-002	-5.35972E-003	6.04865E-001	5.38314E-001	-2.71418E-002	-3.82756E-002	7.04509E-001	-4.38046E-002	2.63690E-003	-2.04803E-004	2.31128E-002	2.05698E-002	-1.03713E-003	-1.46257E-003	2.69204E-002	-1.67384E-003
	105	105	1.10030E+000	3.82787E-002	0.00000E+000	4.21182E-002	3.81818E-001	4.12852E-002	4.94280E+001	11	...........	6.89103E-002	-5.33736E-003	6.04818E-001	5.38377E-001	-2.71435E-002	-3.82576E-002	7.04658E-001	-4.39815E-002	2.63779E-003	-2.04307E-004	2.31516E-002	2.06084E-002	-1.03902E-003	-1.46445E-003	2.69734E-002	-1.68355E-003
	106	106	1.10038E+000	3.78800E-002	0.00000E+000	4.16822E-002	3.77855E-001	4.12710E-002	4.94444E+001	11	...........	6.88879E-002	-5.29583E-003	6.04672E-001	5.38264E-001	-2.71324E-002	-3.82700E-002	7.04616E-001	-4.39222E-002	2.60948E-003	-2.00606E-004	2.29050E-002	2.03895E-002	-1.02777E-003	-1.44967E-003	2.66909E-002	-1.66377E-003
	107	107	1.10024E+000	3.78938E-002	0.00000E+000	4.16924E-002	3.77998E-001	4.12429E-002	4.93808E+001	11	...........	6.88344E-002	-5.34111E-003	6.04788E-001	5.38216E-001	-2.71317E-002	-3.83051E-002	7.04639E-001	-4.38887E-002	2.60840E-003	-2.02395E-004	2.29177E-002	2.03951E-002	-1.02812E-003	-1.45153E-003	2.67015E-002	-1.66311E-003
	108	108	1.10030E+000	3.79721E-002	0.00000E+000	4.17808E-002	3.78776E-001	4.12438E-002	4.93721E+001	11	...........	6.88471E-002	-5.43403E-003	6.04787E-001	5.38180E-001	-2.71074E-002	-3.83106E-002	7.04785E-001	-4.39982E-002	2.61427E-003	-2.06341E-004	2.29650E-002	2.04358E-002	-1.02932E-003	-1.45473E-003	2.67621E-002	-1.67070E-003
	109	109	1.10038E+000	3.75504E-002	0.00000E+000	4.13196E-002	3.74582E-001	4.11988E-002	4.66481E+001	11	...........	6.87604E-002	-5.45722E-003	6.04807E-001	5.38334E-001	-2.70914E-002	-3.83297E-002	7.04802E-001	-4.39953E-002	2.58198E-003	-2.04921E-004	2.27108E-002	2.02146E-002	-1.01729E-003	-1.43930E-003	2.64656E-002	-1.65204E-003
	110	110	1.10024E+000	3.76115E-002	0.00000E+000	4.13818E-002	3.75191E-001	4.11063E-002	4.85190E+001	11	...........	6.86085E-002	-5.36764E-003	6.04895E-001	5.38445E-001	-2.70849E-002	-3.83229E-002	7.04713E-001	-4.40851E-002	2.58047E-003	-2.01885E-004	2.27510E-002	2.02517E-002	-1.01870E-003	-1.44138E-003	2.65053E-002	-1.65811E-003
	111	111	1.10030E+000	3.77610E-002	0.00000E+000	4.15484E-002	3.76676E-001	4.12348E-002	4.92737E+001	11	...........	6.88107E-002	-5.39042E-003	6.05052E-001	5.38480E-001	-2.70631E-002	-3.83260E-002	7.04675E-001	-4.40831E-002	2.59836E-003	-2.03547E-004	2.28474E-002	2.03335E-002	-1.02193E-003	-1.44723E-003	2.66092E-002	-1.66462E-003
	112	112	1.10038E+000	3.73470E-002	0.00000E+000	4.10958E-002	3.72555E-001	4.12261E-002	4.94027E+001	11	...........	6.87937E-002	-5.33083E-003	6.05049E-001	5.38448E-001	-2.70549E-002	-3.83137E-002	7.04707E-001	-4.40618E-002	2.56924E-003	-1.99091E-004	2.25967E-002	2.01094E-002	-1.01042E-003	-1.43090E-003	2.63187E-002	-1.64558E-003
	113	113	1.10024E+000	3.73579E-002	0.00000E+000	4.11028E-002	3.72664E-001	4.11822E-002	4.94206E+001	11	...........	6.87401E-002	-5.37986E-003	6.05030E-001	5.38393E-001	-2.70656E-002	-3.83169E-002	7.04715E-001	-4.39918E-002	2.56799E-003	-2.00980E-004	2.26027E-002	2.01132E-002	-1.01111E-003	-1.43144E-003	2.63267E-002	-1.64344E-003
	114	114	1.10030E+000	3.74543E-002	0.00000E+000	4.12109E-002	3.73620E-001	4.11494E-002	4.94112E+001	11	...........	6.86774E-002	-5.40583E-003	6.04981E-001	5.38343E-001	-2.70540E-002	-3.83237E-002	7.04646E-001	-4.39382E-002	2.57227E-003	-2.02472E-004	2.26592E-002	2.01633E-002	-1.01329E-003	-1.43539E-003	2.63921E-002	-1.64568E-003
	115	115	1.10038E+000	3.70576E-002	0.00000E+000	4.07776E-002	3.69676E-001	4.10440E-002	4.73403E+001	11	...........	6.85026E-002	-5.35931E-003	6.05016E-001	5.38296E-001	-2.70447E-002	-3.83479E-002	7.04744E-001	-4.37972E-002	2.53855E-003	-1.98603E-004	2.24204E-002	1.99480E-002	-1.00221E-003	-1.42108E-003	2.61162E-002	-1.62302E-003
	116	116	1.10024E+000	3.70792E-002	0.00000E+000	4.07962E-002	3.69894E-001	4.10905E-002	4.90720E+001	11	...........	6.85821E-002	-5.34389E-003	6.05045E-001	5.38360E-001	-2.70457E-002	-3.83542E-002	7.04848E-001	-4.38281E-002	2.54297E-003	-1.98147E-004	2.24346E-002	1.99620E-002	-1.00283E-003	-1.42214E-003	2.61352E-002	-1.62511E-003
	117	117	1.10030E+000	3.71544E-002	0.00000E+000	4.08808E-002	3.70640E-001	4.11058E-002	4.94728E+001	11	...........	6.86265E-002	-5.34194E-003	6.05126E-001	5.38249E-001	-2.70304E-002	-3.83489E-002	7.04780E-001	-4.39079E-002	2.54977E-003	-1.98477E-004	2.24831E-002	1.99983E-002	-1.00430E-003	-1.42483E-003	2.61856E-002	-1.63137E-003
	118	118	1.10038E+000	3.68224E-002	0.00000E+000	4.05186E-002	3.67335E-001	4.10378E-002	4.94000E+001	11	...........	6.84981E-002	-5.34167E-003	6.05147E-001	5.38155E-001	-2.70217E-002	-3.83300E-002	7.04778E-001	-4.39285E-002	2.52226E-003	-1.96693E-004	2.22829E-002	1.98161E-002	-9.95001E-004	-1.41140E-003	2.59516E-002	-1.61755E-003
	119	119	1.10025E+000	3.68028E-002	0.00000E+000	4.04921E-002	3.67143E-001	4.10127E-002	4.93854E+001	11	...........	6.84553E-002	-5.38361E-003	6.05057E-001	5.38207E-001	-2.70050E-002	-3.83275E-002	7.04704E-001	-4.39610E-002	2.51934E-003	-1.98132E-004	2.22678E-002	1.98075E-002	-9.93859E-004	-1.41056E-003	2.59351E-002	-1.61789E-003
	120	120	1.10030E+000	3.69188E-002	0.00000E+000	4.06215E-002	3.68297E-001	4.10072E-002	4.94264E+001	11	...........	6.84561E-002	-5.34333E-003	6.05037E-001	5.38060E-001	-2.70115E-002	-3.83418E-002	7.04660E-001	-4.38882E-002	2.52731E-003	-1.97269E-004	2.23372E-002	1.98645E-002	-9.97232E-004	-1.41553E-003	2.60152E-002	-1.62030E-003
	121	121	1.10038E+000	3.65599E-002	0.00000E+000	4.02299E-002	3.64724E-001	4.09643E-002	4.94658E+001	11	...........	6.83747E-002	-5.21611E-003	6.05183E-001	5.38089E-001	-2.70315E-002	-3.83194E-002	7.04795E-001	-4.38282E-002	2.49977E-003	-1.90701E-004	2.21254E-002	1.96725E-002	-9.88271E-004	-1.40096E-003	2.57672E-002	-1.60236E-003
	122	122	1.10025E+000	3.65667E-002	0.00000E+000	4.02324E-002	3.64795E-001	4.09675E-002	4.94918E+001	11	...........	6.83818E-002	-5.23569E-003	6.05209E-001	5.38011E-001	-2.70406E-002	-3.83258E-002	7.04889E-001	-4.38226E-002	2.50050E-003	-1.91452E-004	2.21305E-002	1.96733E-002	-9.88784E-004	-1.40145E-003	2.57755E-002	-1.60245E-003
	123	123	1.10029E+000	3.66485E-002	0.00000E+000	4.03241E-002	3.65610E-001	4.09262E-002	4.94456E+001	11	...........	6.83039E-002	-5.32139E-003	6.05286E-001	5.37897E-001	-2.70401E-002	-3.83465E-002	7.04838E-001	-4.39022E-002	2.50324E-003	-1.95021E-004	2.21828E-002	1.97131E-002	-9.90981E-004	-1.40534E-003	2.58313E-002	-1.60895E-003
	124	124	1.10039E+000	3.63166E-002	0.00000E+000	3.99622E-002	3.62310E-001	4.09941E-002	4.62775E+001	11	...........	6.84217E-002	-5.25875E-003	6.05128E-001	5.37795E-001	-2.70439E-002	-3.83325E-002	7.04781E-001	-4.40150E-002	2.48484E-003	-1.90980E-004	2.19762E-002	1.95309E-002	-9.82141E-004	-1.39210E-003	2.55952E-002	-1.59847E-003
	125	125	1.10024E+000	3.62208E-002	0.00000E+000	3.98517E-002	3.61353E-001	4.06369E-002	4.84570E+001	11	...........	6.78317E-002	-5.27736E-003	6.05072E-001	5.37871E-001	-2.70644E-002	-3.82987E-002	7.04828E-001	-4.39889E-002	2.45692E-003	-1.91150E-004	2.19162E-002	1.94821E-002	-9.80295E-004	-1.38721E-003	2.55294E-002	-1.59331E-003
	126	126	1.10029E+000	3.63807E-002	0.00000E+000	4.00294E-002	3.62945E-001	4.09504E-002	4.92848E+001	11	...........	6.83488E-002	-5.34292E-003	6.05188E-001	5.37842E-001	-2.70408E-002	-3.82893E-002	7.04779E-001	-4.39214E-002	2.48657E-003	-1.94379E-004	2.20172E-002	1.95671E-002	-9.83764E-004	-1.39299E-003	2.56404E-002	-1.59789E-003
	127	127	1.10038E+000	3.60361E-002	0.00000E+000	3.96536E-002	3.59519E-001	4.08203E-002	4.93199E+001	11	...........	6.81410E-002	-5.29069E-003	6.05222E-001	5.37819E-001	-2.70343E-002	-3.82858E-002	7.04792E-001	-4.39242E-002	2.45554E-003	-1.90656E-004	2.18099E-002	1.93809E-002	-9.74211E-004	-1.37967E-003	2.53980E-002	-1.58286E-003
	128	128	1.10025E+000	3.59868E-002	0.00000E+000	3.95944E-002	3.59026E-001	4.08628E-002	4.93341E+001	11	...........	6.82192E-002	-5.33208E-003	6.05262E-001	5.37850E-001	-2.70033E-002	-3.82594E-002	7.04845E-001	-4.39379E-002	2.45499E-003	-1.91885E-004	2.17815E-002	1.93555E-002	-9.71764E-004	-1.37684E-003	2.53651E-002	-1.58119E-003
	129	129	1.10029E+000	3.61197E-002	0.00000E+000	3.97421E-002	3.60351E-001	4.08057E-002	4.93694E+001	11	...........	6.81197E-002	-5.33139E-003	6.05302E-001	5.37833E-001	-2.70433E-002	-3.82665E-002	7.04920E-001	-4.38922E-002	2.46046E-003	-1.92568E-004	2.18633E-002	1.94264E-002	-9.76797E-004	-1.38218E-003	2.54615E-002	-1.58537E-003
	130	130	1.10038E+000	3.58280E-002	0.00000E+000	3.94245E-002	3.57450E-001	4.08259E-002	4.86963E+001	11	...........	6.81494E-002	-5.34375E-003	6.05307E-001	5.37799E-001	-2.70625E-002	-3.82658E-002	7.04939E-001	-4.38704E-002	2.44166E-003	-1.91456E-004	2.16869E-002	1.92683E-002	-9.69595E-004	-1.37099E-003	2.52566E-002	-1.57179E-003
	131	131	1.10025E+000	3.57438E-002	0.00000E+000	3.93271E-002	3.56611E-001	4.07732E-002	4.90741E+001	11	...........	6.80392E-002	-5.31500E-003	6.05400E-001	5.37798E-001	-2.70353E-002	-3.82386E-002	7.04941E-001	-4.38413E-002	2.43198E-003	-1.89978E-004	2.16393E-002	1.92230E-002	-9.66344E-004	-1.36679E-003	2.51973E-002	-1.56705E-003
	132	132	1.10029E+000	3.58527E-002	0.00000E+000	3.94484E-002	3.57697E-001	4.07387E-002	4.90901E+001	11	...........	6.79811E-002	-5.38569E-003	6.05502E-001	5.37845E-001	-2.70047E-002	-3.82253E-002	7.04791E-001	-4.38419E-002	2.43731E-003	-1.93092E-004	2.17089E-002	1.92832E-002	-9.68192E-004	-1.37048E-003	2.52686E-002	-1.57185E-003
	133	133	1.10038E+000	3.55931E-002	0.00000E+000	3.91660E-002	3.55113E-001	4.07661E-002	4.91366E+001	11	...........	6.80363E-002	-5.42264E-003	6.05525E-001	5.37815E-001	-2.69928E-002	-3.82356E-002	7.04861E-001	-4.37546E-002	2.42162E-003	-1.93008E-004	2.15525E-002	1.91425E-002	-9.60756E-004	-1.36092E-003	2.50881E-002	-1.55736E-003
	134	134	1.10025E+000	3.54794E-002	0.00000E+000	3.90362E-002	3.53981E-001	4.07527E-002	4.91490E+001	11	...........	6.80125E-002	-5.38056E-003	6.05355E-001	5.37908E-001	-2.69743E-002	-3.82572E-002	7.04818E-001	-4.38301E-002	2.41304E-003	-1.90899E-004	2.14776E-002	1.90847E-002	-9.57032E-004	-1.35734E-003	2.50065E-002	-1.55507E-003
	135	135	1.10029E+000	3.56068E-002	0.00000E+000	3.91777E-002	3.55246E-001	4.06824E-002	4.91780E+001	11	...........	6.79133E-002	-5.38653E-003	6.05408E-001	5.38048E-001	-2.69368E-002	-3.82351E-002	7.04948E-001	-4.38856E-002	2.41817E-003	-1.91797E-004	2.15566E-002	1.91582E-002	-9.59133E-004	-1.36143E-003	2.51009E-002	-1.56262E-003
	136	136	1.10038E+000	3.53131E-002	0.00000E+000	3.88579E-002	3.52330E-001	4.07142E-002	4.92086E+001	11	...........	6.79657E-002	-5.31569E-003	6.05461E-001	5.38192E-001	-2.69407E-002	-3.82072E-002	7.04836E-001	-4.37726E-002	2.40008E-003	-1.87713E-004	2.13807E-002	1.90052E-002	-9.51359E-004	-1.34921E-003	2.48899E-002	-1.54575E-003
	137	137	1.10025E+000	3.51817E-002	0.00000E+000	3.87088E-002	3.51024E-001	4.06327E-002	4.90770E+001	11	...........	6.78215E-002	-5.33528E-003	6.05470E-001	5.38195E-001	-2.69783E-002	-3.82171E-002	7.04722E-001	-4.38269E-002	2.38608E-003	-1.87704E-004	2.13015E-002	1.89346E-002	-9.49144E-004	-1.34454E-003	2.47933E-002	-1.54191E-003
	138	138	1.10029E+000	3.52939E-002	0.00000E+000	3.88334E-002	3.52142E-001	4.04194E-002	4.70800E+001	11	...........	6.74593E-002	-5.37278E-003	6.05432E-001	5.38113E-001	-2.69874E-002	-3.82218E-002	7.04686E-001	-4.38001E-002	2.38090E-003	-1.89626E-004	2.13680E-002	1.89921E-002	-9.52488E-004	-1.34899E-003	2.48711E-002	-1.54588E-003
	139	139	1.10038E+000	3.50966E-002	0.00000E+000	3.86197E-002	3.50178E-001	4.06849E-002	4.90812E+001	11	...........	6.79036E-002	-5.52486E-003	6.05544E-001	5.38117E-001	-2.69811E-002	-3.82228E-002	7.04726E-001	-4.38061E-002	2.38319E-003	-1.93904E-004	2.12525E-002	1.88861E-002	-9.46946E-004	-1.34149E-003	2.47335E-002	-1.53745E-003
	140	140	1.10025E+000	3.49521E-002	0.00000E+000	3.84563E-002	3.48737E-001	4.05807E-002	4.93373E+001	11	...........	6.77257E-002	-5.47875E-003	6.05478E-001	5.37985E-001	-2.70103E-002	-3.82525E-002	7.04810E-001	-4.39304E-002	2.36716E-003	-1.91494E-004	2.11628E-002	1.88037E-002	-9.44067E-004	-1.33701E-003	2.46346E-002	-1.53546E-003
	141	141	1.10029E+000	3.50875E-002	0.00000E+000	3.86063E-002	3.50085E-001	4.05449E-002	4.92750E+001	11	...........	6.76675E-002	-5.41403E-003	6.05462E-001	5.37843E-001	-2.70057E-002	-3.82581E-002	7.04859E-001	-4.38857E-002	2.37428E-003	-1.89965E-004	2.12442E-002	1.88716E-002	-9.47562E-004	-1.34238E-003	2.47317E-002	-1.53984E-003
	142	142	1.10038E+000	3.48660E-002	0.00000E+000	3.83658E-002	3.47883E-001	4.04665E-002	4.92661E+001	11	...........	6.75431E-002	-5.37264E-003	6.05282E-001	5.37770E-001	-2.70087E-002	-3.82397E-002	7.04833E-001	-4.38424E-002	2.35496E-003	-1.87322E-004	2.11038E-002	1.87499E-002	-9.41687E-004	-1.33327E-003	2.45747E-002	-1.52861E-003
	143	143	1.10026E+000	3.47094E-002	0.00000E+000	3.81893E-002	3.46327E-001	4.05828E-002	4.93361E+001	11	...........	6.77329E-002	-5.44250E-003	6.05219E-001	5.37778E-001	-2.69806E-002	-3.82218E-002	7.04837E-001	-4.39115E-002	2.35097E-003	-1.88906E-004	2.10068E-002	1.86660E-002	-9.36479E-004	-1.32666E-003	2.44645E-002	-1.52414E-003
	144	144	1.10029E+000	3.47572E-002	0.00000E+000	3.82428E-002	3.46805E-001	4.02769E-002	4.60292E+001	11	...........	6.72250E-002	-5.34153E-003	6.05142E-001	5.37846E-001	-2.69974E-002	-3.81914E-002	7.04741E-001	-4.38853E-002	2.33655E-003	-1.85656E-004	2.10330E-002	1.86940E-002	-9.38351E-004	-1.32742E-003	2.44948E-002	-1.52533E-003
	145	145	1.10038E+000	3.46077E-002	0.00000E+000	3.80816E-002	3.45318E-001	4.04713E-002	4.86172E+001	11	...........	6.75642E-002	-5.34736E-003	6.05113E-001	5.37906E-001	-2.69954E-002	-3.81821E-002	7.04816E-001	-4.38958E-002	2.33824E-003	-1.85060E-004	2.09416E-002	1.86157E-002	-9.34250E-004	-1.32140E-003	2.43921E-002	-1.51913E-003
	146	146	1.10026E+000	3.44522E-002	0.00000E+000	3.79064E-002	3.43771E-001	4.03831E-002	4.93235E+001	11	...........	6.74017E-002	-5.32722E-003	6.05169E-001	5.37932E-001	-2.69896E-002	-3.81715E-002	7.04699E-001	-4.39636E-002	2.32214E-003	-1.83535E-004	2.08494E-002	1.85330E-002	-9.29851E-004	-1.31509E-003	2.42784E-002	-1.51464E-003
	147	147	1.10028E+000	3.45877E-002	0.00000E+000	3.80563E-002	3.45121E-001	4.04227E-002	4.90104E+001	11	...........	6.74651E-002	-5.22667E-003	6.05250E-001	5.37990E-001	-2.69675E-002	-3.81835E-002	7.04591E-001	-4.39267E-002	2.33346E-003	-1.80778E-004	2.09342E-002	1.86078E-002	-9.32744E-004	-1.32068E-003	2.43702E-002	-1.51932E-003
	148	148	1.10038E+000	3.43638E-002	0.00000E+000	3.78132E-002	3.42897E-001	4.04056E-002	4.87108E+001	11	...........	6.74307E-002	-5.23472E-003	6.05272E-001	5.38005E-001	-2.69582E-002	-3.81818E-002	7.04654E-001	-4.37842E-002	2.31718E-003	-1.79885E-004	2.07995E-002	1.84879E-002	-9.26387E-004	-1.31207E-003	2.42146E-002	-1.50459E-003
	149	149	1.10026E+000	3.42195E-002	0.00000E+000	3.76504E-002	3.41462E-001	4.04016E-002	4.90411E+001	11	...........	6.74087E-002	-5.25472E-003	6.05043E-001	5.37931E-001	-2.69675E-002	-3.81685E-002	7.04658E-001	-4.37210E-002	2.30669E-003	-1.79814E-004	2.07043E-002	1.84077E-002	-9.22814E-004	-1.30611E-003	2.41130E-002	-1.49611E-003
	150	150	1.10028E+000	3.43717E-002	0.00000E+000	3.78186E-002	3.42973E-001	4.04414E-002	4.90913E+001	11	...........	6.75056E-002	-5.34403E-003	6.04925E-001	5.37782E-001	-2.69750E-002	-3.81669E-002	7.04671E-001	-4.37332E-002	2.32028E-003	-1.83684E-004	2.07923E-002	1.84845E-002	-9.27178E-004	-1.31186E-003	2.42208E-002	-1.50319E-003
	151	151	1.10037E+000	3.40896E-002	0.00000E+000	3.75113E-002	3.40165E-001	4.02067E-002	4.80634E+001	11	...........	6.71083E-002	-5.34944E-003	6.04739E-001	5.37624E-001	-2.70258E-002	-3.81671E-002	7.04771E-001	-4.38200E-002	2.28770E-003	-1.82361E-004	2.06153E-002	1.83274E-002	-9.21301E-004	-1.30110E-003	2.40254E-002	-1.49381E-003
	152	152	1.10027E+000	3.39773E-002	0.00000E+000	3.73841E-002	3.39051E-001	4.05069E-002	4.91029E+001	11	...........	6.76071E-002	-5.27569E-003	6.04569E-001	5.37751E-001	-2.70443E-002	-3.81612E-002	7.04721E-001	-4.39950E-002	2.29710E-003	-1.79254E-004	2.05416E-002	1.82713E-002	-9.18892E-004	-1.29662E-003	2.39445E-002	-1.49483E-003
	153	153	1.10028E+000	3.41099E-002	0.00000E+000	3.75305E-002	3.40371E-001	4.03102E-002	4.93682E+001	11	...........	6.72961E-002	-5.21292E-003	6.04546E-001	5.37740E-001	-2.70147E-002	-3.81339E-002	7.04732E-001	-4.40517E-002	2.29546E-003	-1.77812E-004	2.06210E-002	1.83422E-002	-9.21468E-004	-1.30074E-003	2.40383E-002	-1.50260E-003
	154	154	1.10037E+000	3.39108E-002	0.00000E+000	3.73144E-002	3.38389E-001	4.02558E-002	4.92787E+001	11	...........	6.72004E-002	-5.23014E-003	6.04616E-001	5.37770E-001	-2.70246E-002	-3.81242E-002	7.04777E-001	-4.39844E-002	2.27882E-003	-1.77358E-004	2.05030E-002	1.82362E-002	-9.16424E-004	-1.29282E-003	2.38995E-002	-1.49155E-003
	155	155	1.10027E+000	3.37008E-002	0.00000E+000	3.70799E-002	3.36304E-001	4.03258E-002	4.93725E+001	11	...........	6.73057E-002	-5.23944E-003	6.04572E-001	5.37608E-001	-2.70418E-002	-3.81446E-002	7.04671E-001	-4.40560E-002	2.26826E-003	-1.76574E-004	2.03746E-002	1.81178E-002	-9.11331E-004	-1.28550E-003	2.37480E-002	-1.48472E-003
	156	156	1.10028E+000	3.38551E-002	0.00000E+000	3.72501E-002	3.37836E-001	4.02967E-002	4.95066E+001	11	...........	6.72636E-002	-5.26375E-003	6.04582E-001	5.37679E-001	-2.70249E-002	-3.81464E-002	7.04680E-001	-4.40354E-002	2.27721E-003	-1.78205E-004	2.04681E-002	1.82031E-002	-9.14928E-004	-1.29145E-003	2.38570E-002	-1.49082E-003
	157	157	1.10037E+000	3.36576E-002	0.00000E+000	3.70358E-002	3.35872E-001	4.02787E-002	4.95043E+001	11	...........	6.72210E-002	-5.28778E-003	6.04708E-001	5.37679E-001	-2.70293E-002	-3.81407E-002	7.04675E-001	-4.39818E-002	2.26250E-003	-1.77974E-004	2.03530E-002	1.80970E-002	-9.09741E-004	-1.28372E-003	2.37176E-002	-1.48032E-003
	158	158	1.10027E+000	3.34433E-002	0.00000E+000	3.67967E-002	3.33743E-001	4.02737E-002	4.87867E+001	11	...........	6.72378E-002	-5.33194E-003	6.04769E-001	5.37704E-001	-2.70310E-002	-3.81308E-002	7.04697E-001	-4.39964E-002	2.24865E-003	-1.78318E-004	2.02255E-002	1.79826E-002	-9.04005E-004	-1.27522E-003	2.35674E-002	-1.47138E-003
	159	159	1.10028E+000	3.36029E-002	0.00000E+000	3.69726E-002	3.35333E-001	4.01799E-002	4.89526E+001	11	...........	6.70628E-002	-5.41278E-003	6.04818E-001	5.37690E-001	-2.70310E-002	-3.81437E-002	7.04856E-001	-4.39731E-002	2.25350E-003	-1.81885E-004	2.03237E-002	1.80680E-002	-9.08319E-004	-1.28174E-003	2.36852E-002	-1.47762E-003
	160	160	1.10037E+000	3.34195E-002	0.00000E+000	3.67737E-002	3.33507E-001	4.01592E-002	4.85426E+001	11	...........	6.70339E-002	-5.45361E-003	6.04799E-001	5.37641E-001	-2.70525E-002	-3.81306E-002	7.04821E-001	-4.40464E-002	2.24024E-003	-1.82257E-004	2.02121E-002	1.79677E-002	-9.04081E-004	-1.27430E-003	2.35547E-002	-1.47201E-003
	161	161	1.10027E+000	3.31982E-002	0.00000E+000	3.65272E-002	3.31308E-001	4.01802E-002	4.71040E+001	11	...........	6.70612E-002	-5.34278E-003	6.04854E-001	5.37591E-001	-2.70833E-002	-3.81253E-002	7.04765E-001	-4.39794E-002	2.22632E-003	-1.77371E-004	2.00801E-002	1.78471E-002	-8.99119E-004	-1.26569E-003	2.33970E-002	-1.46004E-003
	162	162	1.10028E+000	3.33765E-002	0.00000E+000	3.67235E-002	3.33080E-001	4.01865E-002	4.87202E+001	11	...........	6.70751E-002	-5.32861E-003	6.04803E-001	5.37582E-001	-2.70985E-002	-3.81326E-002	7.04772E-001	-4.39249E-002	2.23874E-003	-1.77851E-004	2.01862E-002	1.79426E-002	-9.04453E-004	-1.27274E-003	2.35229E-002	-1.46606E-003
	163	163	1.10037E+000	3.32214E-002	0.00000E+000	3.65558E-002	3.31537E-001	4.02072E-002	4.90202E+001	11	...........	6.71197E-002	-5.29806E-003	6.04928E-001	5.37562E-001	-2.70931E-002	-3.81514E-002	7.04735E-001	-4.40028E-002	2.22981E-003	-1.76009E-004	2.00966E-002	1.78586E-002	-9.00070E-004	-1.26744E-003	2.34123E-002	-1.46183E-003
	164	164	1.10028E+000	3.29523E-002	0.00000E+000	3.62566E-002	3.28863E-001	4.01577E-002	4.90132E+001	11	...........	6.70378E-002	-5.32097E-003	6.05080E-001	5.37586E-001	-2.71015E-002	-3.81512E-002	7.04822E-001	-4.40678E-002	2.20905E-003	-1.75338E-004	1.99387E-002	1.77147E-002	-8.93056E-004	-1.25717E-003	2.32255E-002	-1.45213E-003
	165	165	1.10028E+000	3.31449E-002	0.00000E+000	3.64687E-002	3.30776E-001	4.01947E-002	4.90747E+001	11	...........	6.70817E-002	-5.35083E-003	6.05156E-001	5.37732E-001	-2.71299E-002	-3.81265E-002	7.04909E-001	-4.40728E-002	2.22342E-003	-1.77353E-004	2.00579E-002	1.78231E-002	-8.99218E-004	-1.26370E-003	2.33642E-002	-1.46079E-003
	166	166	1.10037E+000	3.30079E-002	0.00000E+000	3.63207E-002	3.29415E-001	4.01483E-002	4.91375E+001	11	...........	6.70179E-002	-5.24458E-003	6.05233E-001	5.37831E-001	-2.71272E-002	-3.81128E-002	7.04849E-001	-4.40297E-002	2.21212E-003	-1.73112E-004	1.99775E-002	1.77527E-002	-8.95412E-004	-1.25802E-003	2.32656E-002	-1.45333E-003
	167	167	1.10028E+000	3.27148E-002	0.00000E+000	3.59954E-002	3.26498E-001	4.01251E-002	4.91405E+001	11	...........	6.69737E-002	-5.27139E-003	6.05161E-001	5.37958E-001	-2.71149E-002	-3.81003E-002	7.04862E-001	-4.39312E-002	2.19103E-003	-1.72452E-004	1.97977E-002	1.75992E-002	-8.87057E-004	-1.24644E-003	2.30594E-002	-1.43720E-003
	168	168	1.10028E+000	3.28826E-002	0.00000E+000	3.61799E-002	3.28167E-001	4.00740E-002	4.91279E+001	11	...........	6.68826E-002	-5.48486E-003	6.05240E-001	5.38017E-001	-2.70949E-002	-3.81081E-002	7.04894E-001	-4.40647E-002	2.19927E-003	-1.80356E-004	1.99018E-002	1.76914E-002	-8.90948E-004	-1.25309E-003	2.31787E-002	-1.44896E-003
	169	169	1.10036E+000	3.27571E-002	0.00000E+000	3.60447E-002	3.26919E-001	4.01160E-002	4.91653E+001	11	...........	6.69717E-002	-5.50111E-003	6.05163E-001	5.38005E-001	-2.70960E-002	-3.80749E-002	7.04855E-001	-4.41089E-002	2.19380E-003	-1.80200E-004	1.98234E-002	1.76235E-002	-8.87585E-004	-1.24722E-003	2.30890E-002	-1.44488E-003
	170	170	1.10028E+000	3.24769E-002	0.00000E+000	3.57338E-002	3.24137E-001	4.00732E-002	4.92370E+001	11	...........	6.68974E-002	-5.46778E-003	6.05079E-001	5.37992E-001	-2.71001E-002	-3.80440E-002	7.04921E-001	-4.40733E-002	2.17262E-003	-1.77577E-004	1.96511E-002	1.74723E-002	-8.80129E-004	-1.23555E-003	2.28937E-002	-1.43137E-003
	171	171	1.10028E+000	3.26479E-002	0.00000E+000	3.59217E-002	3.25834E-001	4.00051E-002	4.92271E+001	11	...........	6.67921E-002	-5.37667E-003	6.05153E-001	5.37990E-001	-2.71093E-002	-3.80576E-002	7.04871E-001	-4.40246E-002	2.18062E-003	-1.75537E-004	1.97569E-002	1.75642E-002	-8.85061E-004	-1.24250E-003	2.30125E-002	-1.43731E-003
	172	172	1.10036E+000	3.25375E-002	0.00000E+000	3.58030E-002	3.24735E-001	4.00762E-002	4.92499E+001	11	...........	6.68937E-002	-5.36875E-003	6.05241E-001	5.37979E-001	-2.70911E-002	-3.80847E-002	7.04807E-001	-4.39233E-002	2.17655E-003	-1.74686E-004	1.96930E-002	1.75045E-002	-8.81477E-004	-1.23918E-003	2.29327E-002	-1.42916E-003
	173	173	1.10029E+000	3.22551E-002	0.00000E+000	3.54898E-002	3.21927E-001	3.99648E-002	4.64725E+001	11	...........	6.66975E-002	-5.33486E-003	6.05270E-001	5.38124E-001	-2.70621E-002	-3.80940E-002	7.04731E-001	-4.37719E-002	2.15133E-003	-1.72076E-004	1.95230E-002	1.73572E-002	-8.72889E-004	-1.22872E-003	2.27311E-002	-1.41187E-003
	174	174	1.10027E+000	3.23588E-002	0.00000E+000	3.56036E-002	3.22960E-001	3.97337E-002	4.87698E+001	11	...........	6.63293E-002	-5.39958E-003	6.05184E-001	5.38226E-001	-2.70531E-002	-3.80768E-002	7.04664E-001	-4.37582E-002	2.14634E-003	-1.74724E-004	1.95831E-002	1.74164E-002	-8.75406E-004	-1.23212E-003	2.28021E-002	-1.41596E-003
	175	175	1.10036E+000	3.23398E-002	0.00000E+000	3.55854E-002	3.22773E-001	4.00015E-002	4.93612E+001	11	...........	6.67658E-002	-5.48458E-003	6.05319E-001	5.38120E-001	-2.70647E-002	-3.80914E-002	7.04668E-001	-4.39782E-002	2.15920E-003	-1.77370E-004	1.95759E-002	1.74027E-002	-8.75268E-004	-1.23187E-003	2.27888E-002	-1.42225E-003
	176	176	1.10029E+000	3.20488E-002	0.00000E+000	3.52629E-002	3.19875E-001	3.98407E-002	4.93824E+001	11	...........	6.65040E-002	-5.45069E-003	6.05397E-001	5.38016E-001	-2.70760E-002	-3.81185E-002	7.04723E-001	-4.38282E-002	2.13137E-003	-1.74688E-004	1.94022E-002	1.72428E-002	-8.67752E-004	-1.22165E-003	2.25855E-002	-1.40464E-003
	177	177	1.10028E+000	3.21935E-002	0.00000E+000	3.54217E-002	3.21314E-001	3.98648E-002	4.93368E+001	11	...........	6.65424E-002	-5.35972E-003	6.05424E-001	5.38036E-001	-2.70640E-002	-3.81153E-002	7.04631E-001	-4.38629E-002	2.14223E-003	-1.72548E-004	1.94907E-002	1.73212E-002	-8.71285E-004	-1.22706E-003	2.26845E-002	-1.41210E-003
	178	178	1.10036E+000	3.20589E-002	0.00000E+000	3.52762E-002	3.19979E-001	3.98275E-002	4.93114E+001	11	...........	6.64801E-002	-5.25792E-003	6.05286E-001	5.38003E-001	-2.70661E-002	-3.81297E-002	7.04662E-001	-4.39431E-002	2.13128E-003	-1.68563E-004	1.94048E-002	1.72478E-002	-8.67709E-004	-1.22240E-003	2.25906E-002	-1.40876E-003
	179	179	1.10029E+000	3.17754E-002	0.00000E+000	3.49621E-002	3.17160E-001	3.98687E-002	4.92470E+001	11	...........	6.65360E-002	-5.26472E-003	6.05476E-001	5.38109E-001	-2.70504E-002	-3.81218E-002	7.04635E-001	-4.39133E-002	2.11421E-003	-1.67289E-004	1.92392E-002	1.70986E-002	-8.59538E-004	-1.21134E-003	2.23901E-002	-1.39536E-003
	180	180	1.10027E+000	3.18994E-002	0.00000E+000	3.50981E-002	3.18393E-001	3.95442E-002	4.63236E+001	11	...........	6.59944E-002	-5.32819E-003	6.05651E-001	5.38183E-001	-2.70565E-002	-3.81278E-002	7.04718E-001	-4.39193E-002	2.10518E-003	-1.69966E-004	1.93199E-002	1.71677E-002	-8.63088E-004	-1.21625E-003	2.24801E-002	-1.40100E-003
	181	181	1.10035E+000	3.19106E-002	0.00000E+000	3.51130E-002	3.18506E-001	3.96148E-002	4.87756E+001	11	...........	6.65467E-002	-5.32875E-003	6.05488E-001	5.38143E-001	-2.70494E-002	-3.81331E-002	7.04760E-001	-4.40153E-002	2.12355E-003	-1.70044E-004	1.93215E-002	1.71725E-002	-8.63165E-004	-1.21685E-003	2.24893E-002	-1.40456E-003
	182	182	1.10029E+000	3.15910E-002	0.00000E+000	3.47594E-002	3.15327E-001	3.97880E-002	4.93412E+001	11	...........	6.64078E-002	-5.35792E-003	6.05350E-001	5.38039E-001	-2.70332E-002	-3.80886E-002	7.04774E-001	-4.39160E-002	2.09789E-003	-1.69262E-004	1.91236E-002	1.69972E-002	-8.54005E-004	-1.20326E-003	2.22645E-002	-1.38735E-003
	183	183	1.10027E+000	3.17523E-002	0.00000E+000	3.49362E-002	3.16931E-001	3.97558E-002	4.92518E+001	11	...........	6.63549E-002	-5.32472E-003	6.05417E-001	5.37967E-001	-2.70518E-002	-3.80811E-002	7.04810E-001	-4.39239E-002	2.10692E-003	-1.69072E-004	1.92234E-002	1.70817E-002	-8.58958E-004	-1.20916E-003	2.23794E-002	-1.39469E-003
	184	184	1.10035E+000	3.16527E-002	0.00000E+000	3.48292E-002	3.15940E-001	3.97622E-002	4.93158E+001	11	...........	6.63682E-002	-5.33583E-003	6.05418E-001	5.37794E-001	-2.70668E-002	-3.80751E-002	7.04816E-001	-4.41224E-002	2.10073E-003	-1.68893E-004	1.91631E-002	1.70226E-002	-8.56737E-004	-1.20518E-003	2.23093E-002	-1.39659E-003
	185	185	1.10030E+000	3.13328E-002	0.00000E+000	3.44753E-002	3.12759E-001	3.97258E-002	4.72281E+001	11	...........	6.62999E-002	-5.43375E-003	6.05476E-001	5.37881E-001	-2.70687E-002	-3.80532E-002	7.04653E-001	-4.40974E-002	2.07736E-003	-1.70254E-004	1.89712E-002	1.68533E-002	-8.48139E-004	-1.19231E-003	2.20787E-002	-1.38169E-003
	186	186	1.10027E+000	3.14992E-002	0.00000E+000	3.46577E-002	3.14412E-001	3.96556E-002	4.89927E+001	11	...........	6.61612E-002	-5.32806E-003	6.05323E-001	5.38194E-001	-2.71024E-002	-3.80411E-002	7.04713E-001	-4.41600E-002	2.08403E-003	-1.67830E-004	1.90672E-002	1.69527E-002	-8.53703E-004	-1.19827E-003	2.21979E-002	-1.39101E-003
	187	187	1.10035E+000	3.14448E-002	0.00000E+000	3.46003E-002	3.13872E-001	3.97644E-002	4.93465E+001	11	...........	6.63751E-002	-5.25236E-003	6.05385E-001	5.38410E-001	-2.70990E-002	-3.80532E-002	7.04732E-001	-4.40308E-002	2.08715E-003	-1.65159E-004	1.90362E-002	1.69302E-002	-8.52123E-004	-1.19657E-003	2.21601E-002	-1.38454E-003
	188	188	1.10030E+000	3.11402E-002	0.00000E+000	3.42635E-002	3.10849E-001	3.96711E-002	4.93058E+001	11	...........	6.62212E-002	-5.32181E-003	6.05463E-001	5.38420E-001	-2.70971E-002	-3.80600E-002	7.04682E-001	-4.39332E-002	2.06215E-003	-1.65722E-004	1.88543E-002	1.67665E-002	-8.43810E-004	-1.18520E-003	2.19440E-002	-1.36809E-003
	189	189	1.10027E+000	3.12825E-002	0.00000E+000	3.44193E-002	3.12260E-001	3.97083E-002	4.92484E+001	11	...........	6.62789E-002	-5.36444E-003	6.05269E-001	5.38355E-001	-2.70933E-002	-3.80643E-002	7.04729E-001	-4.39742E-002	2.07337E-003	-1.67813E-004	1.89344E-002	1.68411E-002	-8.47548E-004	-1.19075E-003	2.20457E-002	-1.37562E-003
	190	190	1.10035E+000	3.12072E-002	0.00000E+000	3.43388E-002	3.11507E-001	3.96198E-002	4.92579E+001	11	...........	6.61443E-002	-5.37167E-003	6.05276E-001	5.38261E-001	-2.70568E-002	-3.80849E-002	7.04855E-001	-4.38878E-002	2.06418E-003	-1.67635E-004	1.88890E-002	1.67976E-002	-8.44368E-004	-1.18852E-003	2.19966E-002	-1.36962E-003
	191	191	1.10030E+000	3.08961E-002	0.00000E+000	3.39950E-002	3.08415E-001	3.97057E-002	4.93905E+001	11	...........	6.62432E-002	-5.33208E-003	6.05253E-001	5.38187E-001	-2.70560E-002	-3.80776E-002	7.04868E-001	-4.38919E-002	2.04665E-003	-1.64740E-004	1.86999E-002	1.66279E-002	-8.35923E-004	-1.17645E-003	2.17777E-002	-1.35609E-003
	192	192	1.10027E+000	3.10654E-002	0.00000E+000	3.41804E-002	3.10099E-001	3.96451E-002	4.94062E+001	11	...........	6.61567E-002	-5.43958E-003	6.05141E-001	5.38054E-001	-2.70564E-002	-3.80953E-002	7.04673E-001	-4.39650E-002	2.05518E-003	-1.68983E-004	1.87990E-002	1.67149E-002	-8.40518E-004	-1.18345E-003	2.18910E-002	-1.36579E-003
	193	193	1.10035E+000	3.10000E-002	0.00000E+000	3.41107E-002	3.09447E-001	3.96955E-002	4.69661E+001	11	...........	6.62458E-002	-5.48139E-003	6.05168E-001	5.38113E-001	-2.70571E-002	-3.81032E-002	7.04796E-001	-4.40494E-002	2.05362E-003	-1.69923E-004	1.87602E-002	1.66815E-002	-8.38769E-004	-1.18120E-003	2.18487E-002	-1.36553E-003
	194	194	1.10031E+000	3.06591E-002	0.00000E+000	3.37343E-002	3.06061E-001	3.94002E-002	4.85392E+001	11	...........	6.57619E-002	-5.30542E-003	6.05130E-001	5.38075E-001	-2.70400E-002	-3.80906E-002	7.04752E-001	-4.41707E-002	2.01620E-003	-1.62659E-004	1.85527E-002	1.64969E-002	-8.29021E-004	-1.16782E-003	2.16070E-002	-1.35423E-003
	195	195	1.10027E+000	3.08291E-002	0.00000E+000	3.39204E-002	3.07749E-001	3.97083E-002	4.92178E+001	11	...........	6.62643E-002	-5.36361E-003	6.05205E-001	5.38043E-001	-2.70382E-002	-3.80910E-002	7.04774E-001	-4.42085E-002	2.04287E-003	-1.65356E-004	1.86579E-002	1.65874E-002	-8.33564E-004	-1.17431E-003	2.17276E-002	-1.36291E-003
	196	196	1.10034E+000	3.07809E-002	0.00000E+000	3.38696E-002	3.07274E-001	3.96082E-002	4.91983E+001	11	...........	6.61179E-002	-5.38264E-003	6.05141E-001	5.37979E-001	-2.70529E-002	-3.81004E-002	7.04648E-001	-4.41236E-002	2.03517E-003	-1.65683E-004	1.86268E-002	1.65595E-002	-8.32714E-004	-1.17277E-003	2.16897E-002	-1.35817E-003
	197	197	1.10031E+000	3.04828E-002	0.00000E+000	3.35405E-002	3.04312E-001	3.95666E-002	4.85839E+001	11	...........	6.60511E-002	-5.33625E-003	6.05219E-001	5.37929E-001	-2.70512E-002	-3.80854E-002	7.04662E-001	-4.39679E-002	2.01343E-003	-1.62664E-004	1.84488E-002	1.63976E-002	-8.24599E-004	-1.16095E-003	2.14801E-002	-1.34027E-003
	198	198	1.10027E+000	3.05772E-002	0.00000E+000	3.36432E-002	3.05246E-001	3.95084E-002	4.74849E+001	11	...........	6.59444E-002	-5.34722E-003	6.05342E-001	5.37774E-001	-2.70800E-002	-3.80800E-002	7.04567E-001	-4.39921E-002	2.01640E-003	-1.63503E-004	1.85097E-002	1.64436E-002	-8.28031E-004	-1.16438E-003	2.15437E-002	-1.34516E-003
	199	199	1.10034E+000	3.05752E-002	0.00000E+000	3.36431E-002	3.05229E-001	3.95143E-002	4.87967E+001	11	...........	6.59524E-002	-5.21528E-003	6.05543E-001	5.37844E-001	-2.70804E-002	-3.80794E-002	7.04628E-001	-4.40093E-002	2.01651E-003	-1.59458E-004	1.85146E-002	1.64447E-002	-8.27989E-004	-1.16429E-003	2.15441E-002	-1.34559E-003
	200	200	1.10031E+000	3.02752E-002	0.00000E+000	3.33121E-002	3.02249E-001	3.95777E-002	4.93710E+001	11	...........	6.60650E-002	-5.27333E-003	6.05640E-001	5.37729E-001	-2.70744E-002	-3.80726E-002	7.04641E-001	-4.39187E-002	2.00013E-003	-1.59651E-004	1.83359E-002	1.62798E-002	-8.19683E-004	-1.15266E-003	2.13331E-002	-1.32965E-003
	201	201	1.10027E+000	3.04009E-002	0.00000E+000	3.34492E-002	3.03498E-001	3.95402E-002	4.94219E+001	11	...........	6.60028E-002	-5.21722E-003	6.05606E-001	5.37660E-001	-2.70957E-002	-3.80836E-002	7.04656E-001	-4.38836E-002	2.00654E-003	-1.58608E-004	1.84110E-002	1.63453E-002	-8.23733E-004	-1.15778E-003	2.14222E-002	-1.33410E-003
	202	202	1.10034E+000	3.03896E-002	0.00000E+000	3.34388E-002	3.03383E-001	3.94719E-002	4.92621E+001	11	...........	6.58867E-002	-5.20208E-003	6.05610E-001	5.37717E-001	-2.71053E-002	-3.80919E-002	7.04596E-001	-4.39582E-002	2.00227E-003	-1.58089E-004	1.84042E-002	1.63410E-002	-8.23718E-004	-1.15760E-003	2.14124E-002	-1.33587E-003
	203	203	1.10031E+000	3.00635E-002	0.00000E+000	3.30793E-002	3.00142E-001	3.94838E-002	4.93751E+001	11	...........	6.59132E-002	-5.28014E-003	6.05646E-001	5.37657E-001	-2.71136E-002	-3.80925E-002	7.04683E-001	-4.40600E-002	1.98158E-003	-1.58739E-004	1.82078E-002	1.61638E-002	-8.15129E-004	-1.14519E-003	2.11852E-002	-1.32460E-003
	204	204	1.10027E+000	3.01951E-002	0.00000E+000	3.32228E-002	3.01450E-001	3.94884E-002	4.95093E+001	11	...........	6.59133E-002	-5.31097E-003	6.05626E-001	5.37711E-001	-2.71221E-002	-3.80831E-002	7.04709E-001	-4.40701E-002	1.99026E-003	-1.60366E-004	1.82870E-002	1.62363E-002	-8.18955E-004	-1.14992E-003	2.12788E-002	-1.33070E-003
	205	205	1.10034E+000	3.01509E-002	0.00000E+000	3.31761E-002	3.01015E-001	3.94412E-002	4.95199E+001	11	...........	6.58385E-002	-5.34222E-003	6.05754E-001	5.37713E-001	-2.71150E-002	-3.80775E-002	7.04640E-001	-4.39840E-002	1.98509E-003	-1.61073E-004	1.82640E-002	1.62125E-002	-8.17541E-004	-1.14807E-003	2.12455E-002	-1.32616E-003
	206	206	1.10032E+000	2.98224E-002	0.00000E+000	3.28142E-002	2.97748E-001	3.94602E-002	4.95229E+001	11	...........	6.58610E-002	-5.39875E-003	6.05719E-001	5.37793E-001	-2.70939E-002	-3.80800E-002	7.04681E-001	-4.39796E-002	1.96413E-003	-1.61004E-004	1.80640E-002	1.60383E-002	-8.08005E-004	-1.13564E-003	2.10153E-002	-1.31158E-003
	207	207	1.10027E+000	2.99778E-002	0.00000E+000	3.29836E-002	2.99290E-001	3.94155E-002	4.95010E+001	11	...........	6.57994E-002	-5.37625E-003	6.05626E-001	5.37866E-001	-2.70940E-002	-3.81001E-002	7.04791E-001	-4.41171E-002	1.97252E-003	-1.61168E-004	1.81554E-002	1.61241E-002	-8.12220E-004	-1.14216E-003	2.11281E-002	-1.32253E-003
	208	208	1.10033E+000	2.99581E-002	0.00000E+000	3.29638E-002	2.99093E-001	3.93979E-002	4.95612E+001	11	...........	6.57625E-002	-5.33236E-003	6.05616E-001	5.37817E-001	-2.70943E-002	-3.81206E-002	7.04871E-001	-4.40072E-002	1.97012E-003	-1.59747E-004	1.81431E-002	1.61119E-002	-8.11693E-004	-1.14202E-003	2.11165E-002	-1.31837E-003
	209	209	1.10032E+000	2.96160E-002	0.00000E+000	3.25872E-002	2.95690E-001	3.94465E-002	4.76799E+001	11	...........	6.58219E-002	-5.35403E-003	6.05632E-001	5.37999E-001	-2.71037E-002	-3.81319E-002	7.04893E-001	-4.39894E-002	1.94938E-003	-1.58565E-004	1.79364E-002	1.59334E-002	-8.02706E-004	-1.12932E-003	2.08761E-002	-1.30279E-003
	210	210	1.10027E+000	2.97600E-002	0.00000E+000	3.27439E-002	2.97125E-001	3.92051E-002	4.74692E+001	11	...........	6.54403E-002	-5.26917E-003	6.05661E-001	5.38026E-001	-2.71247E-002	-3.81133E-002	7.04848E-001	-4.38626E-002	1.94750E-003	-1.56810E-004	1.80244E-002	1.60116E-002	-8.07231E-004	-1.13425E-003	2.09762E-002	-1.30535E-003
	211	211	1.10033E+000	2.97788E-002	0.00000E+000	3.27665E-002	2.97312E-001	3.93412E-002	4.88517E+001	11	...........	6.56939E-002	-5.25000E-003	6.05664E-001	5.38150E-001	-2.71146E-002	-3.81301E-002	7.04831E-001	-4.39240E-002	1.95628E-003	-1.56339E-004	1.80359E-002	1.60255E-002	-8.07439E-004	-1.13547E-003	2.09890E-002	-1.30800E-003
	212	212	1.10032E+000	2.94465E-002	0.00000E+000	3.24007E-002	2.94008E-001	3.94109E-002	4.90276E+001	11	...........	6.57872E-002	-5.33069E-003	6.05671E-001	5.38329E-001	-2.70779E-002	-3.81412E-002	7.04872E-001	-4.38808E-002	1.93720E-003	-1.56970E-004	1.78349E-002	1.58519E-002	-7.97349E-004	-1.12313E-003	2.07560E-002	-1.29214E-003
	213	213	1.10027E+000	2.95461E-002	0.00000E+000	3.25086E-002	2.94998E-001	3.94182E-002	4.90893E+001	11	...........	6.58100E-002	-5.27944E-003	6.05589E-001	5.38416E-001	-2.70918E-002	-3.81526E-002	7.04835E-001	-4.38765E-002	1.94443E-003	-1.55987E-004	1.78928E-002	1.59081E-002	-8.00458E-004	-1.12726E-003	2.08251E-002	-1.29638E-003
	214	214	1.10033E+000	2.95739E-002	0.00000E+000	3.25410E-002	2.95276E-001	3.93568E-002	4.90052E+001	11	...........	6.56860E-002	-5.28500E-003	6.05457E-001	5.38560E-001	-2.70912E-002	-3.81728E-002	7.04802E-001	-4.39635E-002	1.94259E-003	-1.56298E-004	1.79057E-002	1.59273E-002	-8.01194E-004	-1.12892E-003	2.08437E-002	-1.30017E-003
	215	215	1.10033E+000	2.92151E-002	0.00000E+000	3.21462E-002	2.91707E-001	3.93687E-002	4.90350E+001	11	...........	6.57031E-002	-5.20375E-003	6.05603E-001	5.38466E-001	-2.70600E-002	-3.81979E-002	7.04911E-001	-4.39115E-002	1.91952E-003	-1.52028E-004	1.76927E-002	1.57313E-002	-7.90559E-004	-1.11595E-003	2.05940E-002	-1.28288E-003
	216	216	1.10027E+000	2.93403E-002	0.00000E+000	3.22821E-002	2.92953E-001	3.93357E-002	4.91095E+001	11	...........	6.56510E-002	-5.23208E-003	6.05623E-001	5.38366E-001	-2.70851E-002	-3.82010E-002	7.04846E-001	-4.40043E-002	1.92622E-003	-1.53511E-004	1.77691E-002	1.57958E-002	-7.94685E-004	-1.12083E-003	2.06804E-002	-1.29110E-003
	217	217	1.10033E+000	2.93585E-002	0.00000E+000	3.23039E-002	2.93136E-001	3.93204E-002	4.91325E+001	11	...........	6.56386E-002	-5.29694E-003	6.05565E-001	5.38227E-001	-2.70964E-002	-3.81814E-002	7.04780E-001	-4.41162E-002	1.92705E-003	-1.55510E-004	1.77785E-002	1.58016E-002	-7.95510E-004	-1.12095E-003	2.06913E-002	-1.29519E-003
	218	218	1.10033E+000	2.90152E-002	0.00000E+000	3.19264E-002	2.89723E-001	3.93057E-002	4.64213E+001	11	...........	6.56010E-002	-5.27847E-003	6.05422E-001	5.38169E-001	-2.71089E-002	-3.81475E-002	7.04794E-001	-4.40235E-002	1.90342E-003	-1.53156E-004	1.75664E-002	1.56151E-002	-7.86569E-004	-1.10686E-003	2.04497E-002	-1.27735E-003
	219	219	1.10026E+000	2.90937E-002	0.00000E+000	3.20107E-002	2.90504E-001	3.90444E-002	4.82662E+001	11	...........	6.51700E-002	-5.34014E-003	6.05258E-001	5.38076E-001	-2.71146E-002	-3.81522E-002	7.04746E-001	-4.40579E-002	1.89604E-003	-1.55364E-004	1.76092E-002	1.56546E-002	-7.88863E-004	-1.10999E-003	2.05037E-002	-1.28181E-003
	220	220	1.10032E+000	2.91941E-002	0.00000E+000	3.21230E-002	2.91501E-001	3.92745E-002	4.93274E+001	11	...........	6.55736E-002	-5.38597E-003	6.05417E-001	5.38070E-001	-2.71307E-002	-3.81318E-002	7.04746E-001	-4.40329E-002	1.91436E-003	-1.57239E-004	1.76746E-002	1.57085E-002	-7.92057E-004	-1.11322E-003	2.05744E-002	-1.28550E-003
	221	221	1.10034E+000	2.88438E-002	0.00000E+000	3.17379E-002	2.88018E-001	3.92319E-002	4.93037E+001	11	...........	6.54876E-002	-5.38125E-003	6.05514E-001	5.37993E-001	-2.71154E-002	-3.81182E-002	7.04709E-001	-4.39282E-002	1.88891E-003	-1.55216E-004	1.74653E-002	1.55178E-002	-7.82113E-004	-1.09947E-003	2.03265E-002	-1.26706E-003
	222	222	1.10026E+000	2.89297E-002	0.00000E+000	3.18303E-002	2.88868E-001	3.91464E-002	4.94215E+001	11	...........	6.53412E-002	-5.32833E-003	6.05520E-001	5.37795E-001	-2.71358E-002	-3.81154E-002	7.04782E-001	-4.39010E-002	1.89030E-003	-1.54147E-004	1.75175E-002	1.55583E-002	-7.85031E-004	-1.10267E-003	2.03891E-002	-1.27004E-003
	223	223	1.10032E+000	2.89856E-002	0.00000E+000	3.18934E-002	2.89426E-001	3.91922E-002	4.93208E+001	11	...........	6.54079E-002	-5.35806E-003	6.05561E-001	5.37814E-001	-2.71551E-002	-3.81153E-002	7.04740E-001	-4.39835E-002	1.89589E-003	-1.55306E-004	1.75525E-002	1.55888E-002	-7.87107E-004	-1.10479E-003	2.04273E-002	-1.27489E-003
	224	224	1.10034E+000	2.86480E-002	0.00000E+000	3.15225E-002	2.86072E-001	3.91083E-002	4.93652E+001	11	...........	6.52726E-002	-5.26875E-003	6.05430E-001	5.37828E-001	-2.71504E-002	-3.81174E-002	7.04766E-001	-4.39394E-002	1.86993E-003	-1.50939E-004	1.73444E-002	1.54077E-002	-7.77806E-004	-1.09199E-003	2.01901E-002	-1.25878E-003
	225	224.918	1.10032E+000	2.87465E-002	0.00000E+000	3.16304E-002	2.87050E-001	3.91472E-002	4.94337E+001	11	...........	6.53394E-002	-5.29537E-003	6.05540E-001	5.37842E-001	-2.71523E-002	-3.81172E-002	7.04882E-001	-4.39301E-002	1.87828E-003	-1.52223E-004	1.74071E-002	1.54611E-002	-7.80533E-004	-1.09574E-003	2.02629E-002	-1.26284E-003
STARTTIMEOFFSET	QUANT	614176.5	Start Time Offset (s)
