EXPLAIN
TAG	PWR800_CHARGE
TITLE	LABEL	PWR Charge	Test Identifier
DATE	LABEL	10/14/2022	Date
TIME	LABEL	7:50:42	Time
NOTES	NOTES	1	Notes...
	
PSTAT	PSTAT	REF3000-21114	Potentiostat
CAPACITY	QUANT	5.30000E-002	Capacity (A-hr)
CELLTYPE	SELECTOR	1	Cell Type
WORKINGCONNECTION	SELECTOR	0	Working Connection
MAXCHARGETIME	VARIABLEANDUNITS	7.20000E+003	s	2.00000E+000	hour(s)	Max Charge Time
CHARGEMODE	MULTIPARAM	0	1.00000E-001	Charge Mode	Constant Current	Amp(s)
CHARGECURRENT	QUANT	0.1	Charge Current (A)
VOLTAGEFINISH	TWOPARAM	T	2.50000E-002	7.20000E+003	Voltage Finish	I (A) <	Max Time(s)
SAMPLETIME	QUANT	1.00000E+000	Sample Period (s)
CHARGESTOPAT1	MULTIPARAM	2	1.10000E+000	Stop At 1	|Voltage| > Limit	V
CHARGESTOPAT2	MULTIPARAM	0	0.00000E+000	Stop At 2	None	N/A
AESELECTOR	AESELECTOR	0x1	T	Set Limits	AE Channels
AESBHCSELECTOR	TOGGLE	F	Save Both Half Cells
IRCOMP	TOGGLE	F	IR Measure
EOC	QUANT	0.2328836	Open Circuit (V)
SEQUENCER	TOGGLE	TRUE	Run as Sequence
PSTATMODEL	IQUANT	5	Pstat Model
PSTATSECTION	LABEL	REF3000-21114	Pstat Section
PSTATSERIALNO	LABEL	21114	Pstat Serial Number
CTRLMODE	IQUANT	0	Control Mode
ELECTROMETER	IQUANT	0	RE=0 or CS=1
IESTAB	IQUANT	0	I/E Stability
CASPEED	IQUANT	4	Control Amp Speed
CONVENTION	IQUANT	1	Current Convention
ICHRANGE	IQUANT	2	Ich Range
ICHRANGEMODE	TOGGLE	T	Ich Auto Range
ICHOFFSETENABLE	TOGGLE	F	Ich Offset Enable
ICHOFFSET	QUANT	0	Ich Offset (V)
ICHFILTER	IQUANT	1	Ich Filter
VCHRANGE	IQUANT	3	Vch Range
VCHRANGEMODE	TOGGLE	T	Vch Auto Range
VCHOFFSETENABLE	TOGGLE	F	Vch Offset Enable
VCHOFFSET	QUANT	0	Vch Offset (V)
VCHFILTER	IQUANT	1	Vch Filter
ACHRANGE	IQUANT	2	Ach Range
ACHOFFSETENABLE	TOGGLE	F	Ach Offset Enable
ACHOFFSET	QUANT	0	Ach Offset (V)
ACHFILTER	IQUANT	1	Ach Filter
IERANGELOWERLIMIT	IQUANT	9	I/E Range Lower Limit
IERANGEMODE	TOGGLE	F	I/E AutoRange
IERANGE	IQUANT	9	I/E Range
POSFEEDENABLE	TOGGLE	F	Positive Feedback IR Comp
POSFEEDRESISTANCE	QUANT	0	Positive Feedback Resistance (ohm)
ACHSELECT	IQUANT	1	Ach Select
SENSECABLEID	IQUANT	13	Sense Cable ID
PWRCABLEID	IQUANT	13	Power Cable ID
DCCALDATE	LABEL		DC Calibration Date
ACCALDATE	LABEL		AC Calibration Date
THERMOSELECT	IQUANT	1	Thermo Select
FRAMEWORKVERSION	LABEL	7.8.6	Framework Version
INSTRUMENTVERSION	LABEL	4.50	Instrument Version
COMPLIANCEVOLTAGE	IQUANT	0	Compliance Voltage
CURVE	TABLE	224
	Pt	T	Vf	Im	Vu	Pwr	Sig	Ach	Temp	IERange	Over	Vf1	Vf2	Vf3	Vf4	Vf5	Vf6	Vf7	Vf8	Pwr1	Pwr2	Pwr3	Pwr4	Pwr5	Pwr6	Pwr7	Pwr8
	#	s	V	A	V	W	V	V	deg C	#	bits	V	V	V	V	V	V	V	V	W	W	W	W	W	W	W	W
	0	1	5.05490E-001	9.98424E-002	0.00000E+000	5.04693E-002	9.94000E-001	4.31381E-002	4.25582E+001	11	...........	7.16564E-002	-5.33375E-003	6.08597E-001	5.42190E-001	-2.68944E-002	-3.77783E-002	7.06736E-001	-4.35837E-002	7.15434E-003	-5.32534E-004	6.07638E-002	5.41336E-002	-2.68520E-003	-3.77188E-003	7.05622E-002	-4.35150E-003
	1	2	6.46272E-001	9.98425E-002	0.00000E+000	6.45254E-002	9.94000E-001	4.31798E-002	4.25649E+001	11	...........	7.17133E-002	-5.41667E-003	6.08510E-001	5.42420E-001	-2.69203E-002	-3.77765E-002	7.06686E-001	-4.35633E-002	7.16004E-003	-5.40814E-004	6.07551E-002	5.41566E-002	-2.68779E-003	-3.77170E-003	7.05573E-002	-4.34947E-003
	2	3	8.61138E-001	9.98430E-002	0.00000E+000	8.59786E-002	9.94000E-001	4.39524E-002	4.54416E+001	11	...........	7.29994E-002	-5.52792E-003	6.08633E-001	5.42329E-001	-2.69139E-002	-3.77797E-002	7.06557E-001	-4.36169E-002	7.28848E-003	-5.51924E-004	6.07677E-002	5.41477E-002	-2.68716E-003	-3.77204E-003	7.05448E-002	-4.35485E-003
	3	3.15833	1.07419E+000	9.98431E-002	0.00000E+000	1.07251E-001	9.94000E-001	4.44126E-002	4.98149E+001	11	...........	7.37728E-002	-5.51491E-003	6.08752E-001	5.42392E-001	-2.68895E-002	-3.78018E-002	7.06577E-001	-4.36877E-002	7.36571E-003	-5.50626E-004	6.07797E-002	5.41541E-002	-2.68473E-003	-3.77425E-003	7.05469E-002	-4.36192E-003
	4	4	1.10061E+000	7.28154E-002	0.00000E+000	8.01413E-002	7.25235E-001	4.34542E-002	5.11031E+001	11	...........	7.21292E-002	-5.37228E-003	6.08644E-001	5.42433E-001	-2.69165E-002	-3.77838E-002	7.06452E-001	-4.36602E-002	5.25212E-003	-3.91185E-004	4.43186E-002	3.94975E-002	-1.95994E-003	-2.75124E-003	5.14406E-002	-3.17914E-003
	5	5	1.10003E+000	5.90099E-002	0.00000E+000	6.49126E-002	5.87940E-001	4.40227E-002	5.06583E+001	11	...........	7.30804E-002	-5.27500E-003	6.08784E-001	5.42445E-001	-2.69228E-002	-3.78121E-002	7.06481E-001	-4.35892E-002	4.31247E-003	-3.11277E-004	3.59243E-002	3.20096E-002	-1.58871E-003	-2.23129E-003	4.16893E-002	-2.57219E-003
	6	6	1.10004E+000	5.45821E-002	0.00000E+000	6.00425E-002	5.43913E-001	4.37615E-002	5.06043E+001	11	...........	7.26192E-002	-5.20361E-003	6.08734E-001	5.42550E-001	-2.69193E-002	-3.78171E-002	7.06399E-001	-4.36785E-002	3.96371E-003	-2.84024E-004	3.32260E-002	2.96135E-002	-1.46931E-003	-2.06413E-003	3.85567E-002	-2.38406E-003
	7	7	1.10014E+000	5.19080E-002	0.00000E+000	5.71063E-002	5.17325E-001	4.37698E-002	4.94379E+001	11	...........	7.26508E-002	-5.15306E-003	6.08780E-001	5.42586E-001	-2.69158E-002	-3.78201E-002	7.06345E-001	-4.35392E-002	3.77116E-003	-2.67485E-004	3.16005E-002	2.81645E-002	-1.39715E-003	-1.96317E-003	3.66650E-002	-2.26003E-003
	8	8	1.09996E+000	5.04643E-002	0.00000E+000	5.55089E-002	5.02969E-001	4.36584E-002	4.96184E+001	11	...........	7.24593E-002	-5.10389E-003	6.08739E-001	5.42405E-001	-2.69056E-002	-3.78086E-002	7.06502E-001	-4.34367E-002	3.65661E-003	-2.57564E-004	3.07196E-002	2.73721E-002	-1.35777E-003	-1.90799E-003	3.56531E-002	-2.19200E-003
	9	9	1.10001E+000	4.98256E-002	0.00000E+000	5.48088E-002	4.96612E-001	4.37912E-002	4.80495E+001	11	...........	7.27111E-002	-5.23903E-003	6.08816E-001	5.42265E-001	-2.69099E-002	-3.77843E-002	7.06549E-001	-4.34135E-002	3.62288E-003	-2.61038E-004	3.03346E-002	2.70187E-002	-1.34080E-003	-1.88263E-003	3.52042E-002	-2.16310E-003
	10	10	1.10012E+000	4.89647E-002	0.00000E+000	5.38672E-002	4.88056E-001	4.36057E-002	4.96625E+001	11	...........	7.23931E-002	-5.26972E-003	6.08848E-001	5.42344E-001	-2.69258E-002	-3.77826E-002	7.06337E-001	-4.35151E-002	3.54470E-003	-2.58030E-004	2.98121E-002	2.65557E-002	-1.31842E-003	-1.85002E-003	3.45856E-002	-2.13071E-003
	11	11	1.09996E+000	4.84309E-002	0.00000E+000	5.32720E-002	4.82748E-001	4.37887E-002	4.96913E+001	11	...........	7.26837E-002	-5.28736E-003	6.08999E-001	5.42288E-001	-2.69383E-002	-3.77869E-002	7.06391E-001	-4.36333E-002	3.52014E-003	-2.56071E-004	2.94943E-002	2.62635E-002	-1.30465E-003	-1.83005E-003	3.42111E-002	-2.11320E-003
	12	12	1.10001E+000	4.83181E-002	0.00000E+000	5.31503E-002	4.81627E-001	4.36865E-002	4.92795E+001	11	...........	7.25319E-002	-5.34194E-003	6.09020E-001	5.42330E-001	-2.69376E-002	-3.77807E-002	7.06363E-001	-4.36469E-002	3.50461E-003	-2.58113E-004	2.94267E-002	2.62044E-002	-1.30158E-003	-1.82549E-003	3.41302E-002	-2.10894E-003
	13	13	1.10012E+000	4.77474E-002	0.00000E+000	5.25278E-002	4.75961E-001	4.35891E-002	4.92873E+001	11	...........	7.23674E-002	-5.30778E-003	6.08982E-001	5.42448E-001	-2.69004E-002	-3.77804E-002	7.06427E-001	-4.36293E-002	3.45535E-003	-2.53433E-004	2.90773E-002	2.59005E-002	-1.28443E-003	-1.80392E-003	3.37300E-002	-2.08319E-003
	14	14	1.09996E+000	4.74592E-002	0.00000E+000	5.22035E-002	4.73094E-001	4.38022E-002	4.70578E+001	11	...........	7.27318E-002	-5.29611E-003	6.08983E-001	5.42628E-001	-2.68969E-002	-3.78165E-002	7.06383E-001	-4.35694E-002	3.45180E-003	-2.51349E-004	2.89019E-002	2.57527E-002	-1.27651E-003	-1.79474E-003	3.35244E-002	-2.06777E-003
	15	15	1.10000E+000	4.74542E-002	0.00000E+000	5.21995E-002	4.73042E-001	4.32572E-002	4.84681E+001	11	...........	7.18139E-002	-5.13028E-003	6.08977E-001	5.42714E-001	-2.69233E-002	-3.77964E-002	7.06377E-001	-4.35176E-002	3.40787E-003	-2.43453E-004	2.88985E-002	2.57541E-002	-1.27763E-003	-1.79360E-003	3.35206E-002	-2.06510E-003
	16	16	1.10012E+000	4.71297E-002	0.00000E+000	5.18481E-002	4.69814E-001	4.37895E-002	4.95952E+001	11	...........	7.26951E-002	-5.25111E-003	6.09244E-001	5.42548E-001	-2.69128E-002	-3.77949E-002	7.06349E-001	-4.36869E-002	3.42610E-003	-2.47483E-004	2.87135E-002	2.55701E-002	-1.26839E-003	-1.78126E-003	3.32900E-002	-2.05895E-003
	17	17	1.09997E+000	4.68486E-002	0.00000E+000	5.15318E-002	4.67018E-001	4.35720E-002	4.89127E+001	11	...........	7.23414E-002	-5.24444E-003	6.09291E-001	5.42401E-001	-2.68943E-002	-3.77731E-002	7.06460E-001	-4.35926E-002	3.38909E-003	-2.45695E-004	2.85444E-002	2.54107E-002	-1.25996E-003	-1.76961E-003	3.30966E-002	-2.04225E-003
	18	18	1.10000E+000	4.69138E-002	0.00000E+000	5.16051E-002	4.67670E-001	4.34892E-002	4.90198E+001	11	...........	7.22049E-002	-5.16236E-003	6.09297E-001	5.42262E-001	-2.68944E-002	-3.77685E-002	7.06373E-001	-4.36279E-002	3.38740E-003	-2.42186E-004	2.85844E-002	2.54395E-002	-1.26172E-003	-1.77186E-003	3.31386E-002	-2.04675E-003
	19	19	1.10011E+000	4.65658E-002	0.00000E+000	5.12278E-002	4.64203E-001	4.34673E-002	4.89619E+001	11	...........	7.21592E-002	-5.19986E-003	6.09279E-001	5.42216E-001	-2.68958E-002	-3.77501E-002	7.06239E-001	-4.36464E-002	3.36015E-003	-2.42136E-004	2.83716E-002	2.52487E-002	-1.25243E-003	-1.75787E-003	3.28866E-002	-2.03243E-003
	20	20	1.09997E+000	4.62952E-002	0.00000E+000	5.09232E-002	4.61516E-001	4.34173E-002	4.94978E+001	11	...........	7.23389E-002	-5.24153E-003	6.09369E-001	5.42202E-001	-2.69076E-002	-3.77308E-002	7.06279E-001	-4.37207E-002	3.34894E-003	-2.42657E-004	2.82108E-002	2.51013E-002	-1.24569E-003	-1.74676E-003	3.26973E-002	-2.02406E-003
	21	21	1.10000E+000	4.64269E-002	0.00000E+000	5.10695E-002	4.62832E-001	4.31779E-002	4.96430E+001	11	...........	7.20850E-002	-5.30833E-003	6.09323E-001	5.42165E-001	-2.69326E-002	-3.77299E-002	7.06358E-001	-4.35660E-002	3.34668E-003	-2.46449E-004	2.82890E-002	2.51710E-002	-1.25040E-003	-1.75168E-003	3.27940E-002	-2.02263E-003
	22	22	1.10011E+000	4.60433E-002	0.00000E+000	5.06529E-002	4.59017E-001	4.31760E-002	4.73472E+001	11	...........	7.20581E-002	-5.35208E-003	6.09361E-001	5.42206E-001	-2.69185E-002	-3.77278E-002	7.06247E-001	-4.35511E-002	3.31779E-003	-2.46428E-004	2.80570E-002	2.49649E-002	-1.23942E-003	-1.73711E-003	3.25179E-002	-2.00524E-003
	23	23	1.09997E+000	4.57850E-002	0.00000E+000	5.03621E-002	4.56448E-001	4.31324E-002	4.60356E+001	11	...........	7.19807E-002	-5.21542E-003	6.09272E-001	5.42255E-001	-2.69153E-002	-3.77301E-002	7.06407E-001	-4.35912E-002	3.29564E-003	-2.38788E-004	2.78955E-002	2.48271E-002	-1.23232E-003	-1.72747E-003	3.23429E-002	-1.99583E-003
	24	24	1.10000E+000	4.60037E-002	0.00000E+000	5.06039E-002	4.58620E-001	4.30649E-002	4.85087E+001	11	...........	7.18817E-002	-5.22250E-003	6.09112E-001	5.42211E-001	-2.69268E-002	-3.77239E-002	7.06534E-001	-4.36678E-002	3.30682E-003	-2.40254E-004	2.80214E-002	2.49437E-002	-1.23873E-003	-1.73544E-003	3.25032E-002	-2.00888E-003
	25	25	1.10011E+000	4.56996E-002	0.00000E+000	5.02745E-002	4.55597E-001	4.31348E-002	4.94229E+001	11	...........	7.19979E-002	-5.31292E-003	6.09152E-001	5.42321E-001	-2.69078E-002	-3.77018E-002	7.06542E-001	-4.36354E-002	3.29027E-003	-2.42798E-004	2.78380E-002	2.47838E-002	-1.22967E-003	-1.72296E-003	3.22887E-002	-1.99412E-003
	26	26	1.09997E+000	4.54452E-002	0.00000E+000	4.99886E-002	4.53066E-001	4.30433E-002	4.82213E+001	11	...........	7.18546E-002	-5.25667E-003	6.09106E-001	5.42449E-001	-2.69010E-002	-3.76989E-002	7.06296E-001	-4.37093E-002	3.26545E-003	-2.38890E-004	2.76810E-002	2.46517E-002	-1.22252E-003	-1.71323E-003	3.20978E-002	-1.98638E-003
	27	27	1.10000E+000	4.55958E-002	0.00000E+000	5.01552E-002	4.54566E-001	4.30176E-002	4.91297E+001	11	...........	7.18039E-002	-5.31486E-003	6.09052E-001	5.42186E-001	-2.68726E-002	-3.76894E-002	7.06230E-001	-4.36504E-002	3.27396E-003	-2.42335E-004	2.77702E-002	2.47214E-002	-1.22528E-003	-1.71848E-003	3.22011E-002	-1.99028E-003
	28	28	1.10011E+000	4.53086E-002	0.00000E+000	4.98444E-002	4.51709E-001	4.30211E-002	4.93416E+001	11	...........	7.18174E-002	-5.39431E-003	6.08835E-001	5.42030E-001	-2.68535E-002	-3.76790E-002	7.06305E-001	-4.36906E-002	3.25395E-003	-2.44409E-004	2.75855E-002	2.45586E-002	-1.21669E-003	-1.70719E-003	3.20017E-002	-1.97956E-003
	29	29	1.09998E+000	4.50193E-002	0.00000E+000	4.95203E-002	4.48837E-001	4.30589E-002	4.78363E+001	11	...........	7.18585E-002	-5.35528E-003	6.08841E-001	5.41934E-001	-2.68565E-002	-3.76632E-002	7.06309E-001	-4.37094E-002	3.23502E-003	-2.41091E-004	2.74096E-002	2.43975E-002	-1.20906E-003	-1.69557E-003	3.17976E-002	-1.96777E-003
	30	30	1.10000E+000	4.51659E-002	0.00000E+000	4.96823E-002	4.50293E-001	4.28493E-002	4.81505E+001	11	...........	7.15058E-002	-5.31722E-003	6.08685E-001	5.42027E-001	-2.68492E-002	-3.76758E-002	7.06259E-001	-4.37228E-002	3.22963E-003	-2.40157E-004	2.74918E-002	2.44812E-002	-1.21267E-003	-1.70166E-003	3.18989E-002	-1.97478E-003
	31	31	1.10010E+000	4.49421E-002	0.00000E+000	4.94410E-002	4.48070E-001	4.30064E-002	4.92235E+001	11	...........	7.17994E-002	-5.31278E-003	6.08589E-001	5.42012E-001	-2.68335E-002	-3.77211E-002	7.06255E-001	-4.36794E-002	3.22682E-003	-2.38767E-004	2.73513E-002	2.43592E-002	-1.20595E-003	-1.69527E-003	3.17406E-002	-1.96305E-003
	32	32	1.09998E+000	4.46813E-002	0.00000E+000	4.91485E-002	4.45475E-001	4.28828E-002	4.89190E+001	11	...........	7.15786E-002	-5.27986E-003	6.08645E-001	5.41914E-001	-2.68204E-002	-3.77537E-002	7.06299E-001	-4.37247E-002	3.19822E-003	-2.35911E-004	2.71950E-002	2.42134E-002	-1.19837E-003	-1.68688E-003	3.15583E-002	-1.95368E-003
	33	33	1.09999E+000	4.48630E-002	0.00000E+000	4.93490E-002	4.47280E-001	4.29771E-002	4.83801E+001	11	...........	7.17246E-002	-5.21597E-003	6.08580E-001	5.41823E-001	-2.68592E-002	-3.77314E-002	7.06457E-001	-4.36685E-002	3.21778E-003	-2.34004E-004	2.73027E-002	2.43078E-002	-1.20498E-003	-1.69274E-003	3.16938E-002	-1.95910E-003
	34	34	1.10010E+000	4.44991E-002	0.00000E+000	4.89535E-002	4.43664E-001	4.23742E-002	4.55586E+001	11	...........	7.07311E-002	-5.19417E-003	6.08536E-001	5.41820E-001	-2.68654E-002	-3.77406E-002	7.06414E-001	-4.35871E-002	3.14747E-003	-2.31136E-004	2.70793E-002	2.41105E-002	-1.19549E-003	-1.67942E-003	3.14348E-002	-1.93959E-003
	35	35	1.09999E+000	4.43891E-002	0.00000E+000	4.88273E-002	4.42568E-001	4.31951E-002	4.87739E+001	11	...........	7.21107E-002	-5.25875E-003	6.08592E-001	5.41844E-001	-2.68733E-002	-3.77469E-002	7.06416E-001	-4.36046E-002	3.20093E-003	-2.33431E-004	2.70148E-002	2.40519E-002	-1.19288E-003	-1.67555E-003	3.13572E-002	-1.93557E-003
	36	36	1.09999E+000	4.45393E-002	0.00000E+000	4.89929E-002	4.44063E-001	4.27540E-002	4.94960E+001	11	...........	7.13851E-002	-5.31333E-003	6.08797E-001	5.41870E-001	-2.68604E-002	-3.77656E-002	7.06451E-001	-4.35236E-002	3.17944E-003	-2.36652E-004	2.71154E-002	2.41345E-002	-1.19634E-003	-1.68205E-003	3.14648E-002	-1.93851E-003
	37	37	1.10010E+000	4.42806E-002	0.00000E+000	4.87131E-002	4.41487E-001	4.27602E-002	4.91517E+001	11	...........	7.13914E-002	-5.20736E-003	6.08590E-001	5.41912E-001	-2.68610E-002	-3.77403E-002	7.06480E-001	-4.36276E-002	3.16125E-003	-2.30585E-004	2.69487E-002	2.39962E-002	-1.18942E-003	-1.67116E-003	3.12833E-002	-1.93186E-003
	38	38	1.09999E+000	4.39582E-002	0.00000E+000	4.83534E-002	4.38281E-001	4.27294E-002	4.92457E+001	11	...........	7.13311E-002	-5.27625E-003	6.08718E-001	5.41932E-001	-2.68647E-002	-3.77183E-002	7.06401E-001	-4.37032E-002	3.13558E-003	-2.31934E-004	2.67581E-002	2.38223E-002	-1.18092E-003	-1.65803E-003	3.10521E-002	-1.92111E-003
	39	39	1.09999E+000	4.40846E-002	0.00000E+000	4.84926E-002	4.39541E-001	4.27587E-002	4.76452E+001	11	...........	7.13783E-002	-5.37347E-003	6.08926E-001	5.41929E-001	-2.68976E-002	-3.77032E-002	7.06510E-001	-4.38456E-002	3.14668E-003	-2.36887E-004	2.68442E-002	2.38907E-002	-1.18577E-003	-1.66213E-003	3.11462E-002	-1.93291E-003
	40	40	1.10010E+000	4.38758E-002	0.00000E+000	4.82677E-002	4.37462E-001	4.23953E-002	4.65881E+001	11	...........	7.07481E-002	-5.19583E-003	6.08985E-001	5.41906E-001	-2.69239E-002	-3.76972E-002	7.06455E-001	-4.38176E-002	3.10413E-003	-2.27971E-004	2.67197E-002	2.37766E-002	-1.18131E-003	-1.65400E-003	3.09963E-002	-1.92253E-003
	41	41	1.09999E+000	4.36122E-002	0.00000E+000	4.79730E-002	4.34846E-001	4.27621E-002	4.82394E+001	11	...........	7.13656E-002	-5.24486E-003	6.09057E-001	5.41727E-001	-2.69361E-002	-3.77243E-002	7.06548E-001	-4.38061E-002	3.11241E-003	-2.28740E-004	2.65623E-002	2.36259E-002	-1.17474E-003	-1.64524E-003	3.08141E-002	-1.91048E-003
	42	42	1.09999E+000	4.38093E-002	0.00000E+000	4.81899E-002	4.36800E-001	4.26843E-002	4.94498E+001	11	...........	7.12637E-002	-5.29653E-003	6.08973E-001	5.41651E-001	-2.69418E-002	-3.77372E-002	7.06478E-001	-4.37668E-002	3.12201E-003	-2.32037E-004	2.66787E-002	2.37293E-002	-1.18030E-003	-1.65324E-003	3.09503E-002	-1.91739E-003
	43	43	1.10010E+000	4.36168E-002	0.00000E+000	4.79827E-002	4.34890E-001	4.25578E-002	4.85791E+001	11	...........	7.10496E-002	-5.26514E-003	6.08781E-001	5.41543E-001	-2.69365E-002	-3.77274E-002	7.06626E-001	-4.37953E-002	3.09896E-003	-2.29649E-004	2.65531E-002	2.36204E-002	-1.17489E-003	-1.64555E-003	3.08208E-002	-1.91021E-003
	44	44	1.09999E+000	4.32549E-002	0.00000E+000	4.75802E-002	4.31290E-001	4.25927E-002	4.89776E+001	11	...........	7.10928E-002	-5.20806E-003	6.08837E-001	5.41428E-001	-2.69326E-002	-3.77247E-002	7.06533E-001	-4.37733E-002	3.07511E-003	-2.25274E-004	2.63352E-002	2.34194E-002	-1.16497E-003	-1.63178E-003	3.05610E-002	-1.89341E-003
	45	45	1.09999E+000	4.33742E-002	0.00000E+000	4.77111E-002	4.32476E-001	4.24295E-002	4.68058E+001	11	...........	7.08172E-002	-5.22306E-003	6.08858E-001	5.41532E-001	-2.69176E-002	-3.77233E-002	7.06481E-001	-4.36307E-002	3.07164E-003	-2.26546E-004	2.64087E-002	2.34885E-002	-1.16753E-003	-1.63622E-003	3.06430E-002	-1.89244E-003
	46	46	1.10009E+000	4.33174E-002	0.00000E+000	4.76532E-002	4.31909E-001	4.25447E-002	4.87437E+001	11	...........	7.10168E-002	-5.15361E-003	6.08849E-001	5.41648E-001	-2.69501E-002	-3.77083E-002	7.06418E-001	-4.37126E-002	3.07626E-003	-2.23241E-004	2.63738E-002	2.34628E-002	-1.16741E-003	-1.63343E-003	3.06002E-002	-1.89352E-003
	47	47	1.10000E+000	4.29450E-002	0.00000E+000	4.72393E-002	4.28206E-001	4.25127E-002	4.95586E+001	11	...........	7.09687E-002	-5.30181E-003	6.08840E-001	5.41726E-001	-2.69225E-002	-3.77151E-002	7.06528E-001	-4.36256E-002	3.04775E-003	-2.27686E-004	2.61466E-002	2.32644E-002	-1.15619E-003	-1.61968E-003	3.03419E-002	-1.87350E-003
	48	48	1.09999E+000	4.31120E-002	0.00000E+000	4.74227E-002	4.29867E-001	4.24983E-002	4.85257E+001	11	...........	7.09565E-002	-5.33153E-003	6.08724E-001	5.41728E-001	-2.69111E-002	-3.77194E-002	7.06402E-001	-4.34931E-002	3.05908E-003	-2.29853E-004	2.62433E-002	2.33550E-002	-1.16019E-003	-1.62616E-003	3.04544E-002	-1.87507E-003
	49	49	1.10009E+000	4.29618E-002	0.00000E+000	4.72619E-002	4.28377E-001	4.24080E-002	4.90147E+001	11	...........	7.08982E-002	-5.23250E-003	6.08800E-001	5.41688E-001	-2.69032E-002	-3.77331E-002	7.06413E-001	-4.35578E-002	3.04591E-003	-2.24797E-004	2.61551E-002	2.32719E-002	-1.15581E-003	-1.62108E-003	3.03488E-002	-1.87132E-003
	50	50	1.10000E+000	4.25945E-002	0.00000E+000	4.68540E-002	4.24724E-001	4.24509E-002	4.66300E+001	11	...........	7.08471E-002	-5.29750E-003	6.08996E-001	5.41807E-001	-2.68921E-002	-3.77257E-002	7.06522E-001	-4.35283E-002	3.01770E-003	-2.25645E-004	2.59399E-002	2.30780E-002	-1.14546E-003	-1.60691E-003	3.00940E-002	-1.85407E-003
	51	51	1.09999E+000	4.27312E-002	0.00000E+000	4.70037E-002	4.26079E-001	4.20956E-002	4.69823E+001	11	...........	7.02556E-002	-5.14708E-003	6.08953E-001	5.41797E-001	-2.68974E-002	-3.77274E-002	7.06505E-001	-4.35101E-002	3.00210E-003	-2.19941E-004	2.60213E-002	2.31516E-002	-1.14936E-003	-1.61213E-003	3.01898E-002	-1.85924E-003
	52	52	1.10009E+000	4.26545E-002	0.00000E+000	4.69238E-002	4.25315E-001	4.25634E-002	4.91917E+001	11	...........	7.10531E-002	-5.29333E-003	6.08951E-001	5.41616E-001	-2.68944E-002	-3.77354E-002	7.06608E-001	-4.36190E-002	3.03073E-003	-2.25784E-004	2.59745E-002	2.31023E-002	-1.14717E-003	-1.60958E-003	3.01400E-002	-1.86055E-003
	53	53	1.10000E+000	4.23062E-002	0.00000E+000	4.65370E-002	4.21855E-001	4.23534E-002	4.94078E+001	11	...........	7.07012E-002	-5.38264E-003	6.08798E-001	5.41752E-001	-2.69217E-002	-3.77568E-002	7.06584E-001	-4.35979E-002	2.99110E-003	-2.27719E-004	2.57559E-002	2.29195E-002	-1.13895E-003	-1.59735E-003	2.98928E-002	-1.84446E-003
	54	54	1.09999E+000	4.24869E-002	0.00000E+000	4.67350E-002	4.23652E-001	4.23307E-002	4.86607E+001	11	...........	7.06457E-002	-5.29375E-003	6.08799E-001	5.41906E-001	-2.69426E-002	-3.77793E-002	7.06474E-001	-4.35856E-002	3.00152E-003	-2.24915E-004	2.58660E-002	2.30239E-002	-1.14471E-003	-1.60513E-003	3.00159E-002	-1.85182E-003
	55	55	1.10009E+000	4.23226E-002	0.00000E+000	4.65586E-002	4.22016E-001	4.23303E-002	4.86991E+001	11	...........	7.06696E-002	-5.11750E-003	6.08571E-001	5.42011E-001	-2.69529E-002	-3.77793E-002	7.06593E-001	-4.35601E-002	2.99092E-003	-2.16586E-004	2.57563E-002	2.29394E-002	-1.14072E-003	-1.59892E-003	2.99049E-002	-1.84358E-003
	56	56	1.10001E+000	4.18906E-002	0.00000E+000	4.60800E-002	4.17723E-001	4.19949E-002	4.61254E+001	11	...........	7.01082E-002	-5.19375E-003	6.08572E-001	5.41931E-001	-2.69662E-002	-3.77893E-002	7.06488E-001	-4.35760E-002	2.93687E-003	-2.17569E-004	2.54935E-002	2.27018E-002	-1.12963E-003	-1.58302E-003	2.95952E-002	-1.82542E-003
	57	57	1.09998E+000	4.21894E-002	0.00000E+000	4.64077E-002	4.20693E-001	4.23759E-002	4.86555E+001	11	...........	7.07397E-002	-5.23250E-003	6.08551E-001	5.41879E-001	-2.69811E-002	-3.77568E-002	7.06534E-001	-4.36881E-002	2.98446E-003	-2.20756E-004	2.56744E-002	2.28615E-002	-1.13832E-003	-1.59294E-003	2.98082E-002	-1.84317E-003
	58	58	1.10008E+000	4.20552E-002	0.00000E+000	4.62642E-002	4.19359E-001	4.22922E-002	4.92687E+001	11	...........	7.06015E-002	-5.26458E-003	6.08576E-001	5.41914E-001	-2.69846E-002	-3.77671E-002	7.06580E-001	-4.35647E-002	2.96916E-003	-2.21403E-004	2.55938E-002	2.27903E-002	-1.13484E-003	-1.58830E-003	2.97153E-002	-1.83212E-003
	59	59	1.10001E+000	4.16359E-002	0.00000E+000	4.57999E-002	4.15191E-001	4.21997E-002	4.89422E+001	11	...........	7.04076E-002	-5.22569E-003	6.08585E-001	5.41905E-001	-2.69918E-002	-3.77694E-002	7.06507E-001	-4.36099E-002	2.93148E-003	-2.17576E-004	2.53390E-002	2.25627E-002	-1.12383E-003	-1.57256E-003	2.94160E-002	-1.81573E-003
	60	60	1.09998E+000	4.17886E-002	0.00000E+000	4.59667E-002	4.16709E-001	4.19650E-002	4.66201E+001	11	...........	7.00381E-002	-5.19736E-003	6.08465E-001	5.41907E-001	-2.69850E-002	-3.77601E-002	7.06590E-001	-4.35769E-002	2.92679E-003	-2.17190E-004	2.54269E-002	2.26455E-002	-1.12767E-003	-1.57794E-003	2.95274E-002	-1.82102E-003
	61	61	1.10008E+000	4.17654E-002	0.00000E+000	4.59453E-002	4.16477E-001	4.24312E-002	4.88886E+001	11	...........	7.08371E-002	-5.17750E-003	6.08520E-001	5.42222E-001	-2.69853E-002	-3.77536E-002	7.06630E-001	-4.36942E-002	2.95854E-003	-2.16240E-004	2.54150E-002	2.26461E-002	-1.12705E-003	-1.57679E-003	2.95127E-002	-1.82490E-003
	62	62	1.10002E+000	4.13277E-002	0.00000E+000	4.54612E-002	4.12129E-001	4.20996E-002	4.72238E+001	11	...........	7.02804E-002	-5.09306E-003	6.08642E-001	5.42199E-001	-2.70225E-002	-3.77394E-002	7.06510E-001	-4.37315E-002	2.90453E-003	-2.10484E-004	2.51538E-002	2.24078E-002	-1.11678E-003	-1.55968E-003	2.91984E-002	-1.80732E-003
	63	63	1.09998E+000	4.15111E-002	0.00000E+000	4.56614E-002	4.13948E-001	4.19100E-002	4.79835E+001	11	...........	6.99624E-002	-5.14028E-003	6.08669E-001	5.42032E-001	-2.70585E-002	-3.77336E-002	7.06658E-001	-4.37883E-002	2.90422E-003	-2.13379E-004	2.52665E-002	2.25003E-002	-1.12323E-003	-1.56636E-003	2.93342E-002	-1.81770E-003
	64	64	1.10008E+000	4.14594E-002	0.00000E+000	4.56086E-002	4.13435E-001	4.22351E-002	4.92126E+001	11	...........	7.04992E-002	-5.13292E-003	6.08747E-001	5.42048E-001	-2.70979E-002	-3.77489E-002	7.06551E-001	-4.37647E-002	2.92285E-003	-2.12808E-004	2.52383E-002	2.24730E-002	-1.12346E-003	-1.56505E-003	2.92932E-002	-1.81446E-003
	65	65	1.10002E+000	4.10576E-002	0.00000E+000	4.51643E-002	4.09438E-001	4.20766E-002	4.93173E+001	11	...........	7.02522E-002	-5.27611E-003	6.08814E-001	5.42221E-001	-2.70944E-002	-3.77571E-002	7.06513E-001	-4.37176E-002	2.88439E-003	-2.16625E-004	2.49965E-002	2.22623E-002	-1.11243E-003	-1.55022E-003	2.90077E-002	-1.79494E-003
	66	66	1.09998E+000	4.11983E-002	0.00000E+000	4.53174E-002	4.10842E-001	4.21035E-002	4.67829E+001	11	...........	7.02767E-002	-5.35208E-003	6.08761E-001	5.42113E-001	-2.70985E-002	-3.77597E-002	7.06537E-001	-4.36581E-002	2.89528E-003	-2.20497E-004	2.50800E-002	2.23342E-002	-1.11641E-003	-1.55564E-003	2.91081E-002	-1.79864E-003
	67	67	1.10007E+000	4.10834E-002	0.00000E+000	4.51948E-002	4.09698E-001	4.17440E-002	4.78700E+001	11	...........	6.96903E-002	-5.32069E-003	6.08483E-001	5.42113E-001	-2.70954E-002	-3.77606E-002	7.06416E-001	-4.36910E-002	2.86311E-003	-2.18592E-004	2.49985E-002	2.22719E-002	-1.11317E-003	-1.55133E-003	2.90220E-002	-1.79497E-003
	68	68	1.10003E+000	4.07456E-002	0.00000E+000	4.48212E-002	4.06339E-001	4.22327E-002	4.85272E+001	11	...........	7.04874E-002	-5.26236E-003	6.08716E-001	5.42020E-001	-2.71140E-002	-3.77681E-002	7.06437E-001	-4.37429E-002	2.87205E-003	-2.14418E-004	2.48025E-002	2.20849E-002	-1.10478E-003	-1.53888E-003	2.87842E-002	-1.78233E-003
	69	69	1.09998E+000	4.09346E-002	0.00000E+000	4.50271E-002	4.08216E-001	4.20087E-002	4.88453E+001	11	...........	7.00990E-002	-5.23361E-003	6.08726E-001	5.42084E-001	-2.71039E-002	-3.77918E-002	7.06425E-001	-4.37107E-002	2.86947E-003	-2.14236E-004	2.49179E-002	2.21900E-002	-1.10949E-003	-1.54699E-003	2.89172E-002	-1.78928E-003
	70	70	1.10007E+000	4.08329E-002	0.00000E+000	4.49191E-002	4.07208E-001	4.19722E-002	4.88609E+001	11	...........	7.00604E-002	-5.17569E-003	6.08647E-001	5.42041E-001	-2.71153E-002	-3.78132E-002	7.06431E-001	-4.36096E-002	2.86077E-003	-2.11339E-004	2.48528E-002	2.21331E-002	-1.10720E-003	-1.54402E-003	2.88456E-002	-1.78071E-003
	71	71	1.10003E+000	4.04391E-002	0.00000E+000	4.44843E-002	4.03291E-001	4.20411E-002	4.90496E+001	11	...........	7.01747E-002	-5.27153E-003	6.08616E-001	5.42062E-001	-2.70996E-002	-3.78367E-002	7.06423E-001	-4.34226E-002	2.83780E-003	-2.13176E-004	2.46119E-002	2.19205E-002	-1.09588E-003	-1.53008E-003	2.85671E-002	-1.75597E-003
	72	72	1.09998E+000	4.05801E-002	0.00000E+000	4.46371E-002	4.04695E-001	4.18318E-002	4.43092E+001	11	...........	6.98299E-002	-5.20097E-003	6.08816E-001	5.42081E-001	-2.70933E-002	-3.78631E-002	7.06337E-001	-4.34525E-002	2.83370E-003	-2.11056E-004	2.47058E-002	2.19977E-002	-1.09945E-003	-1.53649E-003	2.86632E-002	-1.76331E-003
	73	73	1.10007E+000	4.05147E-002	0.00000E+000	4.45690E-002	4.04044E-001	4.17721E-002	4.75150E+001	11	...........	6.97282E-002	-5.10833E-003	6.08727E-001	5.42036E-001	-2.70857E-002	-3.78433E-002	7.06460E-001	-4.34624E-002	2.82502E-003	-2.06963E-004	2.46624E-002	2.19604E-002	-1.09737E-003	-1.53321E-003	2.86220E-002	-1.76087E-003
	74	74	1.10003E+000	4.01831E-002	0.00000E+000	4.42027E-002	4.00746E-001	4.20058E-002	4.91258E+001	11	...........	7.01215E-002	-5.20583E-003	6.08879E-001	5.42118E-001	-2.70729E-002	-3.78474E-002	7.06523E-001	-4.35740E-002	2.81770E-003	-2.09186E-004	2.44666E-002	2.17840E-002	-1.08787E-003	-1.52082E-003	2.83903E-002	-1.75094E-003
	75	75	1.09998E+000	4.03357E-002	0.00000E+000	4.43684E-002	4.02265E-001	4.18266E-002	4.89503E+001	11	...........	6.98349E-002	-5.22000E-003	6.08952E-001	5.42003E-001	-2.71031E-002	-3.78764E-002	7.06427E-001	-4.35556E-002	2.81684E-003	-2.10553E-004	2.45625E-002	2.18621E-002	-1.09322E-003	-1.52777E-003	2.84942E-002	-1.75685E-003
	76	76	1.10007E+000	4.02177E-002	0.00000E+000	4.42421E-002	4.01089E-001	4.18109E-002	4.68291E+001	11	...........	6.97936E-002	-5.17264E-003	6.08876E-001	5.41934E-001	-2.71149E-002	-3.78762E-002	7.06562E-001	-4.35394E-002	2.80694E-003	-2.08032E-004	2.44876E-002	2.17953E-002	-1.09050E-003	-1.52329E-003	2.84163E-002	-1.75106E-003
	77	77	1.10004E+000	3.98374E-002	0.00000E+000	4.38226E-002	3.97311E-001	4.18454E-002	4.86820E+001	11	...........	6.98626E-002	-5.16361E-003	6.08928E-001	5.42158E-001	-2.71189E-002	-3.78762E-002	7.06582E-001	-4.35993E-002	2.78315E-003	-2.05705E-004	2.42581E-002	2.15982E-002	-1.08035E-003	-1.50889E-003	2.81484E-002	-1.73688E-003
	78	78	1.09998E+000	3.99941E-002	0.00000E+000	4.39926E-002	3.98869E-001	4.16930E-002	4.72767E+001	11	...........	6.95983E-002	-5.23736E-003	6.09139E-001	5.42231E-001	-2.71243E-002	-3.79056E-002	7.06591E-001	-4.37299E-002	2.78352E-003	-2.09464E-004	2.43620E-002	2.16861E-002	-1.08481E-003	-1.51600E-003	2.82595E-002	-1.74894E-003
	79	79	1.10006E+000	3.99867E-002	0.00000E+000	4.39878E-002	3.98794E-001	4.17237E-002	4.81430E+001	11	...........	6.96412E-002	-5.09014E-003	6.09168E-001	5.42101E-001	-2.71139E-002	-3.79037E-002	7.06688E-001	-4.37451E-002	2.78472E-003	-2.03538E-004	2.43586E-002	2.16768E-002	-1.08419E-003	-1.51565E-003	2.82581E-002	-1.74922E-003
	80	80	1.10004E+000	3.95782E-002	0.00000E+000	4.35378E-002	3.94732E-001	4.17770E-002	4.90910E+001	11	...........	6.97474E-002	-5.07083E-003	6.09169E-001	5.41982E-001	-2.70822E-002	-3.79015E-002	7.06640E-001	-4.37547E-002	2.76048E-003	-2.00695E-004	2.41098E-002	2.14507E-002	-1.07187E-003	-1.50008E-003	2.79676E-002	-1.73173E-003
	81	81	1.09997E+000	3.97292E-002	0.00000E+000	4.37010E-002	3.96234E-001	4.17353E-002	4.79262E+001	11	...........	6.96544E-002	-5.07972E-003	6.09281E-001	5.41955E-001	-2.70806E-002	-3.78996E-002	7.06601E-001	-4.37200E-002	2.76731E-003	-2.01813E-004	2.42062E-002	2.15314E-002	-1.07589E-003	-1.50572E-003	2.80727E-002	-1.73696E-003
	82	82	1.10006E+000	3.96390E-002	0.00000E+000	4.36052E-002	3.95339E-001	4.16077E-002	4.65470E+001	11	...........	6.94414E-002	-5.14708E-003	6.09225E-001	5.41987E-001	-2.70590E-002	-3.78953E-002	7.06707E-001	-4.36994E-002	2.75259E-003	-2.04025E-004	2.41491E-002	2.14838E-002	-1.07259E-003	-1.50213E-003	2.80131E-002	-1.73220E-003
	83	83	1.10005E+000	3.92756E-002	0.00000E+000	4.32050E-002	3.91721E-001	4.16411E-002	4.82623E+001	11	...........	6.95147E-002	-5.17583E-003	6.09101E-001	5.41915E-001	-2.70615E-002	-3.79210E-002	7.06715E-001	-4.37536E-002	2.73023E-003	-2.03284E-004	2.39228E-002	2.12840E-002	-1.06286E-003	-1.48937E-003	2.77566E-002	-1.71845E-003
	84	84	1.09997E+000	3.94456E-002	0.00000E+000	4.33891E-002	3.93414E-001	4.17013E-002	4.89489E+001	11	...........	6.96160E-002	-5.20639E-003	6.09076E-001	5.42151E-001	-2.70411E-002	-3.79229E-002	7.06706E-001	-4.37965E-002	2.74604E-003	-2.05369E-004	2.40254E-002	2.13855E-002	-1.06665E-003	-1.49589E-003	2.78764E-002	-1.72758E-003
	85	85	1.10006E+000	3.93835E-002	0.00000E+000	4.33242E-002	3.92798E-001	4.16463E-002	4.61613E+001	11	...........	6.95214E-002	-5.18583E-003	6.09057E-001	5.42151E-001	-2.70026E-002	-3.79037E-002	7.06602E-001	-4.37803E-002	2.73800E-003	-2.04236E-004	2.39868E-002	2.13518E-002	-1.06346E-003	-1.49278E-003	2.78285E-002	-1.72422E-003
	86	86	1.10005E+000	3.90129E-002	0.00000E+000	4.29162E-002	3.89118E-001	4.16216E-002	4.86118E+001	11	...........	6.94814E-002	-5.17083E-003	6.09044E-001	5.42232E-001	-2.69851E-002	-3.79111E-002	7.06667E-001	-4.38333E-002	2.71067E-003	-2.01729E-004	2.37606E-002	2.11540E-002	-1.05277E-003	-1.47902E-003	2.75691E-002	-1.71007E-003
	87	87	1.09997E+000	3.91172E-002	0.00000E+000	4.30278E-002	3.90152E-001	4.15562E-002	4.81872E+001	11	...........	6.93856E-002	-5.19944E-003	6.09127E-001	5.42191E-001	-2.70079E-002	-3.79325E-002	7.06665E-001	-4.37381E-002	2.71417E-003	-2.03388E-004	2.38273E-002	2.12090E-002	-1.05647E-003	-1.48381E-003	2.76427E-002	-1.71091E-003
	88	88	1.10005E+000	3.91130E-002	0.00000E+000	4.30262E-002	3.90109E-001	4.14480E-002	4.76995E+001	11	...........	6.91892E-002	-5.19042E-003	6.09119E-001	5.42276E-001	-2.70076E-002	-3.79326E-002	7.06681E-001	-4.37728E-002	2.70619E-003	-2.03013E-004	2.38244E-002	2.12100E-002	-1.05635E-003	-1.48366E-003	2.76404E-002	-1.71208E-003
	89	89	1.10006E+000	3.87436E-002	0.00000E+000	4.26202E-002	3.86441E-001	4.15117E-002	4.86042E+001	11	...........	6.93003E-002	-5.18125E-003	6.09156E-001	5.42412E-001	-2.70071E-002	-3.79475E-002	7.06776E-001	-4.37719E-002	2.68494E-003	-2.00740E-004	2.36009E-002	2.10150E-002	-1.04635E-003	-1.47022E-003	2.73831E-002	-1.69588E-003
	90	90	1.09997E+000	3.88724E-002	0.00000E+000	4.27585E-002	3.87719E-001	4.16860E-002	4.85340E+001	11	...........	6.95925E-002	-5.22236E-003	6.09126E-001	5.42517E-001	-2.70192E-002	-3.79187E-002	7.06662E-001	-4.37492E-002	2.70523E-003	-2.03006E-004	2.36782E-002	2.10889E-002	-1.05030E-003	-1.47399E-003	2.74696E-002	-1.70063E-003
	91	91	1.10005E+000	3.88280E-002	0.00000E+000	4.27125E-002	3.87276E-001	4.12613E-002	4.64134E+001	11	...........	6.88535E-002	-5.30028E-003	6.09137E-001	5.42587E-001	-2.70012E-002	-3.79650E-002	7.06591E-001	-4.35917E-002	2.67344E-003	-2.05799E-004	2.36516E-002	2.10675E-002	-1.04840E-003	-1.47410E-003	2.74355E-002	-1.69258E-003
	92	92	1.10006E+000	3.84442E-002	0.00000E+000	4.22911E-002	3.83461E-001	4.17804E-002	4.89037E+001	11	...........	6.97486E-002	-5.30986E-003	6.09222E-001	5.42525E-001	-2.70053E-002	-3.79914E-002	7.06573E-001	-4.36078E-002	2.68143E-003	-2.04134E-004	2.34211E-002	2.08570E-002	-1.03820E-003	-1.46055E-003	2.71637E-002	-1.67647E-003
	93	93	1.09997E+000	3.85692E-002	0.00000E+000	4.24250E-002	3.84707E-001	4.13146E-002	4.71449E+001	11	...........	6.89617E-002	-5.27292E-003	6.09207E-001	5.42597E-001	-2.70226E-002	-3.79915E-002	7.06608E-001	-4.36775E-002	2.65980E-003	-2.03372E-004	2.34966E-002	2.09275E-002	-1.04224E-003	-1.46530E-003	2.72533E-002	-1.68461E-003
	94	94	1.10004E+000	3.85633E-002	0.00000E+000	4.24213E-002	3.84645E-001	4.13474E-002	4.83980E+001	11	...........	6.90154E-002	-5.17875E-003	6.09021E-001	5.42573E-001	-2.70214E-002	-3.79987E-002	7.06577E-001	-4.37181E-002	2.66146E-003	-1.99710E-004	2.34859E-002	2.09234E-002	-1.04203E-003	-1.46536E-003	2.72480E-002	-1.68591E-003
	95	95	1.10007E+000	3.81459E-002	0.00000E+000	4.19631E-002	3.80496E-001	4.15088E-002	4.81691E+001	11	...........	6.93130E-002	-5.35792E-003	6.09057E-001	5.42579E-001	-2.70158E-002	-3.79919E-002	7.06619E-001	-4.37486E-002	2.64401E-003	-2.04382E-004	2.32330E-002	2.06972E-002	-1.03054E-003	-1.44924E-003	2.69546E-002	-1.66883E-003
	96	96	1.09997E+000	3.82819E-002	0.00000E+000	4.21089E-002	3.81846E-001	4.14650E-002	4.88279E+001	11	...........	6.92186E-002	-5.25042E-003	6.08926E-001	5.42690E-001	-2.70176E-002	-3.79790E-002	7.06565E-001	-4.38424E-002	2.64982E-003	-2.00996E-004	2.33108E-002	2.07752E-002	-1.03429E-003	-1.45391E-003	2.70487E-002	-1.67837E-003
	97	97	1.10004E+000	3.83029E-002	0.00000E+000	4.21346E-002	3.82054E-001	4.13523E-002	4.86858E+001	11	...........	6.90444E-002	-5.20347E-003	6.08643E-001	5.42581E-001	-2.70158E-002	-3.79771E-002	7.06703E-001	-4.37751E-002	2.64460E-003	-1.99308E-004	2.33128E-002	2.07824E-002	-1.03478E-003	-1.45463E-003	2.70688E-002	-1.67671E-003
	98	98	1.10007E+000	3.79109E-002	0.00000E+000	4.17047E-002	3.78159E-001	4.13532E-002	4.87940E+001	11	...........	6.90344E-002	-5.19111E-003	6.08592E-001	5.42619E-001	-2.70124E-002	-3.79646E-002	7.06704E-001	-4.36058E-002	2.61716E-003	-1.96800E-004	2.30723E-002	2.05712E-002	-1.02406E-003	-1.43927E-003	2.67918E-002	-1.65314E-003
	99	99	1.09997E+000	3.80344E-002	0.00000E+000	4.18366E-002	3.79390E-001	4.13642E-002	4.90479E+001	11	...........	6.90722E-002	-5.13917E-003	6.08583E-001	5.42688E-001	-2.70143E-002	-3.79569E-002	7.06699E-001	-4.35636E-002	2.62712E-003	-1.95465E-004	2.31471E-002	2.06408E-002	-1.02747E-003	-1.44367E-003	2.68789E-002	-1.65691E-003
	100	100	1.10004E+000	3.80753E-002	0.00000E+000	4.18843E-002	3.79797E-001	4.14183E-002	4.61503E+001	11	...........	6.91300E-002	-5.19292E-003	6.08684E-001	5.42817E-001	-2.69790E-002	-3.79635E-002	7.06680E-001	-4.36386E-002	2.63215E-003	-1.97722E-004	2.31759E-002	2.06679E-002	-1.02724E-003	-1.44547E-003	2.69071E-002	-1.66156E-003
	101	101	1.10008E+000	3.76005E-002	0.00000E+000	4.13634E-002	3.75076E-001	4.11042E-002	4.85481E+001	11	...........	6.86067E-002	-5.15333E-003	6.08616E-001	5.42933E-001	-2.69851E-002	-3.79581E-002	7.06748E-001	-4.36536E-002	2.57965E-003	-1.93768E-004	2.28843E-002	2.04146E-002	-1.01466E-003	-1.42724E-003	2.65741E-002	-1.64140E-003
	102	102	1.09997E+000	3.77353E-002	0.00000E+000	4.15077E-002	3.76416E-001	4.14886E-002	4.73776E+001	11	...........	6.92565E-002	-5.39778E-003	6.08548E-001	5.42978E-001	-2.70046E-002	-3.79707E-002	7.06702E-001	-4.36496E-002	2.61342E-003	-2.03687E-004	2.29638E-002	2.04894E-002	-1.01903E-003	-1.43284E-003	2.66676E-002	-1.64713E-003
	103	103	1.10003E+000	3.77392E-002	0.00000E+000	4.15143E-002	3.76455E-001	4.08926E-002	4.74735E+001	11	...........	6.82874E-002	-5.24875E-003	6.08574E-001	5.42928E-001	-2.70075E-002	-3.79512E-002	7.06599E-001	-4.36429E-002	2.57711E-003	-1.98084E-004	2.29671E-002	2.04897E-002	-1.01924E-003	-1.43225E-003	2.66665E-002	-1.64705E-003
	104	104	1.10008E+000	3.73851E-002	0.00000E+000	4.11265E-002	3.72932E-001	4.13859E-002	4.86703E+001	11	...........	6.90804E-002	-5.18194E-003	6.08714E-001	5.42828E-001	-2.70014E-002	-3.79668E-002	7.06668E-001	-4.36275E-002	2.58257E-003	-1.93727E-004	2.27568E-002	2.02937E-002	-1.00945E-003	-1.41939E-003	2.64188E-002	-1.63102E-003
	105	105	1.09997E+000	3.74545E-002	0.00000E+000	4.11987E-002	3.73625E-001	4.12335E-002	4.88384E+001	11	...........	6.88401E-002	-5.21806E-003	6.08644E-001	5.42816E-001	-2.69719E-002	-3.79368E-002	7.06787E-001	-4.36539E-002	2.57837E-003	-1.95439E-004	2.27964E-002	2.03309E-002	-1.01022E-003	-1.42090E-003	2.64723E-002	-1.63503E-003
	106	106	1.10003E+000	3.75253E-002	0.00000E+000	4.12789E-002	3.74329E-001	4.12180E-002	4.76823E+001	11	...........	6.88058E-002	-5.16292E-003	6.08661E-001	5.42966E-001	-2.69786E-002	-3.79203E-002	7.06738E-001	-4.37067E-002	2.58196E-003	-1.93740E-004	2.28402E-002	2.03750E-002	-1.01238E-003	-1.42297E-003	2.65205E-002	-1.64011E-003
	107	107	1.10008E+000	3.70844E-002	0.00000E+000	4.07960E-002	3.69946E-001	4.10085E-002	4.88675E+001	11	...........	6.84501E-002	-5.15486E-003	6.08633E-001	5.42978E-001	-2.69943E-002	-3.79250E-002	7.06861E-001	-4.36285E-002	2.53844E-003	-1.91165E-004	2.25708E-002	2.01360E-002	-1.00107E-003	-1.40643E-003	2.62136E-002	-1.61794E-003
	108	108	1.09997E+000	3.72125E-002	0.00000E+000	4.09325E-002	3.71218E-001	4.12825E-002	4.85105E+001	11	...........	6.89093E-002	-5.19292E-003	6.08674E-001	5.42926E-001	-2.69936E-002	-3.79394E-002	7.06897E-001	-4.35746E-002	2.56429E-003	-1.93242E-004	2.26503E-002	2.02037E-002	-1.00450E-003	-1.41182E-003	2.63054E-002	-1.62152E-003
	109	109	1.10003E+000	3.72542E-002	0.00000E+000	4.09806E-002	3.71637E-001	4.10865E-002	4.88984E+001	11	...........	6.86094E-002	-5.26750E-003	6.08712E-001	5.42877E-001	-2.70042E-002	-3.79361E-002	7.06911E-001	-4.35578E-002	2.55599E-003	-1.96237E-004	2.26771E-002	2.02245E-002	-1.00602E-003	-1.41328E-003	2.63354E-002	-1.62271E-003
	110	110	1.10009E+000	3.68542E-002	0.00000E+000	4.05429E-002	3.67659E-001	4.10785E-002	4.87249E+001	11	...........	6.85685E-002	-5.17931E-003	6.08556E-001	5.42829E-001	-2.70026E-002	-3.79286E-002	7.06872E-001	-4.37118E-002	2.52704E-003	-1.90879E-004	2.24279E-002	2.00056E-002	-9.95162E-004	-1.39783E-003	2.60512E-002	-1.61097E-003
	111	111	1.09996E+000	3.69197E-002	0.00000E+000	4.06103E-002	3.68305E-001	4.11303E-002	4.89538E+001	11	...........	6.86611E-002	-5.24264E-003	6.08517E-001	5.42958E-001	-2.69810E-002	-3.79337E-002	7.06776E-001	-4.36683E-002	2.53495E-003	-1.93557E-004	2.24662E-002	2.00458E-002	-9.96129E-004	-1.40050E-003	2.60939E-002	-1.61222E-003
	112	112	1.10002E+000	3.69242E-002	0.00000E+000	4.06176E-002	3.68350E-001	4.09175E-002	4.54399E+001	11	...........	6.82811E-002	-5.30569E-003	6.08478E-001	5.43005E-001	-2.69893E-002	-3.79608E-002	7.06743E-001	-4.37008E-002	2.52123E-003	-1.95909E-004	2.24676E-002	2.00500E-002	-9.96559E-004	-1.40167E-003	2.60959E-002	-1.61362E-003
	113	113	1.10009E+000	3.66227E-002	0.00000E+000	4.02883E-002	3.65354E-001	4.10373E-002	4.84739E+001	11	...........	6.85008E-002	-5.30403E-003	6.08424E-001	5.42959E-001	-2.69746E-002	-3.79579E-002	7.06757E-001	-4.36364E-002	2.50869E-003	-1.94248E-004	2.22821E-002	1.98846E-002	-9.87882E-004	-1.39012E-003	2.58833E-002	-1.59808E-003
	114	114	1.09996E+000	3.66433E-002	0.00000E+000	4.03063E-002	3.65559E-001	4.12202E-002	4.91963E+001	11	...........	6.88101E-002	-5.42806E-003	6.08441E-001	5.42821E-001	-2.69825E-002	-3.79472E-002	7.06823E-001	-4.35721E-002	2.52143E-003	-1.98902E-004	2.22953E-002	1.98908E-002	-9.88729E-004	-1.39051E-003	2.59003E-002	-1.59663E-003
	115	115	1.10002E+000	3.67033E-002	0.00000E+000	4.03745E-002	3.66155E-001	4.09262E-002	4.89246E+001	11	...........	6.83264E-002	-5.37431E-003	6.08356E-001	5.42780E-001	-2.69817E-002	-3.79324E-002	7.06726E-001	-4.36453E-002	2.50781E-003	-1.97255E-004	2.23287E-002	1.99218E-002	-9.90317E-004	-1.39224E-003	2.59392E-002	-1.60193E-003
	116	116	1.10009E+000	3.63414E-002	0.00000E+000	3.99788E-002	3.62554E-001	4.10152E-002	4.73970E+001	11	...........	6.84754E-002	-5.29500E-003	6.08300E-001	5.42702E-001	-2.69860E-002	-3.79236E-002	7.06675E-001	-4.37162E-002	2.48849E-003	-1.92427E-004	2.21065E-002	1.97225E-002	-9.80707E-004	-1.37820E-003	2.56815E-002	-1.58871E-003
	117	117	1.09996E+000	3.63537E-002	0.00000E+000	3.99878E-002	3.62675E-001	4.07312E-002	4.63232E+001	11	...........	6.79876E-002	-5.15167E-003	6.08353E-001	5.42734E-001	-2.70083E-002	-3.79310E-002	7.06619E-001	-4.37707E-002	2.47160E-003	-1.87282E-004	2.21159E-002	1.97304E-002	-9.81852E-004	-1.37893E-003	2.56882E-002	-1.59123E-003
	118	118	1.10002E+000	3.64559E-002	0.00000E+000	4.01022E-002	3.63689E-001	4.09051E-002	4.79356E+001	11	...........	6.82750E-002	-5.19958E-003	6.08467E-001	5.42640E-001	-2.70115E-002	-3.79233E-002	7.06553E-001	-4.37469E-002	2.48903E-003	-1.89555E-004	2.21822E-002	1.97824E-002	-9.84730E-004	-1.38253E-003	2.57580E-002	-1.59483E-003
	119	119	1.10009E+000	3.61099E-002	0.00000E+000	3.97243E-002	3.60250E-001	4.10526E-002	4.89462E+001	11	...........	6.85362E-002	-5.24222E-003	6.08407E-001	5.42630E-001	-2.70019E-002	-3.79419E-002	7.06531E-001	-4.37161E-002	2.47484E-003	-1.89296E-004	2.19695E-002	1.95943E-002	-9.75037E-004	-1.37008E-003	2.55128E-002	-1.57858E-003
	120	120	1.09996E+000	3.61362E-002	0.00000E+000	3.97485E-002	3.60513E-001	4.09353E-002	4.79655E+001	11	...........	6.83167E-002	-5.31917E-003	6.08238E-001	5.42534E-001	-2.69779E-002	-3.79772E-002	7.06576E-001	-4.36954E-002	2.46870E-003	-1.92215E-004	2.19794E-002	1.96051E-002	-9.74879E-004	-1.37235E-003	2.55330E-002	-1.57899E-003
	121	121	1.10002E+000	3.61980E-002	0.00000E+000	3.98185E-002	3.61125E-001	4.03434E-002	4.79203E+001	11	...........	6.78388E-002	-5.27000E-003	6.08027E-001	5.42470E-001	-2.69746E-002	-3.79775E-002	7.06614E-001	-4.37304E-002	2.45563E-003	-1.90764E-004	2.20094E-002	1.96364E-002	-9.76427E-004	-1.37471E-003	2.55780E-002	-1.58296E-003
	122	122	1.10010E+000	3.58584E-002	0.00000E+000	3.94477E-002	3.57744E-001	4.10673E-002	4.91423E+001	11	...........	6.85617E-002	-5.33681E-003	6.08115E-001	5.42470E-001	-2.69922E-002	-3.79861E-002	7.06615E-001	-4.36279E-002	2.45851E-003	-1.91370E-004	2.18061E-002	1.94521E-002	-9.67899E-004	-1.36212E-003	2.53381E-002	-1.56443E-003
	123	123	1.09997E+000	3.58673E-002	0.00000E+000	3.94528E-002	3.57836E-001	4.09022E-002	4.85033E+001	11	...........	6.82733E-002	-5.28403E-003	6.08178E-001	5.42671E-001	-2.69914E-002	-3.79697E-002	7.06643E-001	-4.35393E-002	2.44878E-003	-1.89524E-004	2.18137E-002	1.94641E-002	-9.68108E-004	-1.36187E-003	2.53454E-002	-1.56164E-003
	124	124	1.10002E+000	3.59357E-002	0.00000E+000	3.95300E-002	3.58518E-001	4.07552E-002	4.75855E+001	11	...........	6.80235E-002	-5.26958E-003	6.08115E-001	5.42685E-001	-2.69949E-002	-3.79557E-002	7.06614E-001	-4.35031E-002	2.44447E-003	-1.89366E-004	2.18531E-002	1.95018E-002	-9.70080E-004	-1.36396E-003	2.53927E-002	-1.56331E-003
	125	125	1.10010E+000	3.56070E-002	0.00000E+000	3.91711E-002	3.55251E-001	4.08418E-002	4.84748E+001	11	...........	6.81799E-002	-5.35847E-003	6.08037E-001	5.42634E-001	-2.69949E-002	-3.79726E-002	7.06565E-001	-4.36287E-002	2.42768E-003	-1.90799E-004	2.16504E-002	1.93215E-002	-9.61205E-004	-1.35209E-003	2.51586E-002	-1.55349E-003
	126	126	1.09996E+000	3.56088E-002	0.00000E+000	3.91684E-002	3.55267E-001	4.07347E-002	4.86593E+001	11	...........	6.79997E-002	-5.36444E-003	6.08115E-001	5.42622E-001	-2.69803E-002	-3.79637E-002	7.06470E-001	-4.37453E-002	2.42139E-003	-1.91021E-004	2.16542E-002	1.93221E-002	-9.60736E-004	-1.35184E-003	2.51566E-002	-1.55772E-003
	127	127	1.10002E+000	3.57078E-002	0.00000E+000	3.92792E-002	3.56251E-001	4.08264E-002	4.72797E+001	11	...........	6.81639E-002	-5.23569E-003	6.08159E-001	5.42552E-001	-2.69921E-002	-3.79569E-002	7.06518E-001	-4.36319E-002	2.43398E-003	-1.86955E-004	2.17160E-002	1.93734E-002	-9.63829E-004	-1.35536E-003	2.52282E-002	-1.55800E-003
	128	128	1.10010E+000	3.53487E-002	0.00000E+000	3.88871E-002	3.52685E-001	4.05463E-002	4.81506E+001	11	...........	6.76910E-002	-5.16764E-003	6.08218E-001	5.42449E-001	-2.69799E-002	-3.79692E-002	7.06409E-001	-4.36460E-002	2.39279E-003	-1.82670E-004	2.14997E-002	1.91749E-002	-9.53704E-004	-1.34216E-003	2.49707E-002	-1.54283E-003
	129	129	1.09997E+000	3.53585E-002	0.00000E+000	3.88932E-002	3.52777E-001	4.09293E-002	4.90504E+001	11	...........	6.83315E-002	-5.22750E-003	6.08279E-001	5.42500E-001	-2.69726E-002	-3.79699E-002	7.06486E-001	-4.36921E-002	2.41610E-003	-1.84837E-004	2.15078E-002	1.91820E-002	-9.53712E-004	-1.34256E-003	2.49803E-002	-1.54489E-003
	130	130	1.10001E+000	3.54442E-002	0.00000E+000	3.89890E-002	3.53632E-001	4.07647E-002	4.87868E+001	11	...........	6.80579E-002	-5.18569E-003	6.08234E-001	5.42532E-001	-2.69658E-002	-3.79750E-002	7.06685E-001	-4.36508E-002	2.41226E-003	-1.83803E-004	2.15583E-002	1.92296E-002	-9.55781E-004	-1.34599E-003	2.50479E-002	-1.54717E-003
	131	131	1.10010E+000	3.50649E-002	0.00000E+000	3.85749E-002	3.49860E-001	4.05693E-002	4.54527E+001	11	...........	6.77097E-002	-5.15028E-003	6.08254E-001	5.42589E-001	-2.69582E-002	-3.79564E-002	7.06610E-001	-4.35837E-002	2.37423E-003	-1.80594E-004	2.13284E-002	1.90258E-002	-9.45286E-004	-1.33094E-003	2.47772E-002	-1.52826E-003
	132	132	1.09997E+000	3.51176E-002	0.00000E+000	3.86281E-002	3.50381E-001	4.08328E-002	4.73634E+001	11	...........	6.81650E-002	-5.11042E-003	6.08335E-001	5.42532E-001	-2.69644E-002	-3.79553E-002	7.06420E-001	-4.36390E-002	2.39379E-003	-1.79465E-004	2.13632E-002	1.90524E-002	-9.46925E-004	-1.33290E-003	2.48077E-002	-1.53250E-003
	133	133	1.10001E+000	3.51378E-002	0.00000E+000	3.86520E-002	3.50585E-001	4.05667E-002	4.75066E+001	11	...........	6.77064E-002	-5.25889E-003	6.08277E-001	5.42565E-001	-2.69796E-002	-3.79521E-002	7.06455E-001	-4.35690E-002	2.37906E-003	-1.84786E-004	2.13735E-002	1.90645E-002	-9.48004E-004	-1.33355E-003	2.48233E-002	-1.53092E-003
	134	134	1.10010E+000	3.49445E-002	0.00000E+000	3.84424E-002	3.48661E-001	4.07857E-002	4.85656E+001	11	...........	6.80897E-002	-5.22944E-003	6.08421E-001	5.42748E-001	-2.69903E-002	-3.79478E-002	7.06484E-001	-4.37501E-002	2.37936E-003	-1.82740E-004	2.12610E-002	1.89661E-002	-9.43161E-004	-1.32607E-003	2.46877E-002	-1.52883E-003
	135	135	1.09997E+000	3.48631E-002	0.00000E+000	3.83483E-002	3.47852E-001	4.05940E-002	4.89978E+001	11	...........	6.77714E-002	-5.22861E-003	6.08453E-001	5.42789E-001	-2.69933E-002	-3.79451E-002	7.06535E-001	-4.37225E-002	2.36272E-003	-1.82285E-004	2.12125E-002	1.89233E-002	-9.41071E-004	-1.32288E-003	2.46320E-002	-1.52430E-003
	136	136	1.10001E+000	3.49795E-002	0.00000E+000	3.84777E-002	3.49007E-001	4.06342E-002	4.83795E+001	11	...........	6.78250E-002	-5.14569E-003	6.08335E-001	5.42741E-001	-2.69824E-002	-3.79474E-002	7.06707E-001	-4.36374E-002	2.37248E-003	-1.79994E-004	2.12792E-002	1.89848E-002	-9.43829E-004	-1.32738E-003	2.47202E-002	-1.52641E-003
	137	137	1.10010E+000	3.46832E-002	0.00000E+000	3.81550E-002	3.46064E-001	4.05850E-002	4.80113E+001	11	...........	6.77546E-002	-5.23403E-003	6.08343E-001	5.42642E-001	-2.69900E-002	-3.79396E-002	7.06656E-001	-4.36336E-002	2.34995E-003	-1.81533E-004	2.10993E-002	1.88206E-002	-9.36100E-004	-1.31587E-003	2.45091E-002	-1.51335E-003
	138	138	1.09997E+000	3.45746E-002	0.00000E+000	3.80309E-002	3.44983E-001	4.05651E-002	4.89038E+001	11	...........	6.77260E-002	-5.24292E-003	6.08227E-001	5.42794E-001	-2.69875E-002	-3.79286E-002	7.06626E-001	-4.36731E-002	2.34160E-003	-1.81272E-004	2.10292E-002	1.87669E-002	-9.33081E-004	-1.31137E-003	2.44313E-002	-1.50998E-003
	139	139	1.10001E+000	3.46707E-002	0.00000E+000	3.81382E-002	3.45941E-001	4.06597E-002	4.63236E+001	11	...........	6.78683E-002	-5.32944E-003	6.08161E-001	5.42781E-001	-2.69917E-002	-3.79394E-002	7.06666E-001	-4.36600E-002	2.35304E-003	-1.84776E-004	2.10854E-002	1.88186E-002	-9.35821E-004	-1.31539E-003	2.45006E-002	-1.51372E-003
	140	140	1.10010E+000	3.44518E-002	0.00000E+000	3.79004E-002	3.43767E-001	4.04924E-002	4.78707E+001	11	...........	6.76051E-002	-5.35194E-003	6.08196E-001	5.42776E-001	-2.69819E-002	-3.79147E-002	7.06617E-001	-4.37475E-002	2.32912E-003	-1.84384E-004	2.09535E-002	1.86996E-002	-9.29577E-004	-1.30623E-003	2.43443E-002	-1.50718E-003
	141	141	1.09997E+000	3.43649E-002	0.00000E+000	3.78004E-002	3.42903E-001	4.05029E-002	4.90192E+001	11	...........	6.76168E-002	-5.27194E-003	6.08210E-001	5.42727E-001	-2.69636E-002	-3.79060E-002	7.06641E-001	-4.37160E-002	2.32365E-003	-1.81170E-004	2.09011E-002	1.86508E-002	-9.26603E-004	-1.30264E-003	2.42837E-002	-1.50230E-003
	142	142	1.10001E+000	3.44953E-002	0.00000E+000	3.79450E-002	3.44202E-001	4.06468E-002	4.73849E+001	11	...........	6.78430E-002	-5.26931E-003	6.08228E-001	5.42723E-001	-2.69511E-002	-3.79181E-002	7.06589E-001	-4.37212E-002	2.34027E-003	-1.81766E-004	2.09810E-002	1.87214E-002	-9.29686E-004	-1.30799E-003	2.43740E-002	-1.50818E-003
	143	143	1.10010E+000	3.41524E-002	0.00000E+000	3.75711E-002	3.40786E-001	4.01235E-002	4.72798E+001	11	...........	6.69565E-002	-5.28653E-003	6.08118E-001	5.42731E-001	-2.69726E-002	-3.79115E-002	7.06574E-001	-4.36946E-002	2.28673E-003	-1.80548E-004	2.07687E-002	1.85356E-002	-9.21181E-004	-1.29477E-003	2.41312E-002	-1.49228E-003
	144	144	1.09997E+000	3.41185E-002	0.00000E+000	3.75294E-002	3.40449E-001	4.08556E-002	4.73867E+001	11	...........	6.82078E-002	-5.37056E-003	6.08259E-001	5.42675E-001	-2.69539E-002	-3.79115E-002	7.06430E-001	-4.37526E-002	2.32715E-003	-1.83235E-004	2.07529E-002	1.85153E-002	-9.19626E-004	-1.29348E-003	2.41023E-002	-1.49277E-003
	145	145	1.10000E+000	3.42194E-002	0.00000E+000	3.76415E-002	3.41451E-001	4.03690E-002	4.79626E+001	11	...........	6.73787E-002	-5.30611E-003	6.08398E-001	5.42511E-001	-2.69457E-002	-3.78950E-002	7.06475E-001	-4.37611E-002	2.30566E-003	-1.81572E-004	2.08190E-002	1.85644E-002	-9.22066E-004	-1.29674E-003	2.41752E-002	-1.49748E-003
	146	146	1.10010E+000	3.39529E-002	0.00000E+000	3.73516E-002	3.38805E-001	4.03713E-002	4.74530E+001	11	...........	6.73989E-002	-5.34042E-003	6.08207E-001	5.42455E-001	-2.69128E-002	-3.78774E-002	7.06579E-001	-4.36749E-002	2.28839E-003	-1.81323E-004	2.06504E-002	1.84180E-002	-9.13768E-004	-1.28605E-003	2.39904E-002	-1.48289E-003
	147	147	1.09998E+000	3.38773E-002	0.00000E+000	3.72643E-002	3.38054E-001	4.05643E-002	4.86191E+001	11	...........	6.77256E-002	-5.33514E-003	6.07989E-001	5.42672E-001	-2.69076E-002	-3.78331E-002	7.06568E-001	-4.36308E-002	2.29436E-003	-1.80740E-004	2.05971E-002	1.83843E-002	-9.11559E-004	-1.28168E-003	2.39367E-002	-1.47810E-003
	148	148	1.10000E+000	3.39977E-002	0.00000E+000	3.73976E-002	3.39252E-001	4.04203E-002	4.90558E+001	11	...........	6.74831E-002	-5.29764E-003	6.08020E-001	5.42691E-001	-2.69162E-002	-3.77979E-002	7.06597E-001	-4.35214E-002	2.29427E-003	-1.80107E-004	2.06713E-002	1.84502E-002	-9.15090E-004	-1.28504E-003	2.40227E-002	-1.47963E-003
	149	149	1.10010E+000	3.37503E-002	0.00000E+000	3.71287E-002	3.36787E-001	4.04659E-002	4.91212E+001	11	...........	6.75468E-002	-5.35097E-003	6.08146E-001	5.42669E-001	-2.68821E-002	-3.77842E-002	7.06633E-001	-4.35914E-002	2.27973E-003	-1.80597E-004	2.05251E-002	1.83153E-002	-9.07280E-004	-1.27523E-003	2.38491E-002	-1.47122E-003
	150	150	1.09998E+000	3.35983E-002	0.00000E+000	3.69574E-002	3.35273E-001	4.04239E-002	4.73557E+001	11	...........	6.74739E-002	-5.37444E-003	6.08230E-001	5.42476E-001	-2.68628E-002	-3.77989E-002	7.06610E-001	-4.37093E-002	2.26701E-003	-1.80572E-004	2.04355E-002	1.82263E-002	-9.02544E-004	-1.26998E-003	2.37409E-002	-1.46856E-003
	151	151	1.10000E+000	3.37427E-002	0.00000E+000	3.71170E-002	3.36710E-001	4.02379E-002	4.76126E+001	11	...........	6.71833E-002	-5.30792E-003	6.08299E-001	5.42439E-001	-2.68943E-002	-3.77850E-002	7.06574E-001	-4.36832E-002	2.26695E-003	-1.79103E-004	2.05256E-002	1.83033E-002	-9.07486E-004	-1.27497E-003	2.38417E-002	-1.47399E-003
	152	152	1.10010E+000	3.35011E-002	0.00000E+000	3.68544E-002	3.34305E-001	4.05419E-002	4.84914E+001	11	...........	6.76933E-002	-5.25611E-003	6.08257E-001	5.42475E-001	-2.68907E-002	-3.77931E-002	7.06719E-001	-4.36929E-002	2.26780E-003	-1.76085E-004	2.03772E-002	1.81735E-002	-9.00867E-004	-1.26611E-003	2.36758E-002	-1.46376E-003
	153	153	1.09998E+000	3.33284E-002	0.00000E+000	3.66605E-002	3.32590E-001	4.01430E-002	4.74288E+001	11	...........	6.70229E-002	-5.18361E-003	6.08116E-001	5.42504E-001	-2.69143E-002	-3.78093E-002	7.06676E-001	-4.35112E-002	2.23377E-003	-1.72761E-004	2.02675E-002	1.80808E-002	-8.97011E-004	-1.26012E-003	2.35524E-002	-1.45016E-003
	154	154	1.10000E+000	3.35383E-002	0.00000E+000	3.68922E-002	3.34678E-001	4.03878E-002	4.84303E+001	11	...........	6.74344E-002	-5.15014E-003	6.07922E-001	5.42454E-001	-2.69386E-002	-3.77861E-002	7.06571E-001	-4.34993E-002	2.26164E-003	-1.72727E-004	2.03887E-002	1.81930E-002	-9.03476E-004	-1.26728E-003	2.36972E-002	-1.45889E-003
	155	155	1.10009E+000	3.33081E-002	0.00000E+000	3.66421E-002	3.32387E-001	4.03745E-002	4.82548E+001	11	...........	6.74037E-002	-5.20306E-003	6.07960E-001	5.42333E-001	-2.69347E-002	-3.78049E-002	7.06746E-001	-4.34697E-002	2.24509E-003	-1.73304E-004	2.02500E-002	1.80641E-002	-8.97144E-004	-1.25921E-003	2.35404E-002	-1.44789E-003
	156	156	1.09998E+000	3.31249E-002	0.00000E+000	3.64368E-002	3.30569E-001	4.01537E-002	4.83194E+001	11	...........	6.70421E-002	-5.25139E-003	6.07894E-001	5.42289E-001	-2.69439E-002	-3.77906E-002	7.06761E-001	-4.35597E-002	2.22076E-003	-1.73952E-004	2.01364E-002	1.79633E-002	-8.92514E-004	-1.25181E-003	2.34114E-002	-1.44291E-003
	157	157	1.10000E+000	3.32769E-002	0.00000E+000	3.66047E-002	3.32081E-001	4.04592E-002	4.90856E+001	11	...........	6.75322E-002	-5.40944E-003	6.07926E-001	5.42172E-001	-2.69569E-002	-3.77731E-002	7.06666E-001	-4.35624E-002	2.24726E-003	-1.80010E-004	2.02299E-002	1.80418E-002	-8.97044E-004	-1.25697E-003	2.35157E-002	-1.44962E-003
	158	158	1.10010E+000	3.30534E-002	0.00000E+000	3.63619E-002	3.29860E-001	4.03724E-002	4.58705E+001	11	...........	6.73765E-002	-5.35000E-003	6.07938E-001	5.42208E-001	-2.69531E-002	-3.77747E-002	7.06622E-001	-4.36465E-002	2.22702E-003	-1.76836E-004	2.00944E-002	1.79218E-002	-8.90891E-004	-1.24858E-003	2.33563E-002	-1.44267E-003
	159	159	1.09998E+000	3.28579E-002	0.00000E+000	3.61430E-002	3.27914E-001	4.00284E-002	4.77990E+001	11	...........	6.68296E-002	-5.33111E-003	6.07991E-001	5.42269E-001	-2.69657E-002	-3.77750E-002	7.06553E-001	-4.36724E-002	2.19588E-003	-1.75169E-004	1.99773E-002	1.78178E-002	-8.86035E-004	-1.24121E-003	2.32158E-002	-1.43498E-003
	160	160	1.10000E+000	3.30660E-002	0.00000E+000	3.63726E-002	3.29984E-001	4.03403E-002	4.88039E+001	11	...........	6.73397E-002	-5.36597E-003	6.08103E-001	5.42261E-001	-2.69649E-002	-3.77697E-002	7.06571E-001	-4.37549E-002	2.22665E-003	-1.77431E-004	2.01075E-002	1.79304E-002	-8.91620E-004	-1.24889E-003	2.33635E-002	-1.44680E-003
	161	161	1.10009E+000	3.28167E-002	0.00000E+000	3.61015E-002	3.27506E-001	4.02587E-002	4.59788E+001	11	...........	6.72104E-002	-5.26833E-003	6.07914E-001	5.42231E-001	-2.69540E-002	-3.77624E-002	7.06596E-001	-4.36210E-002	2.20562E-003	-1.72889E-004	1.99497E-002	1.77942E-002	-8.84542E-004	-1.23924E-003	2.31881E-002	-1.43150E-003
	162	162	1.09998E+000	3.26529E-002	0.00000E+000	3.59176E-002	3.25877E-001	4.01465E-002	4.81445E+001	11	...........	6.70307E-002	-5.16611E-003	6.07970E-001	5.42410E-001	-2.69642E-002	-3.77744E-002	7.06514E-001	-4.37592E-002	2.18874E-003	-1.68688E-004	1.98519E-002	1.77113E-002	-8.80457E-004	-1.23344E-003	2.30697E-002	-1.42886E-003
	163	163	1.10000E+000	3.27867E-002	0.00000E+000	3.60654E-002	3.27204E-001	4.02842E-002	4.89379E+001	11	...........	6.72597E-002	-5.20597E-003	6.08136E-001	5.42378E-001	-2.69362E-002	-3.78143E-002	7.06466E-001	-4.38092E-002	2.20522E-003	-1.70687E-004	1.99388E-002	1.77828E-002	-8.83151E-004	-1.23981E-003	2.31627E-002	-1.43636E-003
	164	164	1.10009E+000	3.26200E-002	0.00000E+000	3.58849E-002	3.25551E-001	4.01452E-002	4.79449E+001	11	...........	6.70254E-002	-5.20306E-003	6.07978E-001	5.42485E-001	-2.69374E-002	-3.78311E-002	7.06500E-001	-4.38010E-002	2.18637E-003	-1.69724E-004	1.98323E-002	1.76959E-002	-8.78697E-004	-1.23405E-003	2.30460E-002	-1.42879E-003
	165	165	1.09999E+000	3.24197E-002	0.00000E+000	3.56614E-002	3.23559E-001	4.01472E-002	4.80731E+001	11	...........	6.70354E-002	-5.24583E-003	6.07876E-001	5.42573E-001	-2.69565E-002	-3.78304E-002	7.06506E-001	-4.39137E-002	2.17327E-003	-1.70068E-004	1.97072E-002	1.75901E-002	-8.73923E-004	-1.22645E-003	2.29047E-002	-1.42367E-003
	166	166	1.10000E+000	3.25742E-002	0.00000E+000	3.58316E-002	3.25092E-001	4.01339E-002	4.74574E+001	11	...........	6.70112E-002	-5.26931E-003	6.07966E-001	5.42525E-001	-2.69590E-002	-3.78174E-002	7.06364E-001	-4.38406E-002	2.18284E-003	-1.71643E-004	1.98040E-002	1.76723E-002	-8.78168E-004	-1.23187E-003	2.30092E-002	-1.42807E-003
	167	167	1.10009E+000	3.24212E-002	0.00000E+000	3.56661E-002	3.23573E-001	4.02317E-002	4.86580E+001	11	...........	6.71647E-002	-5.25736E-003	6.07952E-001	5.42536E-001	-2.69853E-002	-3.78021E-002	7.06328E-001	-4.37896E-002	2.17756E-003	-1.70450E-004	1.97105E-002	1.75896E-002	-8.74894E-004	-1.22559E-003	2.29000E-002	-1.41971E-003
	168	168	1.09999E+000	3.22046E-002	0.00000E+000	3.54248E-002	3.21423E-001	4.02226E-002	4.81137E+001	11	...........	6.71289E-002	-5.21403E-003	6.08051E-001	5.42602E-001	-2.69706E-002	-3.77976E-002	7.06206E-001	-4.38468E-002	2.16186E-003	-1.67916E-004	1.95821E-002	1.74743E-002	-8.68576E-004	-1.21726E-003	2.27431E-002	-1.41207E-003
	169	169	1.10000E+000	3.22921E-002	0.00000E+000	3.55213E-002	3.22290E-001	3.98043E-002	4.55177E+001	11	...........	6.64468E-002	-5.17236E-003	6.08070E-001	5.42438E-001	-2.69760E-002	-3.78004E-002	7.06249E-001	-4.37590E-002	2.14571E-003	-1.67026E-004	1.96359E-002	1.75165E-002	-8.71111E-004	-1.22066E-003	2.28063E-002	-1.41307E-003
	170	170	1.10008E+000	3.22261E-002	0.00000E+000	3.54515E-002	3.21630E-001	4.02647E-002	4.83367E+001	11	...........	6.72121E-002	-5.19250E-003	6.08108E-001	5.42478E-001	-2.69969E-002	-3.77890E-002	7.06316E-001	-4.37575E-002	2.16599E-003	-1.67334E-004	1.95970E-002	1.74820E-002	-8.70008E-004	-1.21779E-003	2.27619E-002	-1.41014E-003
	171	171	1.09999E+000	3.19813E-002	0.00000E+000	3.51793E-002	3.19197E-001	4.01929E-002	4.90498E+001	11	...........	6.71110E-002	-5.27528E-003	6.08110E-001	5.42340E-001	-2.69889E-002	-3.77957E-002	7.06366E-001	-4.36578E-002	2.14630E-003	-1.68710E-004	1.94482E-002	1.73447E-002	-8.63140E-004	-1.20876E-003	2.25905E-002	-1.39623E-003
	172	172	1.10000E+000	3.21579E-002	0.00000E+000	3.53736E-002	3.20953E-001	4.01491E-002	4.81356E+001	11	...........	6.70236E-002	-5.35208E-003	6.08098E-001	5.42296E-001	-2.69918E-002	-3.77837E-002	7.06368E-001	-4.35624E-002	2.15534E-003	-1.72112E-004	1.95551E-002	1.74391E-002	-8.68000E-004	-1.21505E-003	2.27153E-002	-1.40087E-003
	173	173	1.10008E+000	3.19430E-002	0.00000E+000	3.51400E-002	3.18817E-001	4.00627E-002	4.62962E+001	11	...........	6.68853E-002	-5.43722E-003	6.08113E-001	5.42237E-001	-2.69910E-002	-3.77808E-002	7.06410E-001	-4.36678E-002	2.13651E-003	-1.73681E-004	1.94249E-002	1.73207E-002	-8.62171E-004	-1.20683E-003	2.25648E-002	-1.39488E-003
	174	174	1.10000E+000	3.17152E-002	0.00000E+000	3.48866E-002	3.16556E-001	3.98764E-002	4.63713E+001	11	...........	6.65426E-002	-5.28111E-003	6.08070E-001	5.42155E-001	-2.69844E-002	-3.77799E-002	7.06426E-001	-4.36457E-002	2.11042E-003	-1.67492E-004	1.92851E-002	1.71946E-002	-8.55818E-004	-1.19820E-003	2.24045E-002	-1.38423E-003
	175	175	1.10000E+000	3.19450E-002	0.00000E+000	3.51395E-002	3.18840E-001	4.02189E-002	4.87145E+001	11	...........	6.71387E-002	-5.23292E-003	6.08042E-001	5.42161E-001	-2.69721E-002	-3.77900E-002	7.06377E-001	-4.37790E-002	2.14475E-003	-1.67166E-004	1.94239E-002	1.73194E-002	-8.61624E-004	-1.20720E-003	2.25652E-002	-1.39852E-003
	176	176	1.10008E+000	3.17826E-002	0.00000E+000	3.49634E-002	3.17224E-001	4.00537E-002	4.89067E+001	11	...........	6.68737E-002	-5.17472E-003	6.07936E-001	5.42046E-001	-2.69618E-002	-3.77808E-002	7.06439E-001	-4.37369E-002	2.12542E-003	-1.64466E-004	1.93217E-002	1.72276E-002	-8.56915E-004	-1.20077E-003	2.24524E-002	-1.39007E-003
	177	177	1.10000E+000	3.15123E-002	0.00000E+000	3.46635E-002	3.14539E-001	4.00557E-002	4.76585E+001	11	...........	6.68576E-002	-5.15556E-003	6.08079E-001	5.42130E-001	-2.69322E-002	-3.77912E-002	7.06479E-001	-4.37556E-002	2.10684E-003	-1.62463E-004	1.91620E-002	1.70838E-002	-8.48696E-004	-1.19089E-003	2.22628E-002	-1.37884E-003
	178	178	1.10000E+000	3.16316E-002	0.00000E+000	3.47947E-002	3.15723E-001	3.97686E-002	4.58602E+001	11	...........	6.63679E-002	-5.24194E-003	6.08160E-001	5.42118E-001	-2.69204E-002	-3.77842E-002	7.06494E-001	-4.38026E-002	2.09933E-003	-1.65811E-004	1.92371E-002	1.71481E-002	-8.51537E-004	-1.19517E-003	2.23475E-002	-1.38555E-003
	179	179	1.10008E+000	3.16022E-002	0.00000E+000	3.47650E-002	3.15431E-001	4.00080E-002	4.79370E+001	11	...........	6.67936E-002	-5.21569E-003	6.08210E-001	5.42020E-001	-2.69215E-002	-3.77793E-002	7.06343E-001	-4.38374E-002	2.11083E-003	-1.64828E-004	1.92208E-002	1.71290E-002	-8.50781E-004	-1.19391E-003	2.23220E-002	-1.38536E-003
	180	180	1.10000E+000	3.13289E-002	0.00000E+000	3.44619E-002	3.12716E-001	4.00990E-002	4.90499E+001	11	...........	6.69272E-002	-5.25569E-003	6.08202E-001	5.42055E-001	-2.69250E-002	-3.77721E-002	7.06468E-001	-4.38290E-002	2.09676E-003	-1.64655E-004	1.90543E-002	1.69820E-002	-8.43532E-004	-1.18336E-003	2.21329E-002	-1.37312E-003
	181	181	1.10000E+000	3.14702E-002	0.00000E+000	3.46172E-002	3.14119E-001	3.99713E-002	4.80859E+001	11	...........	6.67332E-002	-5.24792E-003	6.08118E-001	5.42112E-001	-2.69332E-002	-3.77531E-002	7.06430E-001	-4.37546E-002	2.10011E-003	-1.65153E-004	1.91376E-002	1.70604E-002	-8.47594E-004	-1.18810E-003	2.22315E-002	-1.37697E-003
	182	182	1.10008E+000	3.13027E-002	0.00000E+000	3.44354E-002	3.12454E-001	3.99228E-002	4.70194E+001	11	...........	6.66426E-002	-5.31778E-003	6.08006E-001	5.42143E-001	-2.69599E-002	-3.77451E-002	7.06503E-001	-4.36964E-002	2.08610E-003	-1.66461E-004	1.90323E-002	1.69706E-002	-8.43917E-004	-1.18153E-003	2.21155E-002	-1.36782E-003
	183	183	1.10000E+000	3.10891E-002	0.00000E+000	3.41981E-002	3.10328E-001	3.97778E-002	4.57639E+001	11	...........	6.64233E-002	-5.26111E-003	6.07897E-001	5.42206E-001	-2.69579E-002	-3.77506E-002	7.06503E-001	-4.37483E-002	2.06504E-003	-1.63563E-004	1.88989E-002	1.68567E-002	-8.38097E-004	-1.17363E-003	2.19645E-002	-1.36010E-003
	184	184	1.10000E+000	3.13117E-002	0.00000E+000	3.44427E-002	3.12542E-001	3.99892E-002	4.83273E+001	11	...........	6.67679E-002	-5.36333E-003	6.07926E-001	5.42121E-001	-2.69600E-002	-3.77626E-002	7.06590E-001	-4.38231E-002	2.09061E-003	-1.67935E-004	1.90352E-002	1.69747E-002	-8.44162E-004	-1.18241E-003	2.21245E-002	-1.37217E-003
	185	185	1.10008E+000	3.11650E-002	0.00000E+000	3.42839E-002	3.11083E-001	3.99562E-002	4.83881E+001	11	...........	6.67015E-002	-5.38181E-003	6.08027E-001	5.42097E-001	-2.69365E-002	-3.77715E-002	7.06645E-001	-4.38844E-002	2.07876E-003	-1.67724E-004	1.89492E-002	1.68945E-002	-8.39478E-004	-1.17715E-003	2.20226E-002	-1.36766E-003
	186	186	1.10001E+000	3.08718E-002	0.00000E+000	3.39592E-002	3.08170E-001	3.97727E-002	4.82996E+001	11	...........	6.63971E-002	-5.30639E-003	6.07917E-001	5.41992E-001	-2.69387E-002	-3.77510E-002	7.06574E-001	-4.38653E-002	2.04980E-003	-1.63818E-004	1.87675E-002	1.67323E-002	-8.31647E-004	-1.16544E-003	2.18132E-002	-1.35420E-003
	187	187	1.10000E+000	3.10484E-002	0.00000E+000	3.41531E-002	3.09927E-001	3.99664E-002	4.88041E+001	11	...........	6.67193E-002	-5.34847E-003	6.07862E-001	5.42051E-001	-2.69494E-002	-3.77607E-002	7.06458E-001	-4.39186E-002	2.07153E-003	-1.66061E-004	1.88731E-002	1.68298E-002	-8.36737E-004	-1.17241E-003	2.19344E-002	-1.36360E-003
	188	188	1.10007E+000	3.09072E-002	0.00000E+000	3.40001E-002	3.08525E-001	3.98533E-002	4.66148E+001	11	...........	6.65103E-002	-5.20028E-003	6.07810E-001	5.42049E-001	-2.69824E-002	-3.77868E-002	7.06445E-001	-4.38758E-002	2.05564E-003	-1.60726E-004	1.87857E-002	1.67532E-002	-8.33948E-004	-1.16788E-003	2.18342E-002	-1.35608E-003
	189	189	1.10001E+000	3.06464E-002	0.00000E+000	3.37114E-002	3.05932E-001	3.96817E-002	4.68062E+001	11	...........	6.62601E-002	-5.16292E-003	6.07752E-001	5.42073E-001	-2.69675E-002	-3.77631E-002	7.06516E-001	-4.38119E-002	2.03064E-003	-1.58225E-004	1.86254E-002	1.66126E-002	-8.26458E-004	-1.15730E-003	2.16522E-002	-1.34268E-003
	190	190	1.09999E+000	3.08382E-002	0.00000E+000	3.39218E-002	3.07838E-001	3.98829E-002	4.86601E+001	11	...........	6.65883E-002	-5.20583E-003	6.07740E-001	5.42161E-001	-2.69510E-002	-3.77622E-002	7.06600E-001	-4.36804E-002	2.05346E-003	-1.60538E-004	1.87416E-002	1.67193E-002	-8.31119E-004	-1.16452E-003	2.17903E-002	-1.34703E-003
	191	191	1.10007E+000	3.07437E-002	0.00000E+000	3.38203E-002	3.06897E-001	3.98872E-002	4.81284E+001	11	...........	6.65986E-002	-5.25097E-003	6.07724E-001	5.42100E-001	-2.69387E-002	-3.77619E-002	7.06573E-001	-4.36908E-002	2.04749E-003	-1.61434E-004	1.86837E-002	1.66662E-002	-8.28197E-004	-1.16094E-003	2.17227E-002	-1.34322E-003
	192	192	1.10001E+000	3.04721E-002	0.00000E+000	3.35196E-002	3.04197E-001	3.97329E-002	4.83063E+001	11	...........	6.63332E-002	-5.29347E-003	6.07575E-001	5.42054E-001	-2.69550E-002	-3.77567E-002	7.06525E-001	-4.37925E-002	2.02131E-003	-1.61303E-004	1.85141E-002	1.65175E-002	-8.21374E-004	-1.15052E-003	2.15293E-002	-1.33445E-003
	193	193	1.09999E+000	3.06071E-002	0.00000E+000	3.36676E-002	3.05538E-001	3.96607E-002	4.79794E+001	11	...........	6.62108E-002	-5.28208E-003	6.07418E-001	5.42142E-001	-2.69468E-002	-3.77575E-002	7.06577E-001	-4.38481E-002	2.02652E-003	-1.61669E-004	1.85913E-002	1.65934E-002	-8.24763E-004	-1.15565E-003	2.16263E-002	-1.34206E-003
	194	194	1.10007E+000	3.05372E-002	0.00000E+000	3.35931E-002	3.04843E-001	3.99854E-002	4.77762E+001	11	...........	6.67631E-002	-5.26167E-003	6.07350E-001	5.42197E-001	-2.69601E-002	-3.77665E-002	7.06612E-001	-4.38344E-002	2.03876E-003	-1.60677E-004	1.85468E-002	1.65572E-002	-8.23288E-004	-1.15328E-003	2.15780E-002	-1.33858E-003
	195	195	1.10001E+000	3.01901E-002	0.00000E+000	3.32096E-002	3.01394E-001	3.93639E-002	4.59850E+001	11	...........	6.57110E-002	-5.16167E-003	6.07270E-001	5.42287E-001	-2.69667E-002	-3.77393E-002	7.06537E-001	-4.37581E-002	1.98382E-003	-1.55831E-004	1.83335E-002	1.63717E-002	-8.14127E-004	-1.13935E-003	2.13304E-002	-1.32106E-003
	196	196	1.09999E+000	3.04206E-002	0.00000E+000	3.34625E-002	3.03688E-001	3.99912E-002	4.83848E+001	11	...........	6.67657E-002	-5.19361E-003	6.07284E-001	5.42255E-001	-2.69799E-002	-3.77836E-002	7.06516E-001	-4.37794E-002	2.03105E-003	-1.57993E-004	1.84740E-002	1.64957E-002	-8.20744E-004	-1.14940E-003	2.14926E-002	-1.33180E-003
	197	197	1.10007E+000	3.03276E-002	0.00000E+000	3.33624E-002	3.02760E-001	3.97471E-002	4.88444E+001	11	...........	6.63571E-002	-5.16667E-003	6.07318E-001	5.42270E-001	-2.69782E-002	-3.78094E-002	7.06462E-001	-4.38418E-002	2.01245E-003	-1.56693E-004	1.84185E-002	1.64457E-002	-8.18184E-004	-1.14667E-003	2.14253E-002	-1.32962E-003
	198	198	1.10002E+000	3.00240E-002	0.00000E+000	3.30270E-002	2.99742E-001	3.96993E-002	4.77724E+001	11	...........	6.62807E-002	-5.24806E-003	6.07344E-001	5.42183E-001	-2.69815E-002	-3.78278E-002	7.06561E-001	-4.37951E-002	1.99001E-003	-1.57568E-004	1.82349E-002	1.62785E-002	-8.10094E-004	-1.13574E-003	2.12138E-002	-1.31491E-003
	199	199	1.09999E+000	3.01969E-002	0.00000E+000	3.32164E-002	3.01460E-001	3.96812E-002	4.84855E+001	11	...........	6.62465E-002	-5.31792E-003	6.07377E-001	5.42149E-001	-2.69890E-002	-3.78310E-002	7.06588E-001	-4.36954E-002	2.00044E-003	-1.60585E-004	1.83409E-002	1.63712E-002	-8.14985E-004	-1.14238E-003	2.13368E-002	-1.31947E-003
	200	200	1.10006E+000	3.01346E-002	0.00000E+000	3.31500E-002	3.00842E-001	3.97092E-002	4.86652E+001	11	...........	6.62986E-002	-5.27889E-003	6.07380E-001	5.42116E-001	-2.69875E-002	-3.78135E-002	7.06580E-001	-4.36982E-002	1.99788E-003	-1.59077E-004	1.83031E-002	1.63364E-002	-8.13256E-004	-1.13949E-003	2.12925E-002	-1.31683E-003
	201	201	1.10002E+000	2.97776E-002	0.00000E+000	3.27561E-002	2.97295E-001	3.95055E-002	4.51066E+001	11	...........	6.59456E-002	-5.27861E-003	6.07592E-001	5.42192E-001	-2.69564E-002	-3.78339E-002	7.06619E-001	-4.36881E-002	1.96370E-003	-1.57184E-004	1.80926E-002	1.61452E-002	-8.02697E-004	-1.12660E-003	2.10414E-002	-1.30093E-003
	202	202	1.09999E+000	3.00028E-002	0.00000E+000	3.30027E-002	2.99528E-001	3.97912E-002	4.83422E+001	11	...........	6.64396E-002	-5.28486E-003	6.07700E-001	5.42230E-001	-2.69815E-002	-3.78267E-002	7.06725E-001	-4.37718E-002	1.99337E-003	-1.58560E-004	1.82327E-002	1.62684E-002	-8.09520E-004	-1.13490E-003	2.12037E-002	-1.31328E-003
	203	203	1.10006E+000	2.99304E-002	0.00000E+000	3.29254E-002	2.98811E-001	3.97301E-002	4.76123E+001	11	...........	6.63274E-002	-5.32764E-003	6.07802E-001	5.42092E-001	-2.69826E-002	-3.78060E-002	7.06646E-001	-4.37839E-002	1.98521E-003	-1.59459E-004	1.81918E-002	1.62250E-002	-8.07602E-004	-1.13155E-003	2.11502E-002	-1.31047E-003
	204	204	1.10002E+000	2.96032E-002	0.00000E+000	3.25643E-002	2.95558E-001	3.93139E-002	4.69224E+001	11	...........	6.56229E-002	-5.28444E-003	6.07751E-001	5.41932E-001	-2.70158E-002	-3.77964E-002	7.06628E-001	-4.37832E-002	1.94265E-003	-1.56436E-004	1.79914E-002	1.60429E-002	-7.99755E-004	-1.11889E-003	2.09185E-002	-1.29612E-003
	205	205	1.09999E+000	2.97657E-002	0.00000E+000	3.27420E-002	2.97174E-001	3.98420E-002	4.82581E+001	11	...........	6.65071E-002	-5.26542E-003	6.07787E-001	5.41837E-001	-2.70031E-002	-3.77926E-002	7.06655E-001	-4.38582E-002	1.97963E-003	-1.56729E-004	1.80912E-002	1.61282E-002	-8.03766E-004	-1.12493E-003	2.10341E-002	-1.30547E-003
	206	206	1.10006E+000	2.97287E-002	0.00000E+000	3.27033E-002	2.96810E-001	3.96574E-002	4.88183E+001	11	...........	6.61825E-002	-5.16278E-003	6.07734E-001	5.41685E-001	-2.70083E-002	-3.78422E-002	7.06565E-001	-4.38842E-002	1.96752E-003	-1.53482E-004	1.80671E-002	1.61036E-002	-8.02921E-004	-1.12500E-003	2.10052E-002	-1.30462E-003
	207	207	1.10003E+000	2.94140E-002	0.00000E+000	3.23563E-002	2.93680E-001	3.96266E-002	4.66617E+001	11	...........	6.61294E-002	-5.25306E-003	6.07731E-001	5.41744E-001	-2.70053E-002	-3.78368E-002	7.06574E-001	-4.38621E-002	1.94513E-003	-1.54514E-004	1.78758E-002	1.59349E-002	-7.94334E-004	-1.11293E-003	2.07832E-002	-1.29016E-003
	208	208	1.09999E+000	2.95284E-002	0.00000E+000	3.24809E-002	2.94818E-001	3.93191E-002	4.76483E+001	11	...........	6.56524E-002	-5.15944E-003	6.07805E-001	5.41680E-001	-2.70035E-002	-3.78262E-002	7.06629E-001	-4.38082E-002	1.93861E-003	-1.52350E-004	1.79475E-002	1.59949E-002	-7.97369E-004	-1.11695E-003	2.08656E-002	-1.29358E-003
	209	209	1.10006E+000	2.95437E-002	0.00000E+000	3.24999E-002	2.94969E-001	3.97017E-002	4.89627E+001	11	...........	6.62832E-002	-5.21333E-003	6.07709E-001	5.41810E-001	-2.69924E-002	-3.78535E-002	7.06587E-001	-4.38196E-002	1.95825E-003	-1.54021E-004	1.79540E-002	1.60071E-002	-7.97455E-004	-1.11833E-003	2.08752E-002	-1.29459E-003
	210	210	1.10003E+000	2.92277E-002	0.00000E+000	3.21513E-002	2.91825E-001	3.95796E-002	4.89672E+001	11	...........	6.60938E-002	-5.26778E-003	6.07525E-001	5.42071E-001	-2.69953E-002	-3.78774E-002	7.06702E-001	-4.38021E-002	1.93177E-003	-1.53965E-004	1.77566E-002	1.58435E-002	-7.89010E-004	-1.10707E-003	2.06553E-002	-1.28024E-003
	211	211	1.09999E+000	2.93226E-002	0.00000E+000	3.22545E-002	2.92770E-001	3.93852E-002	4.68335E+001	11	...........	6.57488E-002	-5.26750E-003	6.07510E-001	5.41981E-001	-2.70156E-002	-3.78640E-002	7.06777E-001	-4.36165E-002	1.92792E-003	-1.54457E-004	1.78138E-002	1.58923E-002	-7.92166E-004	-1.11027E-003	2.07245E-002	-1.27895E-003
	212	212	1.10006E+000	2.93497E-002	0.00000E+000	3.22863E-002	2.93039E-001	3.97603E-002	4.80047E+001	11	...........	6.63733E-002	-5.19764E-003	6.07638E-001	5.41982E-001	-2.69982E-002	-3.78654E-002	7.06709E-001	-4.36342E-002	1.94804E-003	-1.52549E-004	1.78340E-002	1.59070E-002	-7.92388E-004	-1.11134E-003	2.07417E-002	-1.28065E-003
	213	213	1.10003E+000	2.90258E-002	0.00000E+000	3.19294E-002	2.89822E-001	3.92681E-002	4.71499E+001	11	...........	6.55294E-002	-5.14208E-003	6.07635E-001	5.41913E-001	-2.69546E-002	-3.78729E-002	7.06689E-001	-4.36672E-002	1.90205E-003	-1.49253E-004	1.76371E-002	1.57295E-002	-7.82379E-004	-1.09929E-003	2.05122E-002	-1.26748E-003
	214	214	1.09999E+000	2.91382E-002	0.00000E+000	3.20517E-002	2.90939E-001	3.89949E-002	4.81220E+001	11	...........	6.57371E-002	-5.05528E-003	6.07543E-001	5.41990E-001	-2.69569E-002	-3.78687E-002	7.06794E-001	-4.37451E-002	1.91546E-003	-1.47302E-004	1.77027E-002	1.57926E-002	-7.85477E-004	-1.10343E-003	2.05947E-002	-1.27465E-003
	215	215	1.10005E+000	2.91330E-002	0.00000E+000	3.20479E-002	2.90885E-001	3.96975E-002	4.91191E+001	11	...........	6.62903E-002	-5.01514E-003	6.07658E-001	5.42038E-001	-2.69521E-002	-3.78761E-002	7.06791E-001	-4.36550E-002	1.93123E-003	-1.46106E-004	1.77029E-002	1.57912E-002	-7.85194E-004	-1.10344E-003	2.05909E-002	-1.27180E-003
	216	216	1.10004E+000	2.88179E-002	0.00000E+000	3.17007E-002	2.87753E-001	3.95361E-002	4.84203E+001	11	...........	6.60129E-002	-5.11292E-003	6.07581E-001	5.42084E-001	-2.69235E-002	-3.78861E-002	7.06740E-001	-4.37735E-002	1.90235E-003	-1.47343E-004	1.75092E-002	1.56217E-002	-7.75877E-004	-1.09180E-003	2.03668E-002	-1.26146E-003
	217	217	1.09999E+000	2.89464E-002	0.00000E+000	3.18407E-002	2.89029E-001	3.94538E-002	4.64671E+001	11	...........	6.58561E-002	-5.11194E-003	6.07687E-001	5.42026E-001	-2.69064E-002	-3.78996E-002	7.06538E-001	-4.37369E-002	1.90630E-003	-1.47972E-004	1.75903E-002	1.56897E-002	-7.78843E-004	-1.09706E-003	2.04517E-002	-1.26603E-003
	218	218	1.10005E+000	2.89392E-002	0.00000E+000	3.18346E-002	2.88958E-001	3.92414E-002	4.71347E+001	11	...........	6.55112E-002	-5.13069E-003	6.07768E-001	5.42067E-001	-2.68810E-002	-3.78935E-002	7.06471E-001	-4.36493E-002	1.89584E-003	-1.48478E-004	1.75883E-002	1.56870E-002	-7.77914E-004	-1.09661E-003	2.04447E-002	-1.26318E-003
	219	219	1.10004E+000	2.86218E-002	0.00000E+000	3.14852E-002	2.85807E-001	3.95754E-002	4.74265E+001	11	...........	6.60501E-002	-5.20667E-003	6.07767E-001	5.41983E-001	-2.68831E-002	-3.78929E-002	7.06645E-001	-4.36408E-002	1.89047E-003	-1.49024E-004	1.73954E-002	1.55125E-002	-7.69441E-004	-1.08456E-003	2.02255E-002	-1.24908E-003
	220	220	1.09999E+000	2.87356E-002	0.00000E+000	3.16088E-002	2.86936E-001	3.94232E-002	4.84235E+001	11	...........	6.58226E-002	-5.20486E-003	6.07792E-001	5.41820E-001	-2.68958E-002	-3.78768E-002	7.06642E-001	-4.36007E-002	1.89145E-003	-1.49565E-004	1.74653E-002	1.55695E-002	-7.72868E-004	-1.08841E-003	2.03058E-002	-1.25289E-003
	221	221	1.10005E+000	2.87487E-002	0.00000E+000	3.16249E-002	2.87065E-001	3.94086E-002	4.86477E+001	11	...........	6.57926E-002	-5.19986E-003	6.07885E-001	5.41830E-001	-2.68431E-002	-3.78876E-002	7.06689E-001	-4.34983E-002	1.89145E-003	-1.49489E-004	1.74759E-002	1.55769E-002	-7.71703E-004	-1.08922E-003	2.03164E-002	-1.25052E-003
	222	222	1.10004E+000	2.84288E-002	0.00000E+000	3.12729E-002	2.83887E-001	3.93786E-002	4.79437E+001	11	...........	6.57362E-002	-5.18319E-003	6.07941E-001	5.41901E-001	-2.68450E-002	-3.78931E-002	7.06705E-001	-4.35531E-002	1.86880E-003	-1.47352E-004	1.72830E-002	1.54056E-002	-7.63171E-004	-1.07725E-003	2.00907E-002	-1.23816E-003
	223	222.157	1.10013E+000	2.90062E-002	0.00000E+000	3.19106E-002	2.89632E-001	3.93654E-002	4.87326E+001	11	...........	6.57349E-002	-5.21188E-003	6.08043E-001	5.41896E-001	-2.69530E-002	-3.78564E-002	7.06723E-001	-4.35860E-002	1.90672E-003	-1.51177E-004	1.76370E-002	1.57183E-002	-7.81804E-004	-1.09807E-003	2.04993E-002	-1.26426E-003
STARTTIMEOFFSET	QUANT	646815.9	Start Time Offset (s)
