EXPLAIN
TAG	PWR800_CHARGE
TITLE	LABEL	PWR Charge	Test Identifier
DATE	LABEL	10/12/2022	Date
TIME	LABEL	8:51:22	Time
NOTES	NOTES	1	Notes...
	
PSTAT	PSTAT	REF3000-21114	Potentiostat
CAPACITY	QUANT	5.30000E-002	Capacity (A-hr)
CELLTYPE	SELECTOR	1	Cell Type
WORKINGCONNECTION	SELECTOR	0	Working Connection
MAXCHARGETIME	VARIABLEANDUNITS	7.20000E+003	s	2.00000E+000	hour(s)	Max Charge Time
CHARGEMODE	MULTIPARAM	0	1.00000E-001	Charge Mode	Constant Current	Amp(s)
CHARGECURRENT	QUANT	0.1	Charge Current (A)
VOLTAGEFINISH	TWOPARAM	T	2.50000E-002	7.20000E+003	Voltage Finish	I (A) <	Max Time(s)
SAMPLETIME	QUANT	1.00000E+000	Sample Period (s)
CHARGESTOPAT1	MULTIPARAM	2	1.10000E+000	Stop At 1	|Voltage| > Limit	V
CHARGESTOPAT2	MULTIPARAM	0	0.00000E+000	Stop At 2	None	N/A
AESELECTOR	AESELECTOR	0x1	T	Set Limits	AE Channels
AESBHCSELECTOR	TOGGLE	F	Save Both Half Cells
IRCOMP	TOGGLE	F	IR Measure
EOC	QUANT	0.2749476	Open Circuit (V)
SEQUENCER	TOGGLE	TRUE	Run as Sequence
PSTATMODEL	IQUANT	5	Pstat Model
PSTATSECTION	LABEL	REF3000-21114	Pstat Section
PSTATSERIALNO	LABEL	21114	Pstat Serial Number
CTRLMODE	IQUANT	0	Control Mode
ELECTROMETER	IQUANT	0	RE=0 or CS=1
IESTAB	IQUANT	0	I/E Stability
CASPEED	IQUANT	4	Control Amp Speed
CONVENTION	IQUANT	1	Current Convention
ICHRANGE	IQUANT	2	Ich Range
ICHRANGEMODE	TOGGLE	T	Ich Auto Range
ICHOFFSETENABLE	TOGGLE	F	Ich Offset Enable
ICHOFFSET	QUANT	0	Ich Offset (V)
ICHFILTER	IQUANT	1	Ich Filter
VCHRANGE	IQUANT	3	Vch Range
VCHRANGEMODE	TOGGLE	T	Vch Auto Range
VCHOFFSETENABLE	TOGGLE	F	Vch Offset Enable
VCHOFFSET	QUANT	0	Vch Offset (V)
VCHFILTER	IQUANT	1	Vch Filter
ACHRANGE	IQUANT	2	Ach Range
ACHOFFSETENABLE	TOGGLE	F	Ach Offset Enable
ACHOFFSET	QUANT	0	Ach Offset (V)
ACHFILTER	IQUANT	1	Ach Filter
IERANGELOWERLIMIT	IQUANT	9	I/E Range Lower Limit
IERANGEMODE	TOGGLE	F	I/E AutoRange
IERANGE	IQUANT	9	I/E Range
POSFEEDENABLE	TOGGLE	F	Positive Feedback IR Comp
POSFEEDRESISTANCE	QUANT	0	Positive Feedback Resistance (ohm)
ACHSELECT	IQUANT	1	Ach Select
SENSECABLEID	IQUANT	13	Sense Cable ID
PWRCABLEID	IQUANT	13	Power Cable ID
DCCALDATE	LABEL		DC Calibration Date
ACCALDATE	LABEL		AC Calibration Date
THERMOSELECT	IQUANT	1	Thermo Select
FRAMEWORKVERSION	LABEL	7.8.6	Framework Version
INSTRUMENTVERSION	LABEL	4.50	Instrument Version
COMPLIANCEVOLTAGE	IQUANT	0	Compliance Voltage
CURVE	TABLE	68
	Pt	T	Vf	Im	Vu	Pwr	Sig	Ach	Temp	IERange	Over	Vf1	Vf2	Vf3	Vf4	Vf5	Vf6	Vf7	Vf8	Pwr1	Pwr2	Pwr3	Pwr4	Pwr5	Pwr6	Pwr7	Pwr8
	#	s	V	A	V	W	V	V	deg C	#	bits	V	V	V	V	V	V	V	V	W	W	W	W	W	W	W	W
	0	1	5.40100E-001	9.98640E-002	0.00000E+000	5.39366E-002	9.94000E-001	3.59727E-002	3.44359E+001	11	...........	5.96021E-002	-4.06639E-003	5.63529E-001	6.52197E-001	-3.02397E-002	-3.93479E-002	6.50372E-001	-4.30637E-002	5.95210E-003	-4.06086E-004	5.62763E-002	6.51310E-002	-3.01986E-003	-3.92944E-003	6.49488E-002	-4.30052E-003
	1	2	8.31802E-001	9.98651E-002	0.00000E+000	8.30680E-002	9.94000E-001	3.71066E-002	3.79392E+001	11	...........	6.14706E-002	-4.33583E-003	5.63698E-001	6.52179E-001	-3.02231E-002	-3.93687E-002	6.50504E-001	-4.31724E-002	6.13876E-003	-4.32998E-004	5.62938E-002	6.51299E-002	-3.01823E-003	-3.93156E-003	6.49626E-002	-4.31141E-003
	2	2.09	1.08174E+000	9.98667E-002	0.00000E+000	1.08030E-001	9.94000E-001	3.69065E-002	4.30538E+001	11	...........	6.11126E-002	-4.41204E-003	5.63864E-001	6.52205E-001	-3.00664E-002	-3.94290E-002	6.50418E-001	-4.32685E-002	6.10312E-003	-4.40615E-004	5.63112E-002	6.51336E-002	-3.00263E-003	-3.93764E-003	6.49551E-002	-4.32108E-003
	3	3	1.10155E+000	6.80266E-002	0.00000E+000	7.49346E-002	6.77415E-001	3.65827E-002	4.00277E+001	11	...........	6.05875E-002	-4.35684E-003	5.63871E-001	6.52267E-001	-3.02050E-002	-3.93805E-002	6.50471E-001	-4.32987E-002	4.12156E-003	-2.96381E-004	3.83582E-002	4.43715E-002	-2.05474E-003	-2.67892E-003	4.42493E-002	-2.94546E-003
	4	4	1.10124E+000	5.20414E-002	0.00000E+000	5.73100E-002	5.18465E-001	3.65561E-002	3.93408E+001	11	...........	6.05256E-002	-4.19944E-003	5.63863E-001	6.52184E-001	-3.02014E-002	-3.93992E-002	6.50520E-001	-4.32887E-002	3.14984E-003	-2.18545E-004	2.93442E-002	3.39406E-002	-1.57172E-003	-2.05039E-003	3.38540E-002	-2.25281E-003
	5	5	1.10108E+000	4.61878E-002	0.00000E+000	5.08563E-002	4.60272E-001	3.64170E-002	3.96205E+001	11	...........	6.06497E-002	-4.08750E-003	5.63876E-001	6.52153E-001	-3.02237E-002	-3.94064E-002	6.50485E-001	-4.32585E-002	2.80128E-003	-1.88793E-004	2.60442E-002	3.01215E-002	-1.39597E-003	-1.82009E-003	3.00445E-002	-1.99801E-003
	6	6	1.10109E+000	4.30776E-002	0.00000E+000	4.74322E-002	4.29343E-001	3.62581E-002	3.96231E+001	11	...........	6.00086E-002	-4.19167E-003	5.63935E-001	6.52098E-001	-3.01718E-002	-3.94168E-002	6.50396E-001	-4.31981E-002	2.58503E-003	-1.80567E-004	2.42930E-002	2.80908E-002	-1.29973E-003	-1.69798E-003	2.80175E-002	-1.86087E-003
	7	7	1.10117E+000	4.06431E-002	0.00000E+000	4.47549E-002	4.05137E-001	3.66677E-002	3.84022E+001	11	...........	6.06990E-002	-4.21056E-003	5.63990E-001	6.52003E-001	-3.01842E-002	-3.94278E-002	6.50548E-001	-4.31768E-002	2.46699E-003	-1.71130E-004	2.29223E-002	2.64994E-002	-1.22678E-003	-1.60247E-003	2.64403E-002	-1.75484E-003
	8	8	1.10105E+000	3.87972E-002	0.00000E+000	4.27179E-002	3.86788E-001	3.64021E-002	3.92459E+001	11	...........	6.02793E-002	-4.04736E-003	5.64046E-001	6.51939E-001	-3.01915E-002	-3.94151E-002	6.50469E-001	-4.31418E-002	2.33867E-003	-1.57026E-004	2.18834E-002	2.52934E-002	-1.17135E-003	-1.52920E-003	2.52364E-002	-1.67378E-003
	9	9	1.10107E+000	3.77415E-002	0.00000E+000	4.15560E-002	3.76293E-001	3.65926E-002	3.88637E+001	11	...........	6.06168E-002	-3.89097E-003	5.64135E-001	6.51919E-001	-3.02396E-002	-3.93826E-002	6.50352E-001	-4.31679E-002	2.28777E-003	-1.46851E-004	2.12913E-002	2.46044E-002	-1.14129E-003	-1.48636E-003	2.45453E-002	-1.62922E-003
	10	10	1.10116E+000	3.64696E-002	0.00000E+000	4.01588E-002	3.63648E-001	3.60115E-002	3.82923E+001	11	...........	5.96192E-002	-3.80153E-003	5.64191E-001	6.52111E-001	-3.02265E-002	-3.93779E-002	6.50370E-001	-4.33118E-002	2.17429E-003	-1.38640E-004	2.05758E-002	2.37822E-002	-1.10235E-003	-1.43610E-003	2.37188E-002	-1.57956E-003
	11	11	1.10105E+000	3.55907E-002	0.00000E+000	3.91870E-002	3.54909E-001	3.67027E-002	3.87085E+001	11	...........	6.07800E-002	-3.88375E-003	5.64151E-001	6.52119E-001	-3.02424E-002	-3.93887E-002	6.50336E-001	-4.32371E-002	2.16320E-003	-1.38225E-004	2.00785E-002	2.32094E-002	-1.07635E-003	-1.40187E-003	2.31459E-002	-1.53884E-003
	12	12	1.10106E+000	3.52677E-002	0.00000E+000	3.88320E-002	3.51699E-001	3.62127E-002	3.77976E+001	11	...........	5.99771E-002	-3.81306E-003	5.64031E-001	6.52072E-001	-3.02521E-002	-3.93949E-002	6.50298E-001	-4.32017E-002	2.11525E-003	-1.34478E-004	1.98921E-002	2.29971E-002	-1.06692E-003	-1.38937E-003	2.29345E-002	-1.52362E-003
	13	13	1.10115E+000	3.46894E-002	0.00000E+000	3.81981E-002	3.45948E-001	3.63678E-002	3.88653E+001	11	...........	6.02504E-002	-3.86250E-003	5.64008E-001	6.52123E-001	-3.02374E-002	-3.93879E-002	6.50240E-001	-4.32399E-002	2.09005E-003	-1.33988E-004	1.95651E-002	2.26218E-002	-1.04892E-003	-1.36634E-003	2.25564E-002	-1.49996E-003
	14	14	1.10105E+000	3.41697E-002	0.00000E+000	3.76226E-002	3.40781E-001	3.65660E-002	3.84632E+001	11	...........	6.05432E-002	-3.91764E-003	5.64034E-001	6.52096E-001	-3.02158E-002	-3.94342E-002	6.50190E-001	-4.32461E-002	2.06874E-003	-1.33864E-004	1.92729E-002	2.22819E-002	-1.03247E-003	-1.34745E-003	2.22168E-002	-1.47771E-003
	15	15	1.10106E+000	3.41314E-002	0.00000E+000	3.75806E-002	3.40400E-001	3.61078E-002	3.79264E+001	11	...........	5.97818E-002	-3.84722E-003	5.63949E-001	6.52111E-001	-3.02450E-002	-3.94603E-002	6.50244E-001	-4.32212E-002	2.04044E-003	-1.31311E-004	1.92484E-002	2.22574E-002	-1.03230E-003	-1.34683E-003	2.21937E-002	-1.47520E-003
	16	16	1.10114E+000	3.37966E-002	0.00000E+000	3.72149E-002	3.37068E-001	3.61512E-002	3.79847E+001	11	...........	5.98565E-002	-3.88889E-003	5.63887E-001	6.52219E-001	-3.02083E-002	-3.94582E-002	6.50404E-001	-4.32700E-002	2.02295E-003	-1.31431E-004	1.90575E-002	2.20428E-002	-1.02094E-003	-1.33355E-003	2.19815E-002	-1.46238E-003
	17	17	1.10105E+000	3.34618E-002	0.00000E+000	3.68432E-002	3.33745E-001	3.65592E-002	3.79928E+001	11	...........	6.05544E-002	-3.81653E-003	5.63872E-001	6.52298E-001	-3.02099E-002	-3.94664E-002	6.50352E-001	-4.31668E-002	2.02626E-003	-1.27708E-004	1.88681E-002	2.18270E-002	-1.01088E-003	-1.32061E-003	2.17619E-002	-1.44444E-003
	18	18	1.10106E+000	3.34970E-002	0.00000E+000	3.68821E-002	3.34092E-001	3.60565E-002	3.85832E+001	11	...........	5.97239E-002	-3.90764E-003	5.63846E-001	6.52400E-001	-3.01947E-002	-3.94628E-002	6.50491E-001	-4.31196E-002	2.00057E-003	-1.30894E-004	1.88871E-002	2.18534E-002	-1.01143E-003	-1.32188E-003	2.17895E-002	-1.44437E-003
	19	19	1.10114E+000	3.33079E-002	0.00000E+000	3.66766E-002	3.32212E-001	3.67391E-002	3.69005E+001	11	...........	6.08611E-002	-3.99528E-003	5.64015E-001	6.52384E-001	-3.01485E-002	-3.94583E-002	6.50532E-001	-4.31408E-002	2.02716E-003	-1.33074E-004	1.87861E-002	2.17295E-002	-1.00418E-003	-1.31427E-003	2.16678E-002	-1.43693E-003
	20	20	1.10106E+000	3.29563E-002	0.00000E+000	3.62868E-002	3.28717E-001	3.58544E-002	3.72341E+001	11	...........	5.95976E-002	-3.79667E-003	5.63959E-001	6.52335E-001	-3.01481E-002	-3.94504E-002	6.50602E-001	-4.30125E-002	1.96412E-003	-1.25124E-004	1.85860E-002	2.14986E-002	-9.93569E-004	-1.30014E-003	2.14415E-002	-1.41753E-003
	21	21	1.10105E+000	3.30859E-002	0.00000E+000	3.64293E-002	3.30006E-001	3.55956E-002	3.73963E+001	11	...........	5.93421E-002	-3.90681E-003	5.63941E-001	6.52166E-001	-3.01981E-002	-3.94719E-002	6.50637E-001	-4.30878E-002	1.96339E-003	-1.29260E-004	1.86585E-002	2.15775E-002	-9.99130E-004	-1.30597E-003	2.15269E-002	-1.42560E-003
	22	22	1.10114E+000	3.29934E-002	0.00000E+000	3.63302E-002	3.29086E-001	3.62881E-002	3.84181E+001	11	...........	6.04846E-002	-3.96875E-003	5.64056E-001	6.52103E-001	-3.01696E-002	-3.94371E-002	6.50592E-001	-4.31476E-002	1.99559E-003	-1.30943E-004	1.86101E-002	2.15151E-002	-9.95397E-004	-1.30116E-003	2.14652E-002	-1.42359E-003
	23	23	1.10106E+000	3.26412E-002	0.00000E+000	3.59398E-002	3.25581E-001	3.58287E-002	3.84459E+001	11	...........	5.97231E-002	-4.00028E-003	5.64030E-001	6.51951E-001	-3.01683E-002	-3.94435E-002	6.50413E-001	-4.31958E-002	1.94943E-003	-1.30574E-004	1.84106E-002	2.12804E-002	-9.84729E-004	-1.28748E-003	2.12302E-002	-1.40996E-003
	24	24	1.10106E+000	3.27447E-002	0.00000E+000	3.60537E-002	3.26615E-001	3.56995E-002	3.80332E+001	11	...........	5.94864E-002	-3.82125E-003	5.64019E-001	6.51883E-001	-3.01696E-002	-3.94357E-002	6.50406E-001	-4.31628E-002	1.94786E-003	-1.25126E-004	1.84686E-002	2.13457E-002	-9.87894E-004	-1.29131E-003	2.12973E-002	-1.41335E-003
	25	25	1.10113E+000	3.26091E-002	0.00000E+000	3.59068E-002	3.25263E-001	3.59403E-002	3.79998E+001	11	...........	5.98968E-002	-3.87847E-003	5.64092E-001	6.51914E-001	-3.01487E-002	-3.94182E-002	6.50470E-001	-4.31469E-002	1.95318E-003	-1.26473E-004	1.83945E-002	2.12583E-002	-9.83122E-004	-1.28539E-003	2.12112E-002	-1.40698E-003
	26	26	1.10106E+000	3.23043E-002	0.00000E+000	3.55691E-002	3.22230E-001	3.59170E-002	3.91082E+001	11	...........	5.98650E-002	-3.93236E-003	5.63871E-001	6.51756E-001	-3.01372E-002	-3.94154E-002	6.50602E-001	-4.31403E-002	1.93390E-003	-1.27032E-004	1.82155E-002	2.10545E-002	-9.73562E-004	-1.27329E-003	2.10173E-002	-1.39362E-003
	27	27	1.10105E+000	3.23817E-002	0.00000E+000	3.56540E-002	3.22999E-001	3.56843E-002	3.79732E+001	11	...........	5.94710E-002	-3.92889E-003	5.63747E-001	6.51800E-001	-3.01537E-002	-3.94221E-002	6.50670E-001	-4.31551E-002	1.92577E-003	-1.27224E-004	1.82551E-002	2.11064E-002	-9.76430E-004	-1.27655E-003	2.10698E-002	-1.39744E-003
	28	28	1.10113E+000	3.22383E-002	0.00000E+000	3.54986E-002	3.21576E-001	3.54076E-002	3.71348E+001	11	...........	5.90153E-002	-3.82153E-003	5.63835E-001	6.51922E-001	-3.01881E-002	-3.94528E-002	6.50817E-001	-4.31628E-002	1.90255E-003	-1.23200E-004	1.81771E-002	2.10169E-002	-9.73213E-004	-1.27189E-003	2.09812E-002	-1.39150E-003
	29	29	1.10107E+000	3.19897E-002	0.00000E+000	3.52228E-002	3.19107E-001	3.63175E-002	3.69892E+001	11	...........	6.05162E-002	-3.85181E-003	5.63873E-001	6.51896E-001	-3.02056E-002	-3.94471E-002	6.50865E-001	-4.31471E-002	1.93589E-003	-1.23218E-004	1.80381E-002	2.08539E-002	-9.66266E-004	-1.26190E-003	2.08209E-002	-1.38026E-003
	30	30	1.10105E+000	3.20721E-002	0.00000E+000	3.53130E-002	3.19924E-001	3.54581E-002	3.68477E+001	11	...........	5.91006E-002	-3.75069E-003	5.63946E-001	6.51800E-001	-3.02058E-002	-3.94506E-002	6.50727E-001	-4.31604E-002	1.89548E-003	-1.20293E-004	1.80870E-002	2.09046E-002	-9.68765E-004	-1.26526E-003	2.08702E-002	-1.38425E-003
	31	31	1.10113E+000	3.19569E-002	0.00000E+000	3.51886E-002	3.18778E-001	3.58967E-002	3.72691E+001	11	...........	5.98425E-002	-3.75167E-003	5.64095E-001	6.51716E-001	-3.02082E-002	-3.94536E-002	6.50731E-001	-4.31850E-002	1.91238E-003	-1.19891E-004	1.80267E-002	2.08268E-002	-9.65359E-004	-1.26081E-003	2.07953E-002	-1.38006E-003
	32	32	1.10107E+000	3.16690E-002	0.00000E+000	3.48698E-002	3.15916E-001	3.57333E-002	3.70854E+001	11	...........	5.95632E-002	-3.85875E-003	5.64115E-001	6.51611E-001	-3.02071E-002	-3.94299E-002	6.50795E-001	-4.31325E-002	1.88631E-003	-1.22203E-004	1.78650E-002	2.06359E-002	-9.56629E-004	-1.24870E-003	2.06100E-002	-1.36596E-003
	33	33	1.10105E+000	3.18209E-002	0.00000E+000	3.50365E-002	3.17428E-001	3.56655E-002	3.72452E+001	11	...........	5.94690E-002	-3.91681E-003	5.63978E-001	6.51646E-001	-3.02542E-002	-3.94119E-002	6.50891E-001	-4.31483E-002	1.89236E-003	-1.24636E-004	1.79463E-002	2.07360E-002	-9.62716E-004	-1.25412E-003	2.07120E-002	-1.37302E-003
	34	34	1.10113E+000	3.16738E-002	0.00000E+000	3.48769E-002	3.15963E-001	3.57269E-002	3.74240E+001	11	...........	5.95693E-002	-3.99653E-003	5.64006E-001	6.51582E-001	-3.02786E-002	-3.94115E-002	6.50921E-001	-4.32321E-002	1.88679E-003	-1.26585E-004	1.78642E-002	2.06381E-002	-9.59040E-004	-1.24831E-003	2.06172E-002	-1.36933E-003
	35	35	1.10107E+000	3.13737E-002	0.00000E+000	3.45447E-002	3.12984E-001	3.55906E-002	3.78220E+001	11	...........	5.93200E-002	-3.92958E-003	5.64032E-001	6.51509E-001	-3.02725E-002	-3.94140E-002	6.50903E-001	-4.31283E-002	1.86109E-003	-1.23285E-004	1.76957E-002	2.04402E-002	-9.49759E-004	-1.23656E-003	2.04212E-002	-1.35309E-003
	36	36	1.10105E+000	3.15301E-002	0.00000E+000	3.47162E-002	3.14533E-001	3.59405E-002	3.70912E+001	11	...........	5.98933E-002	-3.87181E-003	5.64366E-001	6.51559E-001	-3.02839E-002	-3.94347E-002	6.50780E-001	-4.31125E-002	1.88844E-003	-1.22078E-004	1.77945E-002	2.05437E-002	-9.54853E-004	-1.24338E-003	2.05191E-002	-1.35934E-003
	37	37	1.10112E+000	3.14659E-002	0.00000E+000	3.46478E-002	3.13895E-001	3.55837E-002	3.65685E+001	11	...........	5.93012E-002	-3.93389E-003	5.64327E-001	6.51549E-001	-3.03096E-002	-3.94794E-002	6.50773E-001	-4.31217E-002	1.86597E-003	-1.23784E-004	1.77571E-002	2.05016E-002	-9.53720E-004	-1.24226E-003	2.04772E-002	-1.35686E-003
	38	38	1.10108E+000	3.10884E-002	0.00000E+000	3.42307E-002	3.10144E-001	3.56034E-002	3.75123E+001	11	...........	5.93312E-002	-3.93625E-003	5.64156E-001	6.51656E-001	-3.03097E-002	-3.94647E-002	6.50669E-001	-4.31731E-002	1.84451E-003	-1.22372E-004	1.75387E-002	2.02589E-002	-9.42280E-004	-1.22689E-003	2.02282E-002	-1.34218E-003
	39	39	1.10105E+000	3.12639E-002	0.00000E+000	3.44230E-002	3.11888E-001	3.57862E-002	3.80298E+001	11	...........	5.96303E-002	-3.94861E-003	5.63990E-001	6.51670E-001	-3.02796E-002	-3.94594E-002	6.50630E-001	-4.31868E-002	1.86427E-003	-1.23449E-004	1.76325E-002	2.03737E-002	-9.46657E-004	-1.23366E-003	2.03412E-002	-1.35019E-003
	40	40	1.10112E+000	3.12494E-002	0.00000E+000	3.44093E-002	3.11745E-001	3.56387E-002	3.81014E+001	11	...........	5.94069E-002	-3.81736E-003	5.63909E-001	6.51657E-001	-3.02781E-002	-3.94597E-002	6.50524E-001	-4.32178E-002	1.85643E-003	-1.19290E-004	1.76218E-002	2.03639E-002	-9.46170E-004	-1.23309E-003	2.03285E-002	-1.35053E-003
	41	41	1.10108E+000	3.09067E-002	0.00000E+000	3.40307E-002	3.08337E-001	3.56899E-002	3.79065E+001	11	...........	5.94962E-002	-3.80472E-003	5.63866E-001	6.51723E-001	-3.02456E-002	-3.94494E-002	6.50610E-001	-4.31654E-002	1.83883E-003	-1.17591E-004	1.74272E-002	2.01426E-002	-9.34789E-004	-1.21925E-003	2.01082E-002	-1.33410E-003
	42	42	1.10105E+000	3.09537E-002	0.00000E+000	3.40815E-002	3.08806E-001	3.52177E-002	3.76726E+001	11	...........	5.87136E-002	-3.86764E-003	5.63830E-001	6.51814E-001	-3.02533E-002	-3.94486E-002	6.50446E-001	-4.31808E-002	1.81740E-003	-1.19718E-004	1.74526E-002	2.01760E-002	-9.36453E-004	-1.22108E-003	2.01337E-002	-1.33661E-003
	43	43	1.10112E+000	3.09273E-002	0.00000E+000	3.40546E-002	3.08543E-001	3.58318E-002	3.65323E+001	11	...........	5.97119E-002	-3.84042E-003	5.63782E-001	6.51845E-001	-3.02399E-002	-3.94343E-002	6.50395E-001	-4.31822E-002	1.84673E-003	-1.18774E-004	1.74363E-002	2.01598E-002	-9.35237E-004	-1.21960E-003	2.01150E-002	-1.33551E-003
	44	44	1.10108E+000	3.06169E-002	0.00000E+000	3.37117E-002	3.05459E-001	3.55788E-002	3.72549E+001	11	...........	5.93201E-002	-3.86319E-003	5.63751E-001	6.51759E-001	-3.02317E-002	-3.94289E-002	6.50491E-001	-4.31650E-002	1.81620E-003	-1.18279E-004	1.72603E-002	1.99548E-002	-9.25601E-004	-1.20719E-003	1.99160E-002	-1.32158E-003
	45	45	1.10105E+000	3.07463E-002	0.00000E+000	3.38531E-002	3.06746E-001	3.55048E-002	3.80115E+001	11	...........	5.91811E-002	-3.85139E-003	5.63717E-001	6.51727E-001	-3.02354E-002	-3.94151E-002	6.50527E-001	-4.31678E-002	1.81960E-003	-1.18416E-004	1.73322E-002	2.00382E-002	-9.29626E-004	-1.21187E-003	2.00013E-002	-1.32725E-003
	46	46	1.10111E+000	3.06311E-002	0.00000E+000	3.37284E-002	3.05604E-001	3.58903E-002	3.62096E+001	11	...........	5.98307E-002	-3.90514E-003	5.63837E-001	6.51731E-001	-3.02214E-002	-3.94312E-002	6.50582E-001	-4.32118E-002	1.83268E-003	-1.19619E-004	1.72710E-002	1.99633E-002	-9.25715E-004	-1.20782E-003	1.99281E-002	-1.32363E-003
	47	47	1.10108E+000	3.03094E-002	0.00000E+000	3.33732E-002	3.02406E-001	3.51560E-002	3.70121E+001	11	...........	5.86179E-002	-3.82125E-003	5.63681E-001	6.51924E-001	-3.01976E-002	-3.94111E-002	6.50375E-001	-4.32660E-002	1.77667E-003	-1.15820E-004	1.70848E-002	1.97594E-002	-9.15272E-004	-1.19453E-003	1.97125E-002	-1.31137E-003
	48	48	1.10105E+000	3.05071E-002	0.00000E+000	3.35898E-002	3.04370E-001	3.59247E-002	3.72572E+001	11	...........	5.98844E-002	-3.85361E-003	5.63645E-001	6.51894E-001	-3.01911E-002	-3.94139E-002	6.50457E-001	-4.31904E-002	1.82690E-003	-1.17563E-004	1.71952E-002	1.98874E-002	-9.21044E-004	-1.20240E-003	1.98436E-002	-1.31761E-003
	49	49	1.10111E+000	3.03986E-002	0.00000E+000	3.34723E-002	3.03292E-001	3.53318E-002	3.81730E+001	11	...........	5.89076E-002	-3.78208E-003	5.63715E-001	6.51911E-001	-3.01878E-002	-3.94090E-002	6.50374E-001	-4.32317E-002	1.79071E-003	-1.14970E-004	1.71361E-002	1.98172E-002	-9.17666E-004	-1.19798E-003	1.97705E-002	-1.31418E-003
	50	50	1.10109E+000	3.00654E-002	0.00000E+000	3.31047E-002	2.99981E-001	3.56362E-002	3.63750E+001	11	...........	5.94176E-002	-3.78194E-003	5.63821E-001	6.51897E-001	-3.01858E-002	-3.94089E-002	6.50425E-001	-4.32081E-002	1.78642E-003	-1.13706E-004	1.69515E-002	1.95996E-002	-9.07549E-004	-1.18484E-003	1.95553E-002	-1.29907E-003
	51	51	1.10105E+000	3.02603E-002	0.00000E+000	3.33180E-002	3.01913E-001	3.55086E-002	3.74628E+001	11	...........	5.91818E-002	-3.72153E-003	5.63890E-001	6.51927E-001	-3.01975E-002	-3.93717E-002	6.50469E-001	-4.31715E-002	1.79086E-003	-1.12615E-004	1.70635E-002	1.97275E-002	-9.13787E-004	-1.19140E-003	1.96834E-002	-1.30639E-003
	52	52	1.10111E+000	3.01733E-002	0.00000E+000	3.32241E-002	3.01049E-001	3.54438E-002	3.65776E+001	11	...........	5.90908E-002	-3.82764E-003	5.63870E-001	6.52091E-001	-3.01606E-002	-3.94200E-002	6.50648E-001	-4.32078E-002	1.78296E-003	-1.15492E-004	1.70138E-002	1.96757E-002	-9.10043E-004	-1.18943E-003	1.96322E-002	-1.30372E-003
	53	53	1.10109E+000	2.98573E-002	0.00000E+000	3.28757E-002	2.97911E-001	3.55801E-002	3.75339E+001	11	...........	5.93054E-002	-3.87500E-003	5.63808E-001	6.52176E-001	-3.01267E-002	-3.94360E-002	6.50546E-001	-4.32508E-002	1.77070E-003	-1.15697E-004	1.68338E-002	1.94722E-002	-8.99502E-004	-1.17745E-003	1.94235E-002	-1.29135E-003
	54	54	1.10104E+000	2.99785E-002	0.00000E+000	3.30077E-002	2.99115E-001	3.56597E-002	3.69855E+001	11	...........	5.94386E-002	-3.88111E-003	5.63779E-001	6.52245E-001	-3.01646E-002	-3.94178E-002	6.50551E-001	-4.32069E-002	1.78188E-003	-1.16350E-004	1.69012E-002	1.95533E-002	-9.04289E-004	-1.18169E-003	1.95025E-002	-1.29528E-003
	55	55	1.10111E+000	2.99410E-002	0.00000E+000	3.29682E-002	2.98740E-001	3.52897E-002	3.70925E+001	11	...........	5.88400E-002	-3.90819E-003	5.63638E-001	6.52262E-001	-3.01486E-002	-3.94117E-002	6.50435E-001	-4.31507E-002	1.76173E-003	-1.17015E-004	1.68759E-002	1.95294E-002	-9.02679E-004	-1.18002E-003	1.94747E-002	-1.29197E-003
	56	56	1.10110E+000	2.95960E-002	0.00000E+000	3.25881E-002	2.95314E-001	3.55566E-002	3.72949E+001	11	...........	5.92685E-002	-3.92111E-003	5.63685E-001	6.52355E-001	-3.01154E-002	-3.94382E-002	6.50377E-001	-4.31568E-002	1.75411E-003	-1.16049E-004	1.66828E-002	1.93071E-002	-8.91297E-004	-1.16721E-003	1.92486E-002	-1.27727E-003
	57	57	1.10104E+000	2.97968E-002	0.00000E+000	3.28076E-002	2.97305E-001	3.55999E-002	3.73290E+001	11	...........	5.93414E-002	-3.96042E-003	5.63713E-001	6.52475E-001	-3.01236E-002	-3.94571E-002	6.50538E-001	-4.31358E-002	1.76819E-003	-1.18008E-004	1.67969E-002	1.94417E-002	-8.97588E-004	-1.17570E-003	1.93840E-002	-1.28531E-003
	58	58	1.10111E+000	2.97528E-002	0.00000E+000	3.27610E-002	2.96872E-001	3.54442E-002	3.60170E+001	11	...........	5.90597E-002	-3.96250E-003	5.63719E-001	6.52338E-001	-3.01375E-002	-3.94344E-002	6.50688E-001	-4.31333E-002	1.75719E-003	-1.17896E-004	1.67722E-002	1.94089E-002	-8.96676E-004	-1.17329E-003	1.93598E-002	-1.28334E-003
	59	59	1.10110E+000	2.93644E-002	0.00000E+000	3.23331E-002	2.93008E-001	3.49481E-002	3.58523E+001	11	...........	5.82599E-002	-3.80083E-003	5.63516E-001	6.52289E-001	-3.01493E-002	-3.94178E-002	6.50568E-001	-4.31617E-002	1.71077E-003	-1.11609E-004	1.65473E-002	1.91541E-002	-8.85317E-004	-1.15748E-003	1.91036E-002	-1.26742E-003
	60	60	1.10104E+000	2.95187E-002	0.00000E+000	3.25014E-002	2.94542E-001	3.57295E-002	3.74580E+001	11	...........	5.95507E-002	-3.90111E-003	5.63661E-001	6.52229E-001	-3.01481E-002	-3.93985E-002	6.50762E-001	-4.31464E-002	1.75786E-003	-1.15156E-004	1.66385E-002	1.92530E-002	-8.89931E-004	-1.16299E-003	1.92097E-002	-1.27362E-003
	61	61	1.10110E+000	2.95330E-002	0.00000E+000	3.25188E-002	2.94684E-001	3.56327E-002	3.74732E+001	11	...........	5.93810E-002	-3.88056E-003	5.63835E-001	6.52276E-001	-3.01418E-002	-3.94003E-002	6.50691E-001	-4.31828E-002	1.75370E-003	-1.14604E-004	1.66517E-002	1.92637E-002	-8.90178E-004	-1.16361E-003	1.92169E-002	-1.27532E-003
	62	62	1.10110E+000	2.91557E-002	0.00000E+000	3.21034E-002	2.90934E-001	3.51175E-002	3.70705E+001	11	...........	5.85336E-002	-3.88708E-003	5.63793E-001	6.52195E-001	-3.01487E-002	-3.93757E-002	6.50626E-001	-4.31231E-002	1.70659E-003	-1.13331E-004	1.64378E-002	1.90152E-002	-8.79008E-004	-1.14803E-003	1.89695E-002	-1.25728E-003
	63	63	1.10104E+000	2.92418E-002	0.00000E+000	3.21965E-002	2.91788E-001	3.54010E-002	3.66720E+001	11	...........	5.90285E-002	-3.90972E-003	5.63788E-001	6.52104E-001	-3.01617E-002	-3.93953E-002	6.50620E-001	-4.31292E-002	1.72610E-003	-1.14327E-004	1.64862E-002	1.90687E-002	-8.81980E-004	-1.15199E-003	1.90253E-002	-1.26117E-003
	64	64	1.10110E+000	2.92630E-002	0.00000E+000	3.22214E-002	2.91999E-001	3.54437E-002	3.58590E+001	11	...........	5.90664E-002	-3.86361E-003	5.63774E-001	6.52140E-001	-3.01861E-002	-3.93772E-002	6.50667E-001	-4.31468E-002	1.72846E-003	-1.13061E-004	1.64977E-002	1.90836E-002	-8.83336E-004	-1.15230E-003	1.90405E-002	-1.26260E-003
	65	65	1.10111E+000	2.89370E-002	0.00000E+000	3.18628E-002	2.88761E-001	3.55335E-002	3.76574E+001	11	...........	5.92149E-002	-3.83069E-003	5.63756E-001	6.52243E-001	-3.01864E-002	-3.93937E-002	6.50607E-001	-4.31521E-002	1.71350E-003	-1.10849E-004	1.63134E-002	1.88740E-002	-8.73504E-004	-1.13994E-003	1.88266E-002	-1.24869E-003
	66	66	1.10104E+000	2.90194E-002	0.00000E+000	3.19516E-002	2.89580E-001	3.52114E-002	3.68470E+001	11	...........	5.86912E-002	-3.92347E-003	5.63939E-001	6.52321E-001	-3.01854E-002	-3.94096E-002	6.50634E-001	-4.31042E-002	1.70318E-003	-1.13857E-004	1.63652E-002	1.89299E-002	-8.75962E-004	-1.14364E-003	1.88810E-002	-1.25086E-003
	67	66.6683	1.10116E+000	2.89190E-002	0.00000E+000	3.18445E-002	2.88579E-001	3.56436E-002	3.53681E+001	11	...........	5.94077E-002	-3.85349E-003	5.63952E-001	6.52375E-001	-3.01590E-002	-3.93847E-002	6.50472E-001	-4.31052E-002	1.71801E-003	-1.11439E-004	1.63089E-002	1.88660E-002	-8.72168E-004	-1.13897E-003	1.88110E-002	-1.24656E-003
STARTTIMEOFFSET	QUANT	477701.8	Start Time Offset (s)
