EXPLAIN
TAG	PWR800_CHARGE
TITLE	LABEL	PWR Charge	Test Identifier
DATE	LABEL	10/15/2022	Date
TIME	LABEL	19:19:24	Time
NOTES	NOTES	1	Notes...
	
PSTAT	PSTAT	REF3000-21114	Potentiostat
CAPACITY	QUANT	5.30000E-002	Capacity (A-hr)
CELLTYPE	SELECTOR	1	Cell Type
WORKINGCONNECTION	SELECTOR	0	Working Connection
MAXCHARGETIME	VARIABLEANDUNITS	7.20000E+003	s	2.00000E+000	hour(s)	Max Charge Time
CHARGEMODE	MULTIPARAM	0	1.00000E-001	Charge Mode	Constant Current	Amp(s)
CHARGECURRENT	QUANT	0.1	Charge Current (A)
VOLTAGEFINISH	TWOPARAM	T	2.50000E-002	7.20000E+003	Voltage Finish	I (A) <	Max Time(s)
SAMPLETIME	QUANT	1.00000E+000	Sample Period (s)
CHARGESTOPAT1	MULTIPARAM	2	1.10000E+000	Stop At 1	|Voltage| > Limit	V
CHARGESTOPAT2	MULTIPARAM	0	0.00000E+000	Stop At 2	None	N/A
AESELECTOR	AESELECTOR	0x1	T	Set Limits	AE Channels
AESBHCSELECTOR	TOGGLE	F	Save Both Half Cells
IRCOMP	TOGGLE	F	IR Measure
EOC	QUANT	0.2791226	Open Circuit (V)
SEQUENCER	TOGGLE	TRUE	Run as Sequence
PSTATMODEL	IQUANT	5	Pstat Model
PSTATSECTION	LABEL	REF3000-21114	Pstat Section
PSTATSERIALNO	LABEL	21114	Pstat Serial Number
CTRLMODE	IQUANT	0	Control Mode
ELECTROMETER	IQUANT	0	RE=0 or CS=1
IESTAB	IQUANT	0	I/E Stability
CASPEED	IQUANT	4	Control Amp Speed
CONVENTION	IQUANT	1	Current Convention
ICHRANGE	IQUANT	2	Ich Range
ICHRANGEMODE	TOGGLE	T	Ich Auto Range
ICHOFFSETENABLE	TOGGLE	F	Ich Offset Enable
ICHOFFSET	QUANT	0	Ich Offset (V)
ICHFILTER	IQUANT	1	Ich Filter
VCHRANGE	IQUANT	3	Vch Range
VCHRANGEMODE	TOGGLE	T	Vch Auto Range
VCHOFFSETENABLE	TOGGLE	F	Vch Offset Enable
VCHOFFSET	QUANT	0	Vch Offset (V)
VCHFILTER	IQUANT	1	Vch Filter
ACHRANGE	IQUANT	2	Ach Range
ACHOFFSETENABLE	TOGGLE	F	Ach Offset Enable
ACHOFFSET	QUANT	0	Ach Offset (V)
ACHFILTER	IQUANT	1	Ach Filter
IERANGELOWERLIMIT	IQUANT	9	I/E Range Lower Limit
IERANGEMODE	TOGGLE	F	I/E AutoRange
IERANGE	IQUANT	9	I/E Range
POSFEEDENABLE	TOGGLE	F	Positive Feedback IR Comp
POSFEEDRESISTANCE	QUANT	0	Positive Feedback Resistance (ohm)
ACHSELECT	IQUANT	1	Ach Select
SENSECABLEID	IQUANT	13	Sense Cable ID
PWRCABLEID	IQUANT	13	Power Cable ID
DCCALDATE	LABEL		DC Calibration Date
ACCALDATE	LABEL		AC Calibration Date
THERMOSELECT	IQUANT	1	Thermo Select
FRAMEWORKVERSION	LABEL	7.8.6	Framework Version
INSTRUMENTVERSION	LABEL	4.50	Instrument Version
COMPLIANCEVOLTAGE	IQUANT	0	Compliance Voltage
CURVE	TABLE	100
	Pt	T	Vf	Im	Vu	Pwr	Sig	Ach	Temp	IERange	Over	Vf1	Vf2	Vf3	Vf4	Vf5	Vf6	Vf7	Vf8	Pwr1	Pwr2	Pwr3	Pwr4	Pwr5	Pwr6	Pwr7	Pwr8
	#	s	V	A	V	W	V	V	deg C	#	bits	V	V	V	V	V	V	V	V	W	W	W	W	W	W	W	W
	0	1	5.66212E-001	9.98673E-002	0.00000E+000	5.65461E-002	9.94000E-001	3.87105E-002	3.97219E+001	11	...........	6.41554E-002	-3.97778E-003	5.64946E-001	6.41997E-001	-2.92744E-002	-3.88785E-002	6.41073E-001	-4.28131E-002	6.40703E-003	-3.97250E-004	5.64196E-002	6.41145E-002	-2.92356E-003	-3.88269E-003	6.40222E-002	-4.27562E-003
	1	2	7.82015E-001	9.98682E-002	0.00000E+000	7.80984E-002	9.94000E-001	3.93145E-002	4.37873E+001	11	...........	6.51560E-002	-4.05181E-003	5.64903E-001	6.42015E-001	-2.93146E-002	-3.89065E-002	6.41022E-001	-4.27878E-002	6.50701E-003	-4.04646E-004	5.64158E-002	6.41169E-002	-2.92759E-003	-3.88552E-003	6.40177E-002	-4.27314E-003
	2	2.22833	1.04407E+000	9.98692E-002	0.00000E+000	1.04270E-001	9.94000E-001	4.02182E-002	4.89034E+001	11	...........	6.66466E-002	-4.25608E-003	5.65038E-001	6.41940E-001	-2.92981E-002	-3.89453E-002	6.41060E-001	-4.27518E-002	6.65594E-003	-4.25051E-004	5.64299E-002	6.41100E-002	-2.92597E-003	-3.88943E-003	6.40221E-002	-4.26959E-003
	3	3	1.10068E+000	6.70889E-002	0.00000E+000	7.38437E-002	6.68076E-001	3.95111E-002	4.97773E+001	11	...........	6.54635E-002	-4.24226E-003	5.65095E-001	6.41908E-001	-2.93569E-002	-3.89057E-002	6.41058E-001	-4.27770E-002	4.39187E-003	-2.84609E-004	3.79116E-002	4.30649E-002	-1.96952E-003	-2.61014E-003	4.30079E-002	-2.86986E-003
	4	4	1.10025E+000	4.96593E-002	0.00000E+000	5.46378E-002	4.94774E-001	3.93430E-002	4.74384E+001	11	...........	6.51957E-002	-4.12208E-003	5.65187E-001	6.42002E-001	-2.92883E-002	-3.89081E-002	6.41158E-001	-4.28507E-002	3.23757E-003	-2.04700E-004	2.80668E-002	3.18814E-002	-1.45444E-003	-1.93215E-003	3.18395E-002	-2.12794E-003
	5	5	1.10008E+000	4.40947E-002	0.00000E+000	4.85075E-002	4.39451E-001	3.91884E-002	4.70645E+001	11	...........	6.49455E-002	-3.96444E-003	5.65113E-001	6.41990E-001	-2.92621E-002	-3.89268E-002	6.41143E-001	-4.29640E-002	2.86376E-003	-1.74811E-004	2.49185E-002	2.83084E-002	-1.29030E-003	-1.71647E-003	2.82710E-002	-1.89449E-003
	6	6	1.10009E+000	4.14610E-002	0.00000E+000	4.56110E-002	4.13264E-001	3.93844E-002	4.72007E+001	11	...........	6.52522E-002	-3.93972E-003	5.64982E-001	6.42000E-001	-2.92868E-002	-3.89132E-002	6.41013E-001	-4.28158E-002	2.70542E-003	-1.63345E-004	2.34247E-002	2.66180E-002	-1.21426E-003	-1.61338E-003	2.65771E-002	-1.77519E-003
	7	7	1.10017E+000	3.94920E-002	0.00000E+000	4.34480E-002	3.93693E-001	3.93122E-002	4.85612E+001	11	...........	6.51251E-002	-3.92861E-003	5.65083E-001	6.41979E-001	-2.92812E-002	-3.89093E-002	6.40977E-001	-4.28196E-002	2.57192E-003	-1.55149E-004	2.23163E-002	2.53531E-002	-1.15638E-003	-1.53661E-003	2.53135E-002	-1.69103E-003
	8	8	1.10005E+000	3.81858E-002	0.00000E+000	4.20064E-002	3.80705E-001	3.92755E-002	4.66658E+001	11	...........	6.50719E-002	-3.96861E-003	5.64990E-001	6.42050E-001	-2.92693E-002	-3.89117E-002	6.40984E-001	-4.28615E-002	2.48482E-003	-1.51545E-004	2.15746E-002	2.45172E-002	-1.11767E-003	-1.48587E-003	2.44765E-002	-1.63670E-003
	9	9	1.10008E+000	3.75218E-002	0.00000E+000	4.12769E-002	3.74100E-001	3.92795E-002	4.49003E+001	11	...........	6.50993E-002	-3.85417E-003	5.64760E-001	6.42087E-001	-2.92758E-002	-3.89056E-002	6.41005E-001	-4.28017E-002	2.44264E-003	-1.44615E-004	2.11908E-002	2.40922E-002	-1.09848E-003	-1.45981E-003	2.40516E-002	-1.60600E-003
	10	10	1.10016E+000	3.67529E-002	0.00000E+000	4.04339E-002	3.66458E-001	3.91886E-002	4.70208E+001	11	...........	6.49436E-002	-3.74486E-003	5.64691E-001	6.42059E-001	-2.92736E-002	-3.88761E-002	6.40998E-001	-4.27178E-002	2.38686E-003	-1.37634E-004	2.07540E-002	2.35975E-002	-1.07589E-003	-1.42881E-003	2.35585E-002	-1.57000E-003
	11	11	1.10005E+000	3.61870E-002	0.00000E+000	3.98075E-002	3.60828E-001	3.92560E-002	4.69740E+001	11	...........	6.50351E-002	-3.81875E-003	5.64694E-001	6.42008E-001	-2.92742E-002	-3.88982E-002	6.41061E-001	-4.27744E-002	2.35343E-003	-1.38189E-004	2.04346E-002	2.32324E-002	-1.05935E-003	-1.40761E-003	2.31981E-002	-1.54788E-003
	12	12	1.10007E+000	3.60046E-002	0.00000E+000	3.96076E-002	3.59013E-001	3.92119E-002	4.70487E+001	11	...........	6.49532E-002	-3.71250E-003	5.64695E-001	6.41790E-001	-2.92822E-002	-3.88882E-002	6.41130E-001	-4.27185E-002	2.33861E-003	-1.33667E-004	2.03316E-002	2.31074E-002	-1.05429E-003	-1.40015E-003	2.30836E-002	-1.53806E-003
	13	13	1.10015E+000	3.55474E-002	0.00000E+000	3.91076E-002	3.54471E-001	3.94168E-002	4.51525E+001	11	...........	6.53004E-002	-3.76458E-003	5.64707E-001	6.41865E-001	-2.92843E-002	-3.88647E-002	6.41031E-001	-4.28593E-002	2.32126E-003	-1.33821E-004	2.00739E-002	2.28166E-002	-1.04098E-003	-1.38154E-003	2.27870E-002	-1.52354E-003
	14	14	1.10005E+000	3.52324E-002	0.00000E+000	3.87573E-002	3.51337E-001	3.89279E-002	4.55066E+001	11	...........	6.45101E-002	-3.78083E-003	5.64681E-001	6.41798E-001	-2.92621E-002	-3.88972E-002	6.41142E-001	-4.29110E-002	2.27285E-003	-1.33208E-004	1.98951E-002	2.26121E-002	-1.03097E-003	-1.37044E-003	2.25890E-002	-1.51186E-003
	15	15	1.10007E+000	3.52227E-002	0.00000E+000	3.87475E-002	3.51241E-001	3.91883E-002	4.52628E+001	11	...........	6.49296E-002	-3.84208E-003	5.64774E-001	6.41709E-001	-2.92575E-002	-3.89264E-002	6.41133E-001	-4.28743E-002	2.28699E-003	-1.35328E-004	1.98928E-002	2.26027E-002	-1.03053E-003	-1.37109E-003	2.25824E-002	-1.51015E-003
	16	16	1.10015E+000	3.49096E-002	0.00000E+000	3.84057E-002	3.48129E-001	3.92886E-002	4.74990E+001	11	...........	6.51000E-002	-3.83847E-003	5.64743E-001	6.41623E-001	-2.92356E-002	-3.88750E-002	6.41325E-001	-4.27753E-002	2.27261E-003	-1.34000E-004	1.97150E-002	2.23988E-002	-1.02060E-003	-1.35711E-003	2.23884E-002	-1.49327E-003
	17	17	1.10005E+000	3.46746E-002	0.00000E+000	3.81438E-002	3.45791E-001	3.92162E-002	4.62297E+001	11	...........	6.49786E-002	-3.85542E-003	5.64755E-001	6.41544E-001	-2.92137E-002	-3.88446E-002	6.41194E-001	-4.26424E-002	2.25311E-003	-1.33685E-004	1.95827E-002	2.22453E-002	-1.01298E-003	-1.34692E-003	2.22332E-002	-1.47861E-003
	18	18	1.10007E+000	3.46885E-002	0.00000E+000	3.81598E-002	3.45932E-001	3.90801E-002	4.49051E+001	11	...........	6.47547E-002	-3.86736E-003	5.64714E-001	6.41426E-001	-2.92218E-002	-3.88365E-002	6.41120E-001	-4.26740E-002	2.24625E-003	-1.34153E-004	1.95891E-002	2.22501E-002	-1.01366E-003	-1.34718E-003	2.22395E-002	-1.48030E-003
	19	19	1.10015E+000	3.44435E-002	0.00000E+000	3.78929E-002	3.43497E-001	3.88844E-002	4.60892E+001	11	...........	6.44387E-002	-3.78819E-003	5.64803E-001	6.41296E-001	-2.92465E-002	-3.88483E-002	6.41158E-001	-4.27525E-002	2.21949E-003	-1.30479E-004	1.94538E-002	2.20885E-002	-1.00735E-003	-1.33807E-003	2.20837E-002	-1.47254E-003
	20	20	1.10005E+000	3.42436E-002	0.00000E+000	3.76697E-002	3.41509E-001	3.90845E-002	4.66070E+001	11	...........	6.50328E-002	-3.89236E-003	5.64950E-001	6.41162E-001	-2.92310E-002	-3.88710E-002	6.41190E-001	-4.27572E-002	2.22695E-003	-1.33288E-004	1.93459E-002	2.19557E-002	-1.00097E-003	-1.33108E-003	2.19566E-002	-1.46416E-003
	21	21	1.10007E+000	3.42858E-002	0.00000E+000	3.77167E-002	3.41927E-001	3.87649E-002	4.56023E+001	11	...........	6.46593E-002	-3.93889E-003	5.64849E-001	6.41211E-001	-2.92308E-002	-3.88518E-002	6.41198E-001	-4.30154E-002	2.21690E-003	-1.35048E-004	1.93663E-002	2.19844E-002	-1.00220E-003	-1.33206E-003	2.19840E-002	-1.47482E-003
	22	22	1.10014E+000	3.40908E-002	0.00000E+000	3.75048E-002	3.39988E-001	3.86652E-002	4.45453E+001	11	...........	6.45340E-002	-3.91514E-003	5.64688E-001	6.41345E-001	-2.92240E-002	-3.88499E-002	6.41191E-001	-4.30100E-002	2.20002E-003	-1.33470E-004	1.92507E-002	2.18640E-002	-9.96270E-004	-1.32442E-003	2.18587E-002	-1.46624E-003
	23	23	1.10005E+000	3.38993E-002	0.00000E+000	3.72911E-002	3.38081E-001	3.88173E-002	4.74389E+001	11	...........	6.47824E-002	-3.85222E-003	5.64804E-001	6.41231E-001	-2.92247E-002	-3.88589E-002	6.41188E-001	-4.29654E-002	2.19608E-003	-1.30588E-004	1.91465E-002	2.17373E-002	-9.90699E-004	-1.31729E-003	2.17359E-002	-1.45650E-003
	24	24	1.10007E+000	3.39591E-002	0.00000E+000	3.73573E-002	3.38681E-001	3.86487E-002	4.64243E+001	11	...........	6.44978E-002	-3.80847E-003	5.64706E-001	6.41162E-001	-2.92147E-002	-3.88531E-002	6.41274E-001	-4.29664E-002	2.19029E-003	-1.29332E-004	1.91769E-002	2.17733E-002	-9.92107E-004	-1.31942E-003	2.17771E-002	-1.45910E-003
	25	25	1.10014E+000	3.37642E-002	0.00000E+000	3.71454E-002	3.36736E-001	3.86537E-002	4.55333E+001	11	...........	6.45019E-002	-3.74167E-003	5.64545E-001	6.41006E-001	-2.92336E-002	-3.88082E-002	6.41185E-001	-4.30774E-002	2.17786E-003	-1.26334E-004	1.90614E-002	2.16431E-002	-9.87049E-004	-1.31033E-003	2.16491E-002	-1.45447E-003
	26	26	1.10006E+000	3.35960E-002	0.00000E+000	3.69575E-002	3.35068E-001	3.88317E-002	4.68093E+001	11	...........	6.47831E-002	-3.81097E-003	5.64442E-001	6.40782E-001	-2.92393E-002	-3.88062E-002	6.41291E-001	-4.28857E-002	2.17645E-003	-1.28033E-004	1.89630E-002	2.15277E-002	-9.82324E-004	-1.30373E-003	2.15448E-002	-1.44079E-003
	27	27	1.10007E+000	3.36537E-002	0.00000E+000	3.70213E-002	3.35643E-001	3.83905E-002	4.49876E+001	11	...........	6.40514E-002	-3.81347E-003	5.64384E-001	6.40465E-001	-2.92278E-002	-3.87935E-002	6.41201E-001	-4.27554E-002	2.15557E-003	-1.28338E-004	1.89936E-002	2.15540E-002	-9.83624E-004	-1.30555E-003	2.15788E-002	-1.43888E-003
	28	28	1.10014E+000	3.35277E-002	0.00000E+000	3.68853E-002	3.34391E-001	3.86525E-002	4.60402E+001	11	...........	6.44911E-002	-3.83681E-003	5.64391E-001	6.40353E-001	-2.92293E-002	-3.88000E-002	6.41270E-001	-4.28151E-002	2.16224E-003	-1.28639E-004	1.89227E-002	2.14696E-002	-9.79992E-004	-1.30088E-003	2.15003E-002	-1.43549E-003
	29	29	1.10006E+000	3.32927E-002	0.00000E+000	3.66239E-002	3.32057E-001	3.87206E-002	4.63130E+001	11	...........	6.46172E-002	-3.85833E-003	5.64467E-001	6.40247E-001	-2.92540E-002	-3.88043E-002	6.41253E-001	-4.29096E-002	2.15128E-003	-1.28454E-004	1.87927E-002	2.13156E-002	-9.73946E-004	-1.29190E-003	2.13491E-002	-1.42858E-003
	30	30	1.10007E+000	3.33682E-002	0.00000E+000	3.67072E-002	3.32802E-001	3.85418E-002	4.62864E+001	11	...........	6.42997E-002	-3.92208E-003	5.64377E-001	6.40324E-001	-2.92294E-002	-3.87832E-002	6.41246E-001	-4.29044E-002	2.14556E-003	-1.30873E-004	1.88322E-002	2.13664E-002	-9.75333E-004	-1.29412E-003	2.13972E-002	-1.43164E-003
	31	31	1.10014E+000	3.32435E-002	0.00000E+000	3.65724E-002	3.31566E-001	3.85009E-002	4.49542E+001	11	...........	6.42199E-002	-3.83611E-003	5.64456E-001	6.40376E-001	-2.92392E-002	-3.87922E-002	6.41211E-001	-4.28899E-002	2.13489E-003	-1.27526E-004	1.87645E-002	2.12883E-002	-9.72011E-004	-1.28959E-003	2.13161E-002	-1.42581E-003
	32	32	1.10006E+000	3.30434E-002	0.00000E+000	3.63498E-002	3.29576E-001	3.87439E-002	4.64891E+001	11	...........	6.46146E-002	-3.86403E-003	5.64435E-001	6.40372E-001	-2.92119E-002	-3.88129E-002	6.41218E-001	-4.28357E-002	2.13508E-003	-1.27681E-004	1.86508E-002	2.11600E-002	-9.65261E-004	-1.28251E-003	2.11880E-002	-1.41544E-003
	33	33	1.10006E+000	3.31421E-002	0.00000E+000	3.64584E-002	3.30555E-001	3.85697E-002	4.66701E+001	11	...........	6.43539E-002	-3.80708E-003	5.64400E-001	6.40389E-001	-2.92281E-002	-3.87744E-002	6.41091E-001	-4.27118E-002	2.13282E-003	-1.26175E-004	1.87054E-002	2.12238E-002	-9.68679E-004	-1.28507E-003	2.12471E-002	-1.41556E-003
	34	34	1.10014E+000	3.29933E-002	0.00000E+000	3.62972E-002	3.29078E-001	3.84621E-002	4.55919E+001	11	...........	6.41753E-002	-3.84403E-003	5.64437E-001	6.40369E-001	-2.92081E-002	-3.87514E-002	6.41150E-001	-4.27281E-002	2.11735E-003	-1.26827E-004	1.86226E-002	2.11279E-002	-9.63669E-004	-1.27853E-003	2.11536E-002	-1.40974E-003
	35	35	1.10006E+000	3.27419E-002	0.00000E+000	3.60182E-002	3.26580E-001	3.85205E-002	4.62561E+001	11	...........	6.42762E-002	-3.81556E-003	5.64436E-001	6.40334E-001	-2.92472E-002	-3.87399E-002	6.41065E-001	-4.27628E-002	2.10452E-003	-1.24928E-004	1.84807E-002	2.09657E-002	-9.57609E-004	-1.26842E-003	2.09897E-002	-1.40013E-003
	36	36	1.10006E+000	3.28534E-002	0.00000E+000	3.61408E-002	3.27686E-001	3.85021E-002	4.58791E+001	11	...........	6.42617E-002	-3.89847E-003	5.64508E-001	6.40290E-001	-2.92532E-002	-3.87508E-002	6.41023E-001	-4.27567E-002	2.11121E-003	-1.28078E-004	1.85460E-002	2.10357E-002	-9.61066E-004	-1.27310E-003	2.10598E-002	-1.40470E-003
	37	37	1.10014E+000	3.27343E-002	0.00000E+000	3.60123E-002	3.26505E-001	3.84615E-002	4.68067E+001	11	...........	6.41754E-002	-3.87569E-003	5.64471E-001	6.40360E-001	-2.92306E-002	-3.87192E-002	6.40936E-001	-4.28079E-002	2.10074E-003	-1.26868E-004	1.84776E-002	2.09618E-002	-9.56843E-004	-1.26745E-003	2.09806E-002	-1.40129E-003
	38	38	1.10007E+000	3.24754E-002	0.00000E+000	3.57251E-002	3.23933E-001	3.85095E-002	4.56370E+001	11	...........	6.42636E-002	-3.84028E-003	5.64424E-001	6.40308E-001	-2.91942E-002	-3.87187E-002	6.40922E-001	-4.27663E-002	2.08699E-003	-1.24715E-004	1.83299E-002	2.07943E-002	-9.48093E-004	-1.25741E-003	2.08142E-002	-1.38885E-003
	39	39	1.10006E+000	3.26140E-002	0.00000E+000	3.58775E-002	3.25308E-001	3.85326E-002	4.55965E+001	11	...........	6.43011E-002	-3.87139E-003	5.64327E-001	6.40430E-001	-2.91853E-002	-3.87146E-002	6.40941E-001	-4.28869E-002	2.09712E-003	-1.26261E-004	1.84050E-002	2.08870E-002	-9.51849E-004	-1.26264E-003	2.09036E-002	-1.39871E-003
	40	40	1.10013E+000	3.24824E-002	0.00000E+000	3.57350E-002	3.24004E-001	3.81822E-002	4.54787E+001	11	...........	6.37024E-002	-3.85778E-003	5.64389E-001	6.40469E-001	-2.91956E-002	-3.87237E-002	6.40864E-001	-4.28125E-002	2.06920E-003	-1.25310E-004	1.83327E-002	2.08039E-002	-9.48341E-004	-1.25784E-003	2.08168E-002	-1.39065E-003
	41	41	1.10007E+000	3.22619E-002	0.00000E+000	3.54903E-002	3.21815E-001	3.85941E-002	4.65546E+001	11	...........	6.43983E-002	-3.92986E-003	5.64473E-001	6.40415E-001	-2.92072E-002	-3.87167E-002	6.40883E-001	-4.27936E-002	2.07761E-003	-1.26785E-004	1.82110E-002	2.06610E-002	-9.42281E-004	-1.24907E-003	2.06761E-002	-1.38060E-003
	42	42	1.10006E+000	3.23793E-002	0.00000E+000	3.56193E-002	3.22977E-001	3.82942E-002	4.60990E+001	11	...........	6.38997E-002	-3.97208E-003	5.64362E-001	6.40504E-001	-2.92143E-002	-3.87286E-002	6.40994E-001	-4.27993E-002	2.06903E-003	-1.28613E-004	1.82737E-002	2.07391E-002	-9.45939E-004	-1.25401E-003	2.07550E-002	-1.38581E-003
	43	43	1.10013E+000	3.22697E-002	0.00000E+000	3.55010E-002	3.21887E-001	3.84457E-002	4.56896E+001	11	...........	6.41439E-002	-3.93389E-003	5.64365E-001	6.40497E-001	-2.92092E-002	-3.87187E-002	6.41078E-001	-4.28424E-002	2.06991E-003	-1.26946E-004	1.82119E-002	2.06687E-002	-9.42572E-004	-1.24944E-003	2.06874E-002	-1.38251E-003
	44	44	1.10007E+000	3.20012E-002	0.00000E+000	3.52036E-002	3.19220E-001	3.83869E-002	4.60116E+001	11	...........	6.40511E-002	-3.91319E-003	5.64386E-001	6.40543E-001	-2.91875E-002	-3.86974E-002	6.40970E-001	-4.27871E-002	2.04971E-003	-1.25227E-004	1.80611E-002	2.04982E-002	-9.34036E-004	-1.23836E-003	2.05118E-002	-1.36924E-003
	45	45	1.10006E+000	3.21142E-002	0.00000E+000	3.53276E-002	3.20339E-001	3.79870E-002	4.42401E+001	11	...........	6.33619E-002	-3.96444E-003	5.64494E-001	6.40573E-001	-2.91965E-002	-3.87035E-002	6.40962E-001	-4.28549E-002	2.03482E-003	-1.27315E-004	1.81282E-002	2.05715E-002	-9.37622E-004	-1.24293E-003	2.05840E-002	-1.37625E-003
	46	46	1.10013E+000	3.20645E-002	0.00000E+000	3.52752E-002	3.19846E-001	3.85873E-002	4.53962E+001	11	...........	6.43893E-002	-4.00097E-003	5.64633E-001	6.40514E-001	-2.92061E-002	-3.87194E-002	6.40995E-001	-4.28300E-002	2.06461E-003	-1.28289E-004	1.81047E-002	2.05378E-002	-9.36479E-004	-1.24152E-003	2.05532E-002	-1.37332E-003
	47	47	1.10007E+000	3.18091E-002	0.00000E+000	3.49923E-002	3.17307E-001	3.83421E-002	4.65419E+001	11	...........	6.39797E-002	-3.96472E-003	5.64821E-001	6.40530E-001	-2.92137E-002	-3.87275E-002	6.41060E-001	-4.28156E-002	2.03514E-003	-1.26114E-004	1.79664E-002	2.03747E-002	-9.29262E-004	-1.23189E-003	2.03915E-002	-1.36192E-003
	48	48	1.10006E+000	3.19235E-002	0.00000E+000	3.51178E-002	3.18438E-001	3.82431E-002	4.59169E+001	11	...........	6.38182E-002	-3.97139E-003	5.64929E-001	6.40521E-001	-2.92240E-002	-3.87208E-002	6.41024E-001	-4.27756E-002	2.03730E-003	-1.26781E-004	1.80345E-002	2.04477E-002	-9.32933E-004	-1.23610E-003	2.04637E-002	-1.36554E-003
	49	49	1.10013E+000	3.18244E-002	0.00000E+000	3.50110E-002	3.17451E-001	3.80953E-002	4.50792E+001	11	...........	6.35474E-002	-3.99000E-003	5.64878E-001	6.40528E-001	-2.92456E-002	-3.87353E-002	6.40884E-001	-4.28632E-002	2.02236E-003	-1.26979E-004	1.79769E-002	2.03844E-002	-9.30723E-004	-1.23273E-003	2.03958E-002	-1.36410E-003
	50	50	1.10007E+000	3.15535E-002	0.00000E+000	3.47113E-002	3.14763E-001	3.84004E-002	4.49366E+001	11	...........	6.40801E-002	-3.89708E-003	5.64863E-001	6.40589E-001	-2.92775E-002	-3.87153E-002	6.40873E-001	-4.28712E-002	2.02196E-003	-1.22967E-004	1.78234E-002	2.02129E-002	-9.23809E-004	-1.22160E-003	2.02218E-002	-1.35274E-003
	51	51	1.10006E+000	3.17149E-002	0.00000E+000	3.48884E-002	3.16366E-001	3.83334E-002	4.62709E+001	11	...........	6.39700E-002	-3.93194E-003	5.64953E-001	6.40660E-001	-2.92999E-002	-3.87111E-002	6.40852E-001	-4.30606E-002	2.02880E-003	-1.24701E-004	1.79174E-002	2.03185E-002	-9.29243E-004	-1.22772E-003	2.03246E-002	-1.36566E-003
	52	52	1.10013E+000	3.15966E-002	0.00000E+000	3.47603E-002	3.15186E-001	3.82461E-002	4.62811E+001	11	...........	6.38254E-002	-4.03056E-003	5.64844E-001	6.40708E-001	-2.92817E-002	-3.87235E-002	6.40919E-001	-4.29251E-002	2.01667E-003	-1.27352E-004	1.78472E-002	2.02442E-002	-9.25201E-004	-1.22353E-003	2.02509E-002	-1.35629E-003
	53	53	1.10008E+000	3.12924E-002	0.00000E+000	3.44240E-002	3.12165E-001	3.79812E-002	4.39665E+001	11	...........	6.33515E-002	-4.00583E-003	5.64889E-001	6.40602E-001	-2.92774E-002	-3.87444E-002	6.40909E-001	-4.29976E-002	1.98242E-003	-1.25352E-004	1.76767E-002	2.00459E-002	-9.16158E-004	-1.21241E-003	2.00556E-002	-1.34550E-003
	54	54	1.10006E+000	3.14425E-002	0.00000E+000	3.45887E-002	3.13657E-001	3.83127E-002	4.68615E+001	11	...........	6.40382E-002	-3.95611E-003	5.64924E-001	6.40337E-001	-2.92651E-002	-3.87868E-002	6.41063E-001	-4.29335E-002	2.01352E-003	-1.24390E-004	1.77626E-002	2.01338E-002	-9.20171E-004	-1.21956E-003	2.01567E-002	-1.34994E-003
	55	55	1.10013E+000	3.13904E-002	0.00000E+000	3.45334E-002	3.13140E-001	3.83217E-002	4.54961E+001	11	...........	6.39462E-002	-3.92431E-003	5.64804E-001	6.40218E-001	-2.92886E-002	-3.87803E-002	6.41013E-001	-4.28122E-002	2.00730E-003	-1.23186E-004	1.77294E-002	2.00967E-002	-9.19381E-004	-1.21733E-003	2.01217E-002	-1.34389E-003
	56	56	1.10008E+000	3.10947E-002	0.00000E+000	3.42067E-002	3.10200E-001	3.81217E-002	4.54067E+001	11	...........	6.35822E-002	-3.79125E-003	5.64677E-001	6.40263E-001	-2.92658E-002	-3.87697E-002	6.40965E-001	-4.28139E-002	1.97707E-003	-1.17888E-004	1.75585E-002	1.99088E-002	-9.10013E-004	-1.20553E-003	1.99306E-002	-1.33129E-003
	57	57	1.10006E+000	3.12231E-002	0.00000E+000	3.43473E-002	3.11477E-001	3.80446E-002	4.60497E+001	11	...........	6.34799E-002	-3.87153E-003	5.64708E-001	6.40451E-001	-2.92319E-002	-3.87672E-002	6.40988E-001	-4.28911E-002	1.98204E-003	-1.20881E-004	1.76320E-002	1.99969E-002	-9.12712E-004	-1.21043E-003	2.00136E-002	-1.33919E-003
	58	58	1.10012E+000	3.11915E-002	0.00000E+000	3.43145E-002	3.11159E-001	3.83315E-002	4.74992E+001	11	...........	6.39629E-002	-3.89444E-003	5.64869E-001	6.40448E-001	-2.92356E-002	-3.87937E-002	6.40974E-001	-4.30686E-002	1.99510E-003	-1.21474E-004	1.76191E-002	1.99766E-002	-9.11902E-004	-1.21004E-003	1.99930E-002	-1.34338E-003
	59	59	1.10008E+000	3.08563E-002	0.00000E+000	3.39445E-002	3.07827E-001	3.81497E-002	4.53631E+001	11	...........	6.36332E-002	-3.90944E-003	5.65011E-001	6.40402E-001	-2.92572E-002	-3.87835E-002	6.41015E-001	-4.27649E-002	1.96348E-003	-1.20631E-004	1.74341E-002	1.97604E-002	-9.02769E-004	-1.19671E-003	1.97793E-002	-1.31956E-003
	60	60	1.10006E+000	3.10007E-002	0.00000E+000	3.41026E-002	3.09265E-001	3.80530E-002	4.35457E+001	11	...........	6.34739E-002	-3.87889E-003	5.64991E-001	6.40272E-001	-2.92175E-002	-3.87567E-002	6.41073E-001	-4.28485E-002	1.96774E-003	-1.20248E-004	1.75151E-002	1.98489E-002	-9.05764E-004	-1.20149E-003	1.98737E-002	-1.32833E-003
	61	61	1.10012E+000	3.09963E-002	0.00000E+000	3.40997E-002	3.09222E-001	3.82342E-002	4.66353E+001	11	...........	6.38082E-002	-3.85444E-003	5.65001E-001	6.40229E-001	-2.92035E-002	-3.88099E-002	6.41063E-001	-4.28065E-002	1.97782E-003	-1.19474E-004	1.75130E-002	1.98448E-002	-9.05201E-004	-1.20296E-003	1.98706E-002	-1.32685E-003
	62	62	1.10008E+000	3.06717E-002	0.00000E+000	3.37415E-002	3.05998E-001	3.78701E-002	4.48366E+001	11	...........	6.32008E-002	-3.87083E-003	5.65074E-001	6.40305E-001	-2.92299E-002	-3.88187E-002	6.40996E-001	-4.28953E-002	1.93848E-003	-1.18725E-004	1.73318E-002	1.96392E-002	-8.96529E-004	-1.19064E-003	1.96604E-002	-1.31567E-003
	63	63	1.10006E+000	3.07860E-002	0.00000E+000	3.38664E-002	3.07135E-001	3.81783E-002	4.59056E+001	11	...........	6.37114E-002	-3.90833E-003	5.65174E-001	6.40092E-001	-2.92492E-002	-3.87790E-002	6.40885E-001	-4.29944E-002	1.96142E-003	-1.20322E-004	1.73994E-002	1.97059E-002	-9.00465E-004	-1.19385E-003	1.97303E-002	-1.32363E-003
	64	64	1.10012E+000	3.07475E-002	0.00000E+000	3.38260E-002	3.06747E-001	3.81040E-002	4.50286E+001	11	...........	6.35832E-002	-3.87028E-003	5.65242E-001	6.39959E-001	-2.92365E-002	-3.88092E-002	6.40858E-001	-4.28108E-002	1.95503E-003	-1.19001E-004	1.73798E-002	1.96771E-002	-8.98951E-004	-1.19329E-003	1.97048E-002	-1.31633E-003
	65	65	1.10009E+000	3.04453E-002	0.00000E+000	3.34925E-002	3.03745E-001	3.78184E-002	4.54607E+001	11	...........	6.31062E-002	-3.79708E-003	5.65220E-001	6.39860E-001	-2.92387E-002	-3.88200E-002	6.40768E-001	-4.27160E-002	1.92129E-003	-1.15604E-004	1.72083E-002	1.94808E-002	-8.90184E-004	-1.18189E-003	1.95084E-002	-1.30050E-003
	66	66	1.10006E+000	3.05911E-002	0.00000E+000	3.36520E-002	3.05192E-001	3.80974E-002	4.64247E+001	11	...........	6.35872E-002	-3.90611E-003	5.65307E-001	6.39821E-001	-2.92311E-002	-3.87992E-002	6.40793E-001	-4.27537E-002	1.94520E-003	-1.19492E-004	1.72934E-002	1.95729E-002	-8.94213E-004	-1.18691E-003	1.96026E-002	-1.30789E-003
	67	67	1.10012E+000	3.05596E-002	0.00000E+000	3.36191E-002	3.04879E-001	3.82818E-002	4.60848E+001	11	...........	6.38865E-002	-3.88278E-003	5.65354E-001	6.39715E-001	-2.92217E-002	-3.87768E-002	6.40843E-001	-4.27225E-002	1.95235E-003	-1.18656E-004	1.72770E-002	1.95494E-002	-8.93002E-004	-1.18500E-003	1.95839E-002	-1.30558E-003
	68	68	1.10009E+000	3.02079E-002	0.00000E+000	3.32315E-002	3.01385E-001	3.78187E-002	4.50165E+001	11	...........	6.31043E-002	-3.79236E-003	5.65247E-001	6.39888E-001	-2.92322E-002	-3.88254E-002	6.40832E-001	-4.28285E-002	1.90625E-003	-1.14559E-004	1.70749E-002	1.93297E-002	-8.83045E-004	-1.17284E-003	1.93582E-002	-1.29376E-003
	69	69	1.10006E+000	3.03319E-002	0.00000E+000	3.33668E-002	3.02618E-001	3.78812E-002	4.43264E+001	11	...........	6.31955E-002	-3.73028E-003	5.65257E-001	6.39973E-001	-2.92231E-002	-3.88387E-002	6.40796E-001	-4.30546E-002	1.91684E-003	-1.13146E-004	1.71453E-002	1.94116E-002	-8.86390E-004	-1.17805E-003	1.94365E-002	-1.30593E-003
	70	70	1.10012E+000	3.03798E-002	0.00000E+000	3.34213E-002	3.03087E-001	3.83437E-002	4.68551E+001	11	...........	6.39594E-002	-3.76556E-003	5.65188E-001	6.39886E-001	-2.92354E-002	-3.88182E-002	6.40882E-001	-4.29938E-002	1.94307E-003	-1.14397E-004	1.71703E-002	1.94396E-002	-8.88165E-004	-1.17929E-003	1.94698E-002	-1.30614E-003
	71	71	1.10009E+000	3.00543E-002	0.00000E+000	3.30625E-002	2.99856E-001	3.79455E-002	4.55691E+001	11	...........	6.33288E-002	-3.76569E-003	5.65088E-001	6.39769E-001	-2.92340E-002	-3.88342E-002	6.40913E-001	-4.30485E-002	1.90330E-003	-1.13175E-004	1.69833E-002	1.92278E-002	-8.78607E-004	-1.16713E-003	1.92622E-002	-1.29379E-003
	72	72	1.10006E+000	3.01311E-002	0.00000E+000	3.31459E-002	3.00617E-001	3.79325E-002	4.57339E+001	11	...........	6.32900E-002	-3.72333E-003	5.64868E-001	6.39671E-001	-2.92608E-002	-3.88087E-002	6.40868E-001	-4.31885E-002	1.90700E-003	-1.12188E-004	1.70201E-002	1.92740E-002	-8.81662E-004	-1.16935E-003	1.93101E-002	-1.30132E-003
	73	73	1.10011E+000	3.01091E-002	0.00000E+000	3.31234E-002	3.00402E-001	3.78032E-002	4.44016E+001	11	...........	6.30789E-002	-3.86958E-003	5.64849E-001	6.39621E-001	-2.92886E-002	-3.87872E-002	6.40786E-001	-4.29487E-002	1.89925E-003	-1.16510E-004	1.70071E-002	1.92584E-002	-8.81855E-004	-1.16785E-003	1.92935E-002	-1.29315E-003
	74	74	1.10010E+000	2.98571E-002	0.00000E+000	3.28457E-002	2.97899E-001	3.82484E-002	4.63574E+001	11	...........	6.38161E-002	-3.86472E-003	5.64997E-001	6.39566E-001	-2.92686E-002	-3.87775E-002	6.40855E-001	-4.28808E-002	1.90537E-003	-1.15389E-004	1.68692E-002	1.90956E-002	-8.73876E-004	-1.15778E-003	1.91341E-002	-1.28030E-003
	75	75	1.10006E+000	2.99676E-002	0.00000E+000	3.29661E-002	2.98997E-001	3.78191E-002	4.52432E+001	11	...........	6.31094E-002	-3.86986E-003	5.65070E-001	6.39488E-001	-2.92810E-002	-3.87993E-002	6.40908E-001	-4.29453E-002	1.89124E-003	-1.15971E-004	1.69338E-002	1.91639E-002	-8.77482E-004	-1.16272E-003	1.92065E-002	-1.28697E-003
	76	76	1.10011E+000	2.99374E-002	0.00000E+000	3.29345E-002	2.98700E-001	3.79675E-002	4.55142E+001	11	...........	6.33768E-002	-3.87667E-003	5.65146E-001	6.39435E-001	-2.93201E-002	-3.87817E-002	6.40882E-001	-4.28994E-002	1.89734E-003	-1.16057E-004	1.69190E-002	1.91430E-002	-8.77769E-004	-1.16102E-003	1.91864E-002	-1.28430E-003
	77	77	1.10010E+000	2.96083E-002	0.00000E+000	3.25721E-002	2.95428E-001	3.74964E-002	4.49427E+001	11	...........	6.25710E-002	-3.81153E-003	5.65036E-001	6.39418E-001	-2.93162E-002	-3.87643E-002	6.40923E-001	-4.30150E-002	1.85262E-003	-1.12853E-004	1.67297E-002	1.89321E-002	-8.68004E-004	-1.14774E-003	1.89766E-002	-1.27360E-003
	78	78	1.10006E+000	2.97749E-002	0.00000E+000	3.27540E-002	2.97085E-001	3.83778E-002	4.59631E+001	11	...........	6.40303E-002	-3.84042E-003	5.65067E-001	6.39538E-001	-2.93162E-002	-3.88021E-002	6.40971E-001	-4.29790E-002	1.90649E-003	-1.14348E-004	1.68248E-002	1.90422E-002	-8.72888E-004	-1.15533E-003	1.90848E-002	-1.27970E-003
	79	79	1.10011E+000	2.97567E-002	0.00000E+000	3.27356E-002	2.96905E-001	3.78288E-002	4.67323E+001	11	...........	6.31135E-002	-3.83083E-003	5.65062E-001	6.39539E-001	-2.93276E-002	-3.88260E-002	6.40961E-001	-4.29439E-002	1.87805E-003	-1.13993E-004	1.68144E-002	1.90306E-002	-8.72694E-004	-1.15533E-003	1.90729E-002	-1.27787E-003
	80	80	1.10010E+000	2.94317E-002	0.00000E+000	3.23779E-002	2.93675E-001	3.77130E-002	4.51255E+001	11	...........	6.29232E-002	-3.80222E-003	5.65104E-001	6.39438E-001	-2.93090E-002	-3.88008E-002	6.40936E-001	-4.28147E-002	1.85194E-003	-1.11906E-004	1.66320E-002	1.88198E-002	-8.62615E-004	-1.14198E-003	1.88639E-002	-1.26011E-003
	81	81	1.10006E+000	2.95385E-002	0.00000E+000	3.24940E-002	2.94734E-001	3.80478E-002	4.56718E+001	11	...........	6.35021E-002	-3.81153E-003	5.65150E-001	6.39448E-001	-2.92836E-002	-3.87850E-002	6.41062E-001	-4.29061E-002	1.87576E-003	-1.12587E-004	1.66937E-002	1.88884E-002	-8.64995E-004	-1.14565E-003	1.89360E-002	-1.26738E-003
	82	82	1.10011E+000	2.95451E-002	0.00000E+000	3.25027E-002	2.94796E-001	3.74992E-002	4.48105E+001	11	...........	6.25822E-002	-3.80000E-003	5.65338E-001	6.39661E-001	-2.92826E-002	-3.87735E-002	6.41081E-001	-4.28726E-002	1.84900E-003	-1.12271E-004	1.67030E-002	1.88988E-002	-8.65158E-004	-1.14557E-003	1.89408E-002	-1.26668E-003
	83	83	1.10010E+000	2.92435E-002	0.00000E+000	3.21709E-002	2.91800E-001	3.81967E-002	4.51861E+001	11	...........	6.37283E-002	-3.89236E-003	5.65399E-001	6.39571E-001	-2.92639E-002	-3.87364E-002	6.40987E-001	-4.29228E-002	1.86364E-003	-1.13826E-004	1.65342E-002	1.87033E-002	-8.55779E-004	-1.13279E-003	1.87447E-002	-1.25521E-003
	84	84	1.10005E+000	2.93729E-002	0.00000E+000	3.23117E-002	2.93087E-001	3.79148E-002	4.60359E+001	11	...........	6.32725E-002	-3.90292E-003	5.65420E-001	6.39593E-001	-2.92293E-002	-3.87378E-002	6.41046E-001	-4.30054E-002	1.85849E-003	-1.14640E-004	1.66080E-002	1.87867E-002	-8.58548E-004	-1.13784E-003	1.88294E-002	-1.26319E-003
	85	85	1.10010E+000	2.93482E-002	0.00000E+000	3.22861E-002	2.92841E-001	3.76619E-002	4.63320E+001	11	...........	6.28555E-002	-3.87694E-003	5.65388E-001	6.39477E-001	-2.92485E-002	-3.87676E-002	6.40974E-001	-4.29403E-002	1.84470E-003	-1.13781E-004	1.65931E-002	1.87675E-002	-8.58390E-004	-1.13776E-003	1.88114E-002	-1.26022E-003
	86	86	1.10011E+000	2.90408E-002	0.00000E+000	3.19480E-002	2.89785E-001	3.80592E-002	4.42349E+001	11	...........	6.34985E-002	-3.89722E-003	5.65454E-001	6.39395E-001	-2.92421E-002	-3.87569E-002	6.41070E-001	-4.30194E-002	1.84405E-003	-1.13178E-004	1.64212E-002	1.85685E-002	-8.49213E-004	-1.12553E-003	1.86172E-002	-1.24932E-003
	87	87	1.10005E+000	2.91004E-002	0.00000E+000	3.20120E-002	2.90381E-001	3.74749E-002	4.45186E+001	11	...........	6.25399E-002	-3.90528E-003	5.65536E-001	6.39396E-001	-2.92299E-002	-3.87446E-002	6.41165E-001	-4.29281E-002	1.81994E-003	-1.13645E-004	1.64573E-002	1.86067E-002	-8.50601E-004	-1.12748E-003	1.86582E-002	-1.24922E-003
	88	88	1.10010E+000	2.91639E-002	0.00000E+000	3.20833E-002	2.91008E-001	3.80247E-002	4.52659E+001	11	...........	6.34444E-002	-3.95278E-003	5.65734E-001	6.39419E-001	-2.92210E-002	-3.87378E-002	6.41072E-001	-4.29129E-002	1.85029E-003	-1.15278E-004	1.64990E-002	1.86479E-002	-8.52198E-004	-1.12974E-003	1.86962E-002	-1.25151E-003
	89	89	1.10011E+000	2.88475E-002	0.00000E+000	3.17355E-002	2.87861E-001	3.78794E-002	4.52857E+001	11	...........	6.32024E-002	-3.93681E-003	5.65652E-001	6.39408E-001	-2.91961E-002	-3.87489E-002	6.41028E-001	-4.30387E-002	1.82323E-003	-1.13567E-004	1.63177E-002	1.84453E-002	-8.42236E-004	-1.11781E-003	1.84921E-002	-1.24156E-003
	90	90	1.10005E+000	2.89325E-002	0.00000E+000	3.18273E-002	2.88707E-001	3.77812E-002	4.37718E+001	11	...........	6.30292E-002	-3.92431E-003	5.65665E-001	6.39297E-001	-2.91996E-002	-3.87883E-002	6.41054E-001	-4.29760E-002	1.82359E-003	-1.13540E-004	1.63661E-002	1.84965E-002	-8.44818E-004	-1.12224E-003	1.85473E-002	-1.24340E-003
	91	91	1.10010E+000	2.89643E-002	0.00000E+000	3.18635E-002	2.89024E-001	3.77189E-002	4.47002E+001	11	...........	6.29406E-002	-3.93583E-003	5.65625E-001	6.39153E-001	-2.92224E-002	-3.87586E-002	6.41203E-001	-4.28669E-002	1.82303E-003	-1.13999E-004	1.63829E-002	1.85126E-002	-8.46404E-004	-1.12261E-003	1.85720E-002	-1.24161E-003
	92	92	1.10011E+000	2.86806E-002	0.00000E+000	3.15519E-002	2.86204E-001	3.77864E-002	4.49675E+001	11	...........	6.30478E-002	-3.94972E-003	5.65529E-001	6.38994E-001	-2.92342E-002	-3.87614E-002	6.41334E-001	-4.28469E-002	1.80825E-003	-1.13280E-004	1.62197E-002	1.83267E-002	-8.38454E-004	-1.11170E-003	1.83938E-002	-1.22888E-003
	93	93	1.10005E+000	2.87474E-002	0.00000E+000	3.16237E-002	2.86870E-001	3.78760E-002	4.48473E+001	11	...........	6.32115E-002	-3.88264E-003	5.65538E-001	6.38885E-001	-2.92360E-002	-3.87693E-002	6.41374E-001	-4.26787E-002	1.81717E-003	-1.11616E-004	1.62577E-002	1.83663E-002	-8.40457E-004	-1.11452E-003	1.84378E-002	-1.22690E-003
	94	94	1.10010E+000	2.87846E-002	0.00000E+000	3.16658E-002	2.87240E-001	3.77188E-002	4.51910E+001	11	...........	6.29657E-002	-3.84208E-003	5.65449E-001	6.38779E-001	-2.92187E-002	-3.87787E-002	6.41283E-001	-4.28579E-002	1.81244E-003	-1.10593E-004	1.62762E-002	1.83870E-002	-8.41050E-004	-1.11623E-003	1.84591E-002	-1.23365E-003
	95	95	1.10012E+000	2.84605E-002	0.00000E+000	3.13099E-002	2.84021E-001	3.75783E-002	4.63461E+001	11	...........	6.27053E-002	-3.90764E-003	5.65474E-001	6.38921E-001	-2.92261E-002	-3.87617E-002	6.41402E-001	-4.29228E-002	1.78462E-003	-1.11213E-004	1.60937E-002	1.81840E-002	-8.31790E-004	-1.10318E-003	1.82546E-002	-1.22160E-003
	96	96	1.10005E+000	2.85561E-002	0.00000E+000	3.14132E-002	2.84968E-001	3.78132E-002	4.51765E+001	11	...........	6.30672E-002	-3.95139E-003	5.65497E-001	6.38917E-001	-2.92461E-002	-3.87797E-002	6.41285E-001	-4.30712E-002	1.80096E-003	-1.12836E-004	1.61484E-002	1.82450E-002	-8.35155E-004	-1.10740E-003	1.83126E-002	-1.22995E-003
	97	97	1.10010E+000	2.85821E-002	0.00000E+000	3.14431E-002	2.85228E-001	3.75833E-002	4.44253E+001	11	...........	6.27076E-002	-3.92167E-003	5.65349E-001	6.38961E-001	-2.92487E-002	-3.87831E-002	6.41359E-001	-4.30639E-002	1.79232E-003	-1.12090E-004	1.61589E-002	1.82629E-002	-8.35991E-004	-1.10850E-003	1.83314E-002	-1.23086E-003
	98	98	1.10012E+000	2.82716E-002	0.00000E+000	3.11021E-002	2.82141E-001	3.76402E-002	4.42050E+001	11	...........	6.27933E-002	-3.89542E-003	5.65265E-001	6.38744E-001	-2.92553E-002	-3.87762E-002	6.41315E-001	-4.30568E-002	1.77527E-003	-1.10130E-004	1.59809E-002	1.80583E-002	-8.27093E-004	-1.09627E-003	1.81310E-002	-1.21728E-003
	99	98.918	1.10010E+000	2.84342E-002	0.00000E+000	3.12804E-002	2.83762E-001	3.79176E-002	4.59548E+001	11	...........	6.32951E-002	-3.85405E-003	5.65288E-001	6.38636E-001	-2.92287E-002	-3.87775E-002	6.41459E-001	-4.30440E-002	1.79975E-003	-1.09587E-004	1.60735E-002	1.81591E-002	-8.31095E-004	-1.10261E-003	1.82394E-002	-1.22392E-003
STARTTIMEOFFSET	QUANT	774500.3	Start Time Offset (s)
