EXPLAIN
TAG	PWR800_CHARGE
TITLE	LABEL	PWR Charge	Test Identifier
DATE	LABEL	10/12/2022	Date
TIME	LABEL	5:42:38	Time
NOTES	NOTES	1	Notes...
	
PSTAT	PSTAT	REF3000-21114	Potentiostat
CAPACITY	QUANT	5.30000E-002	Capacity (A-hr)
CELLTYPE	SELECTOR	1	Cell Type
WORKINGCONNECTION	SELECTOR	0	Working Connection
MAXCHARGETIME	VARIABLEANDUNITS	7.20000E+003	s	2.00000E+000	hour(s)	Max Charge Time
CHARGEMODE	MULTIPARAM	0	1.00000E-001	Charge Mode	Constant Current	Amp(s)
CHARGECURRENT	QUANT	0.1	Charge Current (A)
VOLTAGEFINISH	TWOPARAM	T	2.50000E-002	7.20000E+003	Voltage Finish	I (A) <	Max Time(s)
SAMPLETIME	QUANT	1.00000E+000	Sample Period (s)
CHARGESTOPAT1	MULTIPARAM	2	1.10000E+000	Stop At 1	|Voltage| > Limit	V
CHARGESTOPAT2	MULTIPARAM	0	0.00000E+000	Stop At 2	None	N/A
AESELECTOR	AESELECTOR	0x1	T	Set Limits	AE Channels
AESBHCSELECTOR	TOGGLE	F	Save Both Half Cells
IRCOMP	TOGGLE	F	IR Measure
EOC	QUANT	0.2739035	Open Circuit (V)
SEQUENCER	TOGGLE	TRUE	Run as Sequence
PSTATMODEL	IQUANT	5	Pstat Model
PSTATSECTION	LABEL	REF3000-21114	Pstat Section
PSTATSERIALNO	LABEL	21114	Pstat Serial Number
CTRLMODE	IQUANT	0	Control Mode
ELECTROMETER	IQUANT	0	RE=0 or CS=1
IESTAB	IQUANT	0	I/E Stability
CASPEED	IQUANT	4	Control Amp Speed
CONVENTION	IQUANT	1	Current Convention
ICHRANGE	IQUANT	2	Ich Range
ICHRANGEMODE	TOGGLE	T	Ich Auto Range
ICHOFFSETENABLE	TOGGLE	F	Ich Offset Enable
ICHOFFSET	QUANT	0	Ich Offset (V)
ICHFILTER	IQUANT	1	Ich Filter
VCHRANGE	IQUANT	3	Vch Range
VCHRANGEMODE	TOGGLE	T	Vch Auto Range
VCHOFFSETENABLE	TOGGLE	F	Vch Offset Enable
VCHOFFSET	QUANT	0	Vch Offset (V)
VCHFILTER	IQUANT	1	Vch Filter
ACHRANGE	IQUANT	2	Ach Range
ACHOFFSETENABLE	TOGGLE	F	Ach Offset Enable
ACHOFFSET	QUANT	0	Ach Offset (V)
ACHFILTER	IQUANT	1	Ach Filter
IERANGELOWERLIMIT	IQUANT	9	I/E Range Lower Limit
IERANGEMODE	TOGGLE	F	I/E AutoRange
IERANGE	IQUANT	9	I/E Range
POSFEEDENABLE	TOGGLE	F	Positive Feedback IR Comp
POSFEEDRESISTANCE	QUANT	0	Positive Feedback Resistance (ohm)
ACHSELECT	IQUANT	1	Ach Select
SENSECABLEID	IQUANT	13	Sense Cable ID
PWRCABLEID	IQUANT	13	Power Cable ID
DCCALDATE	LABEL		DC Calibration Date
ACCALDATE	LABEL		AC Calibration Date
THERMOSELECT	IQUANT	1	Thermo Select
FRAMEWORKVERSION	LABEL	7.8.6	Framework Version
INSTRUMENTVERSION	LABEL	4.50	Instrument Version
COMPLIANCEVOLTAGE	IQUANT	0	Compliance Voltage
CURVE	TABLE	81
	Pt	T	Vf	Im	Vu	Pwr	Sig	Ach	Temp	IERange	Over	Vf1	Vf2	Vf3	Vf4	Vf5	Vf6	Vf7	Vf8	Pwr1	Pwr2	Pwr3	Pwr4	Pwr5	Pwr6	Pwr7	Pwr8
	#	s	V	A	V	W	V	V	deg C	#	bits	V	V	V	V	V	V	V	V	W	W	W	W	W	W	W	W
	0	1	5.34595E-001	9.98524E-002	0.00000E+000	5.33806E-002	9.94000E-001	3.59033E-002	3.35562E+001	11	...........	5.96161E-002	-3.99583E-003	5.63264E-001	6.54002E-001	-3.00639E-002	-3.94139E-002	6.50918E-001	-4.30732E-002	5.95281E-003	-3.98994E-004	5.62432E-002	6.53037E-002	-3.00195E-003	-3.93557E-003	6.49957E-002	-4.30096E-003
	1	2	8.03034E-001	9.98530E-002	0.00000E+000	8.01854E-002	9.94000E-001	3.66616E-002	3.64236E+001	11	...........	6.08761E-002	-4.04153E-003	5.63362E-001	6.54012E-001	-3.00768E-002	-3.94410E-002	6.50885E-001	-4.30733E-002	6.07866E-003	-4.03559E-004	5.62534E-002	6.53051E-002	-3.00326E-003	-3.93830E-003	6.49929E-002	-4.30100E-003
	2	2.18333	1.06876E+000	9.98533E-002	0.00000E+000	1.06719E-001	9.94000E-001	3.79850E-002	3.93510E+001	11	...........	6.30864E-002	-4.10151E-003	5.63579E-001	6.53842E-001	-3.00833E-002	-3.94470E-002	6.51001E-001	-4.29758E-002	6.29938E-003	-4.09550E-004	5.62752E-002	6.52883E-002	-3.00392E-003	-3.93891E-003	6.50045E-002	-4.29127E-003
	3	3	1.10093E+000	6.92758E-002	0.00000E+000	7.62679E-002	6.89959E-001	3.65335E-002	4.06431E+001	11	...........	6.06432E-002	-4.13844E-003	5.63603E-001	6.54010E-001	-3.01090E-002	-3.94514E-002	6.50954E-001	-4.30502E-002	4.20110E-003	-2.86693E-004	3.90440E-002	4.53070E-002	-2.08582E-003	-2.73302E-003	4.50953E-002	-2.98233E-003
	4	4	1.10036E+000	5.35502E-002	0.00000E+000	5.89247E-002	5.33587E-001	3.65607E-002	3.96671E+001	11	...........	6.06971E-002	-4.18194E-003	5.63754E-001	6.53991E-001	-3.01046E-002	-3.94407E-002	6.50884E-001	-4.31799E-002	3.25034E-003	-2.23944E-004	3.01891E-002	3.50214E-002	-1.61211E-003	-2.11206E-003	3.48550E-002	-2.31229E-003
	5	5	1.10036E+000	4.77437E-002	0.00000E+000	5.25351E-002	4.75857E-001	3.66755E-002	3.84964E+001	11	...........	6.08718E-002	-3.83806E-003	5.63527E-001	6.53930E-001	-3.01025E-002	-3.94335E-002	6.50925E-001	-4.31354E-002	2.90624E-003	-1.83243E-004	2.69048E-002	3.12210E-002	-1.43720E-003	-1.88270E-003	3.10775E-002	-2.05944E-003
	6	6	1.10044E+000	4.41179E-002	0.00000E+000	4.85492E-002	4.39811E-001	3.61423E-002	3.79874E+001	11	...........	6.00257E-002	-3.92611E-003	5.63585E-001	6.53922E-001	-3.00794E-002	-3.94479E-002	6.50838E-001	-4.31308E-002	2.64821E-003	-1.73212E-004	2.48642E-002	2.88497E-002	-1.32704E-003	-1.74036E-003	2.87136E-002	-1.90284E-003
	7	7	1.10029E+000	4.17631E-002	0.00000E+000	4.59514E-002	4.16395E-001	3.65953E-002	3.86170E+001	11	...........	6.07643E-002	-3.98097E-003	5.63709E-001	6.53935E-001	-3.00787E-002	-3.94454E-002	6.50912E-001	-4.30806E-002	2.53770E-003	-1.66258E-004	2.35422E-002	2.73104E-002	-1.25618E-003	-1.64736E-003	2.71841E-002	-1.79918E-003
	8	8	1.10033E+000	4.03174E-002	0.00000E+000	4.43623E-002	4.02019E-001	3.64293E-002	3.76744E+001	11	...........	6.04960E-002	-3.88514E-003	5.63770E-001	6.54013E-001	-3.00940E-002	-3.94640E-002	6.50826E-001	-4.30661E-002	2.43904E-003	-1.56639E-004	2.27297E-002	2.63681E-002	-1.21331E-003	-1.59109E-003	2.62396E-002	-1.73631E-003
	9	9	1.10043E+000	3.87201E-002	0.00000E+000	4.26086E-002	3.86140E-001	3.62561E-002	3.89579E+001	11	...........	6.01983E-002	-3.93625E-003	5.63705E-001	6.54076E-001	-3.00771E-002	-3.94418E-002	6.51021E-001	-4.31212E-002	2.33088E-003	-1.52412E-004	2.18267E-002	2.53259E-002	-1.16459E-003	-1.52719E-003	2.52076E-002	-1.66966E-003
	10	10	1.10028E+000	3.76565E-002	0.00000E+000	4.14327E-002	3.75567E-001	3.64846E-002	3.83288E+001	11	...........	6.05924E-002	-3.88736E-003	5.63758E-001	6.54023E-001	-3.01015E-002	-3.94400E-002	6.51074E-001	-4.30729E-002	2.28170E-003	-1.46385E-004	2.12292E-002	2.46282E-002	-1.13352E-003	-1.48517E-003	2.45172E-002	-1.62198E-003
	11	11	1.10032E+000	3.71576E-002	0.00000E+000	4.08851E-002	3.70606E-001	3.66822E-002	3.68368E+001	11	...........	6.09117E-002	-3.90097E-003	5.63758E-001	6.54149E-001	-3.00978E-002	-3.94181E-002	6.51095E-001	-4.30593E-002	2.26333E-003	-1.44951E-004	2.09479E-002	2.43066E-002	-1.11836E-003	-1.46468E-003	2.41931E-002	-1.59998E-003
	12	12	1.10041E+000	3.63282E-002	0.00000E+000	3.99761E-002	3.62360E-001	3.59575E-002	3.80757E+001	11	...........	5.96944E-002	-3.86806E-003	5.63613E-001	6.54355E-001	-3.00989E-002	-3.93867E-002	6.50899E-001	-4.31042E-002	2.16859E-003	-1.40520E-004	2.04751E-002	2.37716E-002	-1.09344E-003	-1.43085E-003	2.36460E-002	-1.56590E-003
	13	13	1.10028E+000	3.58013E-002	0.00000E+000	3.93915E-002	3.57119E-001	3.65487E-002	3.76615E+001	11	...........	6.06850E-002	-3.85764E-003	5.63738E-001	6.54440E-001	-3.01122E-002	-3.93868E-002	6.50880E-001	-4.31085E-002	2.17260E-003	-1.38108E-004	2.01825E-002	2.34298E-002	-1.07806E-003	-1.41010E-003	2.33023E-002	-1.54334E-003
	14	14	1.10031E+000	3.56789E-002	0.00000E+000	3.92580E-002	3.55899E-001	3.61544E-002	3.73874E+001	11	...........	6.00444E-002	-3.90403E-003	5.63601E-001	6.54367E-001	-3.01231E-002	-3.93931E-002	6.50805E-001	-4.31387E-002	2.14232E-003	-1.39291E-004	2.01086E-002	2.33471E-002	-1.07476E-003	-1.40550E-003	2.32200E-002	-1.53914E-003
	15	15	1.10040E+000	3.52658E-002	0.00000E+000	3.88066E-002	3.51797E-001	3.63957E-002	3.63959E+001	11	...........	6.04465E-002	-3.97278E-003	5.63598E-001	6.54210E-001	-3.01312E-002	-3.94007E-002	6.50906E-001	-4.30724E-002	2.13170E-003	-1.40103E-004	1.98757E-002	2.30712E-002	-1.06260E-003	-1.38950E-003	2.29547E-002	-1.51898E-003
	16	16	1.10028E+000	3.49608E-002	0.00000E+000	3.84668E-002	3.48763E-001	3.62832E-002	3.89361E+001	11	...........	6.02400E-002	-3.96097E-003	5.63555E-001	6.54243E-001	-3.00971E-002	-3.93944E-002	6.50929E-001	-4.30886E-002	2.10604E-003	-1.38479E-004	1.97023E-002	2.28729E-002	-1.05222E-003	-1.37726E-003	2.27570E-002	-1.50641E-003
	17	17	1.10031E+000	3.50177E-002	0.00000E+000	3.85303E-002	3.49331E-001	3.61391E-002	3.74978E+001	11	...........	6.00112E-002	-4.09528E-003	5.63843E-001	6.54300E-001	-3.01132E-002	-3.93839E-002	6.51004E-001	-4.31958E-002	2.10145E-003	-1.43407E-004	1.97445E-002	2.29121E-002	-1.05449E-003	-1.37913E-003	2.27966E-002	-1.51262E-003
	18	18	1.10040E+000	3.46717E-002	0.00000E+000	3.81529E-002	3.45891E-001	3.64612E-002	3.74646E+001	11	...........	6.05608E-002	-3.93139E-003	5.63741E-001	6.54381E-001	-3.00869E-002	-3.93969E-002	6.51007E-001	-4.32712E-002	2.09975E-003	-1.36308E-004	1.95459E-002	2.26885E-002	-1.04317E-003	-1.36596E-003	2.25715E-002	-1.50029E-003
	19	19	1.10029E+000	3.44360E-002	0.00000E+000	3.78895E-002	3.43547E-001	3.60122E-002	3.66864E+001	11	...........	5.97854E-002	-3.79444E-003	5.63643E-001	6.54559E-001	-3.00669E-002	-3.93943E-002	6.50986E-001	-4.31840E-002	2.05877E-003	-1.30665E-004	1.94096E-002	2.25404E-002	-1.03538E-003	-1.35658E-003	2.24173E-002	-1.48708E-003
	20	20	1.10031E+000	3.45453E-002	0.00000E+000	3.80105E-002	3.44637E-001	3.62152E-002	3.68622E+001	11	...........	6.03003E-002	-3.77778E-003	5.63761E-001	6.54570E-001	-3.00560E-002	-3.93869E-002	6.51094E-001	-4.31493E-002	2.08309E-003	-1.30504E-004	1.94753E-002	2.26123E-002	-1.03829E-003	-1.36063E-003	2.24922E-002	-1.49061E-003
	21	21	1.10040E+000	3.42441E-002	0.00000E+000	3.76821E-002	3.41644E-001	3.56842E-002	3.78358E+001	11	...........	5.95501E-002	-3.73069E-003	5.63847E-001	6.54319E-001	-3.00397E-002	-3.93950E-002	6.51120E-001	-4.31544E-002	2.03924E-003	-1.27754E-004	1.93084E-002	2.24065E-002	-1.02868E-003	-1.34904E-003	2.22970E-002	-1.47778E-003
	22	22	1.10029E+000	3.40720E-002	0.00000E+000	3.74891E-002	3.39931E-001	3.64039E-002	3.72597E+001	11	...........	6.07549E-002	-3.83417E-003	5.63821E-001	6.54278E-001	-3.00712E-002	-3.94010E-002	6.51107E-001	-4.30931E-002	2.07004E-003	-1.30638E-004	1.92105E-002	2.22925E-002	-1.02459E-003	-1.34247E-003	2.21845E-002	-1.46826E-003
	23	23	1.10031E+000	3.41722E-002	0.00000E+000	3.75999E-002	3.40929E-001	3.57583E-002	3.74348E+001	11	...........	5.96801E-002	-3.85889E-003	5.63712E-001	6.54259E-001	-3.00685E-002	-3.93889E-002	6.50892E-001	-4.30482E-002	2.03940E-003	-1.31867E-004	1.92633E-002	2.23575E-002	-1.02751E-003	-1.34601E-003	2.22425E-002	-1.47105E-003
	24	24	1.10040E+000	3.39318E-002	0.00000E+000	3.73385E-002	3.38537E-001	3.60232E-002	3.77295E+001	11	...........	6.01239E-002	-3.87931E-003	5.63687E-001	6.54381E-001	-3.00899E-002	-3.93893E-002	6.50967E-001	-4.30347E-002	2.04011E-003	-1.31632E-004	1.91269E-002	2.22043E-002	-1.02100E-003	-1.33655E-003	2.20885E-002	-1.46025E-003
	25	25	1.10029E+000	3.36557E-002	0.00000E+000	3.70311E-002	3.35795E-001	3.57738E-002	3.68415E+001	11	...........	5.97181E-002	-3.91083E-003	5.63790E-001	6.54443E-001	-3.00753E-002	-3.93987E-002	6.50998E-001	-4.30892E-002	2.00985E-003	-1.31622E-004	1.89747E-002	2.20257E-002	-1.01220E-003	-1.32599E-003	2.19098E-002	-1.45019E-003
	26	26	1.10031E+000	3.38290E-002	0.00000E+000	3.72223E-002	3.37519E-001	3.57508E-002	3.70387E+001	11	...........	5.96749E-002	-3.95458E-003	5.63848E-001	6.54291E-001	-3.00769E-002	-3.93625E-002	6.50989E-001	-4.31919E-002	2.01874E-003	-1.33779E-004	1.90744E-002	2.21340E-002	-1.01747E-003	-1.33159E-003	2.20223E-002	-1.46114E-003
	27	27	1.10040E+000	3.36035E-002	0.00000E+000	3.69772E-002	3.35275E-001	3.58316E-002	3.76522E+001	11	...........	5.98104E-002	-3.97542E-003	5.63983E-001	6.54321E-001	-3.00647E-002	-3.93737E-002	6.51111E-001	-4.32132E-002	2.00984E-003	-1.33588E-004	1.89518E-002	2.19875E-002	-1.01028E-003	-1.32310E-003	2.18796E-002	-1.45212E-003
	28	28	1.10030E+000	3.33593E-002	0.00000E+000	3.67051E-002	3.32848E-001	3.60962E-002	3.68336E+001	11	...........	6.02410E-002	-3.96736E-003	5.63896E-001	6.54376E-001	-3.00968E-002	-3.93764E-002	6.51132E-001	-4.30808E-002	2.00960E-003	-1.32349E-004	1.88112E-002	2.18295E-002	-1.00401E-003	-1.31357E-003	2.17213E-002	-1.43715E-003
	29	29	1.10031E+000	3.34861E-002	0.00000E+000	3.68450E-002	3.34107E-001	3.54407E-002	3.75583E+001	11	...........	5.91640E-002	-3.93944E-003	5.63784E-001	6.54332E-001	-3.00969E-002	-3.93628E-002	6.51002E-001	-4.31311E-002	1.98117E-003	-1.31917E-004	1.88789E-002	2.19110E-002	-1.00783E-003	-1.31811E-003	2.17995E-002	-1.44429E-003
	30	30	1.10039E+000	3.32425E-002	0.00000E+000	3.65798E-002	3.31683E-001	3.61931E-002	3.60492E+001	11	...........	6.03935E-002	-3.99333E-003	5.63799E-001	6.54210E-001	-3.00942E-002	-3.93624E-002	6.51043E-001	-4.30725E-002	2.00763E-003	-1.32748E-004	1.87421E-002	2.17476E-002	-1.00041E-003	-1.30850E-003	2.16423E-002	-1.43184E-003
	31	31	1.10030E+000	3.30059E-002	0.00000E+000	3.63163E-002	3.29333E-001	3.52452E-002	3.73218E+001	11	...........	5.88031E-002	-3.84181E-003	5.63552E-001	6.54244E-001	-3.00999E-002	-3.93637E-002	6.50906E-001	-4.30587E-002	1.94085E-003	-1.26802E-004	1.86005E-002	2.15939E-002	-9.93472E-004	-1.29923E-003	2.14837E-002	-1.42119E-003
	32	32	1.10031E+000	3.32034E-002	0.00000E+000	3.65339E-002	3.31295E-001	3.60939E-002	3.70396E+001	11	...........	6.02319E-002	-3.98958E-003	5.63783E-001	6.54148E-001	-3.01054E-002	-3.93701E-002	6.50882E-001	-4.29756E-002	1.99990E-003	-1.32468E-004	1.87195E-002	2.17199E-002	-9.99602E-004	-1.30722E-003	2.16115E-002	-1.42693E-003
	33	33	1.10039E+000	3.30482E-002	0.00000E+000	3.63659E-002	3.29751E-001	3.56621E-002	3.68013E+001	11	...........	5.95128E-002	-3.96750E-003	5.63731E-001	6.54108E-001	-3.01258E-002	-3.93806E-002	6.50931E-001	-4.29886E-002	1.96679E-003	-1.31119E-004	1.86303E-002	2.16171E-002	-9.95603E-004	-1.30145E-003	2.15121E-002	-1.42069E-003
	34	34	1.10030E+000	3.27609E-002	0.00000E+000	3.60469E-002	3.26898E-001	3.58752E-002	3.69897E+001	11	...........	5.98719E-002	-3.92681E-003	5.63629E-001	6.54095E-001	-3.01449E-002	-3.93654E-002	6.50964E-001	-4.30040E-002	1.96146E-003	-1.28646E-004	1.84650E-002	2.14287E-002	-9.87573E-004	-1.28965E-003	2.13262E-002	-1.40885E-003
	35	35	1.10031E+000	3.29535E-002	0.00000E+000	3.62589E-002	3.28812E-001	3.57753E-002	3.72729E+001	11	...........	5.97110E-002	-3.93458E-003	5.63541E-001	6.54102E-001	-3.01532E-002	-3.93690E-002	6.50960E-001	-4.29985E-002	1.96769E-003	-1.29658E-004	1.85707E-002	2.15550E-002	-9.93654E-004	-1.29735E-003	2.14514E-002	-1.41695E-003
	36	36	1.10039E+000	3.27031E-002	0.00000E+000	3.59862E-002	3.26323E-001	3.56285E-002	3.75826E+001	11	...........	5.94572E-002	-3.87583E-003	5.63532E-001	6.53951E-001	-3.01206E-002	-3.93644E-002	6.50828E-001	-4.31035E-002	1.94444E-003	-1.26752E-004	1.84293E-002	2.13863E-002	-9.85036E-004	-1.28734E-003	2.12841E-002	-1.40962E-003
	37	37	1.10031E+000	3.24346E-002	0.00000E+000	3.56880E-002	3.23655E-001	3.57898E-002	3.68059E+001	11	...........	5.97144E-002	-3.84778E-003	5.63556E-001	6.53948E-001	-3.01062E-002	-3.93815E-002	6.50729E-001	-4.31387E-002	1.93682E-003	-1.24801E-004	1.82787E-002	2.12106E-002	-9.76486E-004	-1.27733E-003	2.11062E-002	-1.39919E-003
	38	38	1.10030E+000	3.26531E-002	0.00000E+000	3.59283E-002	3.25826E-001	3.58189E-002	3.76249E+001	11	...........	5.97796E-002	-3.90125E-003	5.63529E-001	6.53785E-001	-3.01149E-002	-3.93721E-002	6.50745E-001	-4.31300E-002	1.95199E-003	-1.27388E-004	1.84010E-002	2.13481E-002	-9.83345E-004	-1.28562E-003	2.12489E-002	-1.40833E-003
	39	39	1.10039E+000	3.24217E-002	0.00000E+000	3.56764E-002	3.23523E-001	3.54159E-002	3.69383E+001	11	...........	5.90936E-002	-4.05042E-003	5.63485E-001	6.53698E-001	-3.01056E-002	-3.93985E-002	6.50834E-001	-4.29144E-002	1.91591E-003	-1.31321E-004	1.82691E-002	2.11940E-002	-9.76073E-004	-1.27736E-003	2.11011E-002	-1.39136E-003
	40	40	1.10031E+000	3.21535E-002	0.00000E+000	3.53788E-002	3.20856E-001	3.59517E-002	3.69403E+001	11	...........	6.00024E-002	-4.12917E-003	5.63255E-001	6.53737E-001	-3.00997E-002	-3.94060E-002	6.50875E-001	-4.30589E-002	1.92928E-003	-1.32767E-004	1.81106E-002	2.10199E-002	-9.67810E-004	-1.26704E-003	2.09279E-002	-1.38449E-003
	41	41	1.10030E+000	3.23434E-002	0.00000E+000	3.55875E-002	3.22743E-001	3.58361E-002	3.64016E+001	11	...........	5.98189E-002	-4.04486E-003	5.63179E-001	6.53782E-001	-3.01018E-002	-3.93957E-002	6.50943E-001	-4.30185E-002	1.93475E-003	-1.30825E-004	1.82151E-002	2.11455E-002	-9.73595E-004	-1.27419E-003	2.10537E-002	-1.39136E-003
	42	42	1.10038E+000	3.21673E-002	0.00000E+000	3.53963E-002	3.20992E-001	3.53775E-002	3.62754E+001	11	...........	5.90349E-002	-3.97986E-003	5.63106E-001	6.53852E-001	-3.01024E-002	-3.93729E-002	6.50854E-001	-4.30192E-002	1.89899E-003	-1.28021E-004	1.81136E-002	2.10326E-002	-9.68311E-004	-1.26652E-003	2.09362E-002	-1.38381E-003
	43	43	1.10031E+000	3.19234E-002	0.00000E+000	3.51257E-002	3.18569E-001	3.59079E-002	3.54785E+001	11	...........	5.99247E-002	-4.00083E-003	5.63166E-001	6.53780E-001	-3.00660E-002	-3.93631E-002	6.50831E-001	-4.29497E-002	1.91300E-003	-1.27720E-004	1.79782E-002	2.08709E-002	-9.59809E-004	-1.25660E-003	2.07768E-002	-1.37110E-003
	44	44	1.10030E+000	3.20670E-002	0.00000E+000	3.52834E-002	3.19998E-001	3.57215E-002	3.72536E+001	11	...........	5.96165E-002	-3.90361E-003	5.63074E-001	6.53656E-001	-3.01050E-002	-3.93549E-002	6.50847E-001	-4.29912E-002	1.91173E-003	-1.25177E-004	1.80561E-002	2.09608E-002	-9.65378E-004	-1.26199E-003	2.08707E-002	-1.37860E-003
	45	45	1.10038E+000	3.19071E-002	0.00000E+000	3.51101E-002	3.18410E-001	3.56176E-002	3.60896E+001	11	...........	5.94407E-002	-3.89778E-003	5.63084E-001	6.53547E-001	-3.01064E-002	-3.93724E-002	6.50927E-001	-4.30772E-002	1.89658E-003	-1.24367E-004	1.79664E-002	2.08528E-002	-9.60609E-004	-1.25626E-003	2.07692E-002	-1.37447E-003
	46	46	1.10031E+000	3.16228E-002	0.00000E+000	3.47949E-002	3.15579E-001	3.57533E-002	3.57674E+001	11	...........	5.96619E-002	-3.80181E-003	5.62928E-001	6.53813E-001	-3.01090E-002	-3.93758E-002	6.50889E-001	-4.30690E-002	1.88668E-003	-1.20224E-004	1.78014E-002	2.06754E-002	-9.52132E-004	-1.24517E-003	2.05829E-002	-1.36196E-003
	47	47	1.10030E+000	3.17939E-002	0.00000E+000	3.49830E-002	3.17283E-001	3.53762E-002	3.62840E+001	11	...........	5.90439E-002	-3.83514E-003	5.63173E-001	6.53956E-001	-3.01374E-002	-3.93562E-002	6.50890E-001	-4.29561E-002	1.87724E-003	-1.21934E-004	1.79055E-002	2.07918E-002	-9.58185E-004	-1.25129E-003	2.06943E-002	-1.36574E-003
	48	48	1.10038E+000	3.17185E-002	0.00000E+000	3.49024E-002	3.16535E-001	3.59515E-002	3.63902E+001	11	...........	5.99943E-002	-3.78014E-003	5.63473E-001	6.53864E-001	-3.01264E-002	-3.93417E-002	6.50981E-001	-4.29175E-002	1.90293E-003	-1.19900E-004	1.78725E-002	2.07396E-002	-9.55564E-004	-1.24786E-003	2.06481E-002	-1.36128E-003
	49	49	1.10032E+000	3.13693E-002	0.00000E+000	3.45162E-002	3.13062E-001	3.53532E-002	3.63659E+001	11	...........	5.90129E-002	-3.73306E-003	5.63424E-001	6.53910E-001	-3.01189E-002	-3.93358E-002	6.51042E-001	-4.29550E-002	1.85119E-003	-1.17103E-004	1.76742E-002	2.05127E-002	-9.44807E-004	-1.23394E-003	2.04227E-002	-1.34747E-003
	50	50	1.10030E+000	3.15577E-002	0.00000E+000	3.47229E-002	3.14933E-001	3.57952E-002	3.65983E+001	11	...........	5.97410E-002	-3.90167E-003	5.63468E-001	6.54025E-001	-3.01333E-002	-3.93172E-002	6.51014E-001	-4.28776E-002	1.88529E-003	-1.23127E-004	1.77817E-002	2.06395E-002	-9.50937E-004	-1.24076E-003	2.05445E-002	-1.35312E-003
	51	51	1.10038E+000	3.14238E-002	0.00000E+000	3.45780E-002	3.13599E-001	3.53848E-002	3.63250E+001	11	...........	5.90531E-002	-3.90903E-003	5.63365E-001	6.54037E-001	-3.01139E-002	-3.93101E-002	6.51084E-001	-4.28417E-002	1.85567E-003	-1.22836E-004	1.77031E-002	2.05523E-002	-9.46292E-004	-1.23527E-003	2.04595E-002	-1.34625E-003
	52	52	1.10032E+000	3.10918E-002	0.00000E+000	3.42109E-002	3.10301E-001	3.58149E-002	3.56647E+001	11	...........	5.97582E-002	-4.02278E-003	5.63344E-001	6.54018E-001	-3.01339E-002	-3.93203E-002	6.51106E-001	-4.28839E-002	1.85799E-003	-1.25075E-004	1.75154E-002	2.03346E-002	-9.36917E-004	-1.22254E-003	2.02441E-002	-1.33334E-003
	53	53	1.10030E+000	3.13210E-002	0.00000E+000	3.44625E-002	3.12575E-001	3.54472E-002	3.76994E+001	11	...........	5.91426E-002	-4.11444E-003	5.63452E-001	6.53858E-001	-3.01304E-002	-3.93261E-002	6.50999E-001	-4.29504E-002	1.85241E-003	-1.28869E-004	1.76479E-002	2.04795E-002	-9.43715E-004	-1.23173E-003	2.03900E-002	-1.34525E-003
	54	54	1.10037E+000	3.11052E-002	0.00000E+000	3.42273E-002	3.10435E-001	3.55145E-002	3.61270E+001	11	...........	5.92481E-002	-4.09250E-003	5.63628E-001	6.53770E-001	-3.01090E-002	-3.93551E-002	6.50937E-001	-4.29694E-002	1.84292E-003	-1.27298E-004	1.75318E-002	2.03356E-002	-9.36547E-004	-1.22415E-003	2.02475E-002	-1.33657E-003
	55	55	1.10032E+000	3.08565E-002	0.00000E+000	3.39521E-002	3.07965E-001	3.55342E-002	3.58675E+001	11	...........	5.93010E-002	-3.93556E-003	5.63595E-001	6.53822E-001	-3.01064E-002	-3.93737E-002	6.50962E-001	-4.29925E-002	1.82982E-003	-1.21437E-004	1.73905E-002	2.01746E-002	-9.28977E-004	-1.21494E-003	2.00864E-002	-1.32660E-003
	56	56	1.10030E+000	3.10975E-002	0.00000E+000	3.42165E-002	3.10356E-001	3.62191E-002	3.68434E+001	11	...........	6.04500E-002	-3.92667E-003	5.63471E-001	6.53765E-001	-3.01190E-002	-3.93722E-002	6.50925E-001	-4.28844E-002	1.87984E-003	-1.22109E-004	1.75225E-002	2.03305E-002	-9.36626E-004	-1.22438E-003	2.02421E-002	-1.33360E-003
	57	57	1.10037E+000	3.08695E-002	0.00000E+000	3.39680E-002	3.08093E-001	3.51506E-002	3.54506E+001	11	...........	5.86500E-002	-3.96347E-003	5.63477E-001	6.53719E-001	-3.01132E-002	-3.93760E-002	6.50857E-001	-4.29908E-002	1.81050E-003	-1.22350E-004	1.73942E-002	2.01800E-002	-9.29579E-004	-1.21552E-003	2.00916E-002	-1.32710E-003
	58	58	1.10033E+000	3.05682E-002	0.00000E+000	3.36350E-002	3.05097E-001	3.55612E-002	3.44095E+001	11	...........	5.93279E-002	-3.86889E-003	5.63230E-001	6.53855E-001	-3.00933E-002	-3.93868E-002	6.50771E-001	-4.29951E-002	1.81355E-003	-1.18265E-004	1.72169E-002	1.99871E-002	-9.19898E-004	-1.20398E-003	1.98929E-002	-1.31428E-003
	59	59	1.10030E+000	3.07875E-002	0.00000E+000	3.38755E-002	3.07278E-001	3.53644E-002	3.68408E+001	11	...........	5.90147E-002	-3.84389E-003	5.63034E-001	6.54022E-001	-3.00883E-002	-3.94153E-002	6.50781E-001	-4.30999E-002	1.81692E-003	-1.18344E-004	1.73344E-002	2.01357E-002	-9.26346E-004	-1.21350E-003	2.00359E-002	-1.32694E-003
	60	60	1.10037E+000	3.06996E-002	0.00000E+000	3.37809E-002	3.06405E-001	3.57535E-002	3.72346E+001	11	...........	5.96715E-002	-3.91986E-003	5.62959E-001	6.53993E-001	-3.00856E-002	-3.94157E-002	6.50754E-001	-4.29557E-002	1.83189E-003	-1.20338E-004	1.72826E-002	2.00773E-002	-9.23616E-004	-1.21005E-003	1.99779E-002	-1.31872E-003
	61	61	1.10033E+000	3.03537E-002	0.00000E+000	3.33991E-002	3.02969E-001	3.55699E-002	3.67567E+001	11	...........	5.93624E-002	-3.85847E-003	5.63058E-001	6.54042E-001	-3.00844E-002	-3.94260E-002	6.50901E-001	-4.30418E-002	1.80187E-003	-1.17119E-004	1.70909E-002	1.98526E-002	-9.13174E-004	-1.19672E-003	1.97573E-002	-1.30648E-003
	62	62	1.10030E+000	3.05207E-002	0.00000E+000	3.35819E-002	3.04626E-001	3.55408E-002	3.58175E+001	11	...........	5.92925E-002	-3.91472E-003	5.62862E-001	6.54090E-001	-3.01033E-002	-3.94336E-002	6.50923E-001	-4.29931E-002	1.80965E-003	-1.19480E-004	1.71790E-002	1.99633E-002	-9.18776E-004	-1.20354E-003	1.98667E-002	-1.31218E-003
	63	63	1.10037E+000	3.04784E-002	0.00000E+000	3.35374E-002	3.04205E-001	3.53997E-002	3.63217E+001	11	...........	5.90654E-002	-4.00181E-003	5.62960E-001	6.54039E-001	-3.01204E-002	-3.94357E-002	6.50983E-001	-4.29831E-002	1.80022E-003	-1.21969E-004	1.71581E-002	1.99341E-002	-9.18022E-004	-1.20194E-003	1.98409E-002	-1.31005E-003
	64	64	1.10033E+000	3.01542E-002	0.00000E+000	3.31796E-002	3.00984E-001	3.56155E-002	3.62148E+001	11	...........	5.94375E-002	-4.06278E-003	5.63017E-001	6.54015E-001	-3.00950E-002	-3.94607E-002	6.51018E-001	-4.30840E-002	1.79229E-003	-1.22510E-004	1.69773E-002	1.97213E-002	-9.07489E-004	-1.18990E-003	1.96309E-002	-1.29916E-003
	65	65	1.10030E+000	3.03063E-002	0.00000E+000	3.33458E-002	3.02495E-001	3.51797E-002	3.60840E+001	11	...........	5.87012E-002	-3.98208E-003	5.62852E-001	6.53968E-001	-3.01064E-002	-3.94575E-002	6.51135E-001	-4.30756E-002	1.77901E-003	-1.20682E-004	1.70579E-002	1.98193E-002	-9.12412E-004	-1.19581E-003	1.97335E-002	-1.30546E-003
	66	66	1.10037E+000	3.02253E-002	0.00000E+000	3.32589E-002	3.01689E-001	3.54170E-002	3.61336E+001	11	...........	5.91058E-002	-4.13500E-003	5.62806E-001	6.53999E-001	-3.01481E-002	-3.94533E-002	6.51093E-001	-4.30414E-002	1.78649E-003	-1.24982E-004	1.70110E-002	1.97673E-002	-9.11234E-004	-1.19249E-003	1.96795E-002	-1.30094E-003
	67	67	1.10034E+000	2.99175E-002	0.00000E+000	3.29193E-002	2.98631E-001	3.55527E-002	3.63287E+001	11	...........	5.93333E-002	-3.99917E-003	5.62734E-001	6.54097E-001	-3.01747E-002	-3.94236E-002	6.51018E-001	-4.30642E-002	1.77511E-003	-1.19645E-004	1.68356E-002	1.95690E-002	-9.02753E-004	-1.17946E-003	1.94768E-002	-1.28837E-003
	68	68	1.10030E+000	3.00556E-002	0.00000E+000	3.30701E-002	3.00002E-001	3.54814E-002	3.66324E+001	11	...........	5.92042E-002	-3.88139E-003	5.62555E-001	6.54204E-001	-3.01779E-002	-3.94168E-002	6.51107E-001	-4.29758E-002	1.77942E-003	-1.16657E-004	1.69079E-002	1.96625E-002	-9.07015E-004	-1.18470E-003	1.95694E-002	-1.29166E-003
	69	69	1.10036E+000	2.99843E-002	0.00000E+000	3.29935E-002	2.99293E-001	3.52788E-002	3.68319E+001	11	...........	5.88611E-002	-3.88125E-003	5.62639E-001	6.54255E-001	-3.01743E-002	-3.93974E-002	6.50924E-001	-4.29771E-002	1.76491E-003	-1.16376E-004	1.68703E-002	1.96174E-002	-9.04754E-004	-1.18130E-003	1.95175E-002	-1.28864E-003
	70	70	1.10034E+000	2.96265E-002	0.00000E+000	3.25992E-002	2.95735E-001	3.55071E-002	3.48276E+001	11	...........	5.92675E-002	-3.85569E-003	5.62664E-001	6.54218E-001	-3.01528E-002	-3.93818E-002	6.50911E-001	-4.30757E-002	1.75589E-003	-1.14231E-004	1.66697E-002	1.93821E-002	-8.93320E-004	-1.16674E-003	1.92842E-002	-1.27618E-003
	71	71	1.10029E+000	2.97957E-002	0.00000E+000	3.27841E-002	2.97415E-001	3.51762E-002	3.66793E+001	11	...........	5.86865E-002	-3.86667E-003	5.62671E-001	6.54177E-001	-3.01412E-002	-3.93633E-002	6.50954E-001	-4.30379E-002	1.74861E-003	-1.15210E-004	1.67652E-002	1.94917E-002	-8.98080E-004	-1.17286E-003	1.93956E-002	-1.28235E-003
	72	72	1.10036E+000	2.97509E-002	0.00000E+000	3.27366E-002	2.96971E-001	3.56356E-002	3.51907E+001	11	...........	5.94603E-002	-3.89653E-003	5.62665E-001	6.54181E-001	-3.01357E-002	-3.93554E-002	6.50979E-001	-4.31028E-002	1.76900E-003	-1.15925E-004	1.67398E-002	1.94625E-002	-8.96563E-004	-1.17086E-003	1.93672E-002	-1.28235E-003
	73	73	1.10034E+000	2.93937E-002	0.00000E+000	3.23431E-002	2.93424E-001	3.52240E-002	3.68646E+001	11	...........	5.87864E-002	-3.86278E-003	5.62680E-001	6.54256E-001	-3.01412E-002	-3.93432E-002	6.50947E-001	-4.31233E-002	1.72795E-003	-1.13541E-004	1.65392E-002	1.92310E-002	-8.85963E-004	-1.15644E-003	1.91337E-002	-1.26755E-003
	74	74	1.10030E+000	2.95583E-002	0.00000E+000	3.25228E-002	2.95059E-001	3.53297E-002	3.72861E+001	11	...........	5.89700E-002	-3.90542E-003	5.62678E-001	6.54422E-001	-3.01522E-002	-3.93692E-002	6.50872E-001	-4.32729E-002	1.74305E-003	-1.15437E-004	1.66318E-002	1.93436E-002	-8.91247E-004	-1.16368E-003	1.92387E-002	-1.27907E-003
	75	75	1.10036E+000	2.95295E-002	0.00000E+000	3.24930E-002	2.94773E-001	3.55597E-002	3.62494E+001	11	...........	5.93458E-002	-3.99458E-003	5.62648E-001	6.54488E-001	-3.01621E-002	-3.93831E-002	6.50806E-001	-4.31887E-002	1.75245E-003	-1.17958E-004	1.66147E-002	1.93267E-002	-8.90672E-004	-1.16296E-003	1.92180E-002	-1.27534E-003
	76	76	1.10035E+000	2.92007E-002	0.00000E+000	3.21310E-002	2.91501E-001	3.53403E-002	3.65824E+001	11	...........	5.89735E-002	-3.96139E-003	5.62744E-001	6.54533E-001	-3.01390E-002	-3.93910E-002	6.50893E-001	-4.31719E-002	1.72207E-003	-1.15675E-004	1.64325E-002	1.91128E-002	-8.80080E-004	-1.15024E-003	1.90065E-002	-1.26065E-003
	77	77	1.10029E+000	2.93249E-002	0.00000E+000	3.22659E-002	2.92737E-001	3.53601E-002	3.44614E+001	11	...........	5.90222E-002	-3.93806E-003	5.62798E-001	6.54271E-001	-3.01543E-002	-3.94090E-002	6.50967E-001	-4.32711E-002	1.73082E-003	-1.15483E-004	1.65040E-002	1.91864E-002	-8.84271E-004	-1.15566E-003	1.90895E-002	-1.26892E-003
	78	78	1.10035E+000	2.92774E-002	0.00000E+000	3.22155E-002	2.92269E-001	3.48722E-002	3.70606E+001	11	...........	5.82064E-002	-3.83792E-003	5.62698E-001	6.54264E-001	-3.01508E-002	-3.93768E-002	6.50984E-001	-4.30861E-002	1.70413E-003	-1.12364E-004	1.64743E-002	1.91552E-002	-8.82738E-004	-1.15285E-003	1.90591E-002	-1.26145E-003
	79	79	1.10035E+000	2.89906E-002	0.00000E+000	3.19000E-002	2.89415E-001	3.58142E-002	3.63408E+001	11	...........	5.97622E-002	-3.92736E-003	5.63022E-001	6.54269E-001	-3.01392E-002	-3.93783E-002	6.51075E-001	-4.30979E-002	1.73255E-003	-1.13857E-004	1.63224E-002	1.89677E-002	-8.73754E-004	-1.14160E-003	1.88751E-002	-1.24944E-003
	80	79.5383	1.10036E+000	2.91415E-002	0.00000E+000	3.20663E-002	2.90916E-001	3.50175E-002	3.66171E+001	11	...........	5.84453E-002	-3.99690E-003	5.62978E-001	6.54218E-001	-3.01262E-002	-3.93684E-002	6.50981E-001	-4.31708E-002	1.70318E-003	-1.16476E-004	1.64060E-002	1.90649E-002	-8.77922E-004	-1.14726E-003	1.89706E-002	-1.25806E-003
STARTTIMEOFFSET	QUANT	466379.5	Start Time Offset (s)
