EXPLAIN
TAG	PWR800_CHARGE
TITLE	LABEL	PWR Charge	Test Identifier
DATE	LABEL	10/12/2022	Date
TIME	LABEL	20:17:36	Time
NOTES	NOTES	1	Notes...
	
PSTAT	PSTAT	REF3000-21114	Potentiostat
CAPACITY	QUANT	5.30000E-002	Capacity (A-hr)
CELLTYPE	SELECTOR	1	Cell Type
WORKINGCONNECTION	SELECTOR	0	Working Connection
MAXCHARGETIME	VARIABLEANDUNITS	7.20000E+003	s	2.00000E+000	hour(s)	Max Charge Time
CHARGEMODE	MULTIPARAM	0	1.00000E-001	Charge Mode	Constant Current	Amp(s)
CHARGECURRENT	QUANT	0.1	Charge Current (A)
VOLTAGEFINISH	TWOPARAM	T	2.50000E-002	7.20000E+003	Voltage Finish	I (A) <	Max Time(s)
SAMPLETIME	QUANT	1.00000E+000	Sample Period (s)
CHARGESTOPAT1	MULTIPARAM	2	1.10000E+000	Stop At 1	|Voltage| > Limit	V
CHARGESTOPAT2	MULTIPARAM	0	0.00000E+000	Stop At 2	None	N/A
AESELECTOR	AESELECTOR	0x1	T	Set Limits	AE Channels
AESBHCSELECTOR	TOGGLE	F	Save Both Half Cells
IRCOMP	TOGGLE	F	IR Measure
EOC	QUANT	0.2529474	Open Circuit (V)
SEQUENCER	TOGGLE	TRUE	Run as Sequence
PSTATMODEL	IQUANT	5	Pstat Model
PSTATSECTION	LABEL	REF3000-21114	Pstat Section
PSTATSERIALNO	LABEL	21114	Pstat Serial Number
CTRLMODE	IQUANT	0	Control Mode
ELECTROMETER	IQUANT	0	RE=0 or CS=1
IESTAB	IQUANT	0	I/E Stability
CASPEED	IQUANT	4	Control Amp Speed
CONVENTION	IQUANT	1	Current Convention
ICHRANGE	IQUANT	2	Ich Range
ICHRANGEMODE	TOGGLE	T	Ich Auto Range
ICHOFFSETENABLE	TOGGLE	F	Ich Offset Enable
ICHOFFSET	QUANT	0	Ich Offset (V)
ICHFILTER	IQUANT	1	Ich Filter
VCHRANGE	IQUANT	3	Vch Range
VCHRANGEMODE	TOGGLE	T	Vch Auto Range
VCHOFFSETENABLE	TOGGLE	F	Vch Offset Enable
VCHOFFSET	QUANT	0	Vch Offset (V)
VCHFILTER	IQUANT	1	Vch Filter
ACHRANGE	IQUANT	2	Ach Range
ACHOFFSETENABLE	TOGGLE	F	Ach Offset Enable
ACHOFFSET	QUANT	0	Ach Offset (V)
ACHFILTER	IQUANT	1	Ach Filter
IERANGELOWERLIMIT	IQUANT	9	I/E Range Lower Limit
IERANGEMODE	TOGGLE	F	I/E AutoRange
IERANGE	IQUANT	9	I/E Range
POSFEEDENABLE	TOGGLE	F	Positive Feedback IR Comp
POSFEEDRESISTANCE	QUANT	0	Positive Feedback Resistance (ohm)
ACHSELECT	IQUANT	1	Ach Select
SENSECABLEID	IQUANT	13	Sense Cable ID
PWRCABLEID	IQUANT	13	Power Cable ID
DCCALDATE	LABEL		DC Calibration Date
ACCALDATE	LABEL		AC Calibration Date
THERMOSELECT	IQUANT	1	Thermo Select
FRAMEWORKVERSION	LABEL	7.8.6	Framework Version
INSTRUMENTVERSION	LABEL	4.50	Instrument Version
COMPLIANCEVOLTAGE	IQUANT	0	Compliance Voltage
CURVE	TABLE	85
	Pt	T	Vf	Im	Vu	Pwr	Sig	Ach	Temp	IERange	Over	Vf1	Vf2	Vf3	Vf4	Vf5	Vf6	Vf7	Vf8	Pwr1	Pwr2	Pwr3	Pwr4	Pwr5	Pwr6	Pwr7	Pwr8
	#	s	V	A	V	W	V	V	deg C	#	bits	V	V	V	V	V	V	V	V	W	W	W	W	W	W	W	W
	0	1	5.41339E-001	9.98505E-002	0.00000E+000	5.40530E-002	9.94000E-001	4.08177E-002	4.12070E+001	11	...........	6.77949E-002	-4.07778E-003	5.61719E-001	6.38670E-001	-2.99982E-002	-3.94799E-002	6.47580E-001	-4.33317E-002	6.76935E-003	-4.07168E-004	5.60880E-002	6.37715E-002	-2.99534E-003	-3.94208E-003	6.46612E-002	-4.32669E-003
	1	2	8.04090E-001	9.98507E-002	0.00000E+000	8.02890E-002	9.94000E-001	4.14736E-002	4.55268E+001	11	...........	6.88722E-002	-4.29764E-003	5.61730E-001	6.38763E-001	-2.99939E-002	-3.95144E-002	6.47666E-001	-4.33211E-002	6.87694E-003	-4.29122E-004	5.60891E-002	6.37809E-002	-2.99491E-003	-3.94555E-003	6.46699E-002	-4.32564E-003
	2	2.14833	1.06201E+000	9.98512E-002	0.00000E+000	1.06043E-001	9.94000E-001	4.21022E-002	5.09239E+001	11	...........	6.99326E-002	-4.49625E-003	5.61824E-001	6.38698E-001	-3.00393E-002	-3.95047E-002	6.47629E-001	-4.33286E-002	6.98285E-003	-4.48956E-004	5.60988E-002	6.37748E-002	-2.99946E-003	-3.94459E-003	6.46665E-002	-4.32642E-003
	3	3	1.10087E+000	6.94083E-002	0.00000E+000	7.64092E-002	6.91273E-001	4.14956E-002	5.07432E+001	11	...........	6.89134E-002	-4.33350E-003	5.61920E-001	6.38662E-001	-2.99770E-002	-3.94941E-002	6.47437E-001	-4.33218E-002	4.78316E-003	-3.00780E-004	3.90019E-002	4.43284E-002	-2.08065E-003	-2.74122E-003	4.49375E-002	-3.00689E-003
	4	4	1.10051E+000	5.23143E-002	0.00000E+000	5.75724E-002	5.21278E-001	4.13678E-002	4.98080E+001	11	...........	6.87278E-002	-4.16708E-003	5.61747E-001	6.38662E-001	-2.99686E-002	-3.95119E-002	6.47513E-001	-4.33036E-002	3.59545E-003	-2.17998E-004	2.93874E-002	3.34111E-002	-1.56779E-003	-2.06704E-003	3.38742E-002	-2.26540E-003
	5	5	1.10038E+000	4.63687E-002	0.00000E+000	5.10233E-002	4.62161E-001	4.13595E-002	4.91850E+001	11	...........	6.87044E-002	-4.18514E-003	5.61725E-001	6.38570E-001	-2.99935E-002	-3.94725E-002	6.47399E-001	-4.33299E-002	3.18574E-003	-1.94059E-004	2.60465E-002	2.96097E-002	-1.39076E-003	-1.83029E-003	3.00191E-002	-2.00915E-003
	6	6	1.10036E+000	4.35190E-002	0.00000E+000	4.78864E-002	4.33820E-001	4.13458E-002	4.86812E+001	11	...........	6.86964E-002	-4.10833E-003	5.61670E-001	6.38594E-001	-3.00236E-002	-3.94971E-002	6.47515E-001	-4.33346E-002	2.98960E-003	-1.78791E-004	2.44434E-002	2.77910E-002	-1.30660E-003	-1.71887E-003	2.81792E-002	-1.88588E-003
	7	7	1.10044E+000	4.12777E-002	0.00000E+000	4.54236E-002	4.11527E-001	4.13375E-002	4.82787E+001	11	...........	6.86792E-002	-4.09667E-003	5.61603E-001	6.38514E-001	-3.00032E-002	-3.95297E-002	6.47417E-001	-4.34054E-002	2.83492E-003	-1.69101E-004	2.31817E-002	2.63564E-002	-1.23846E-003	-1.63170E-003	2.67239E-002	-1.79168E-003
	8	8	1.10036E+000	3.94138E-002	0.00000E+000	4.33693E-002	3.92994E-001	4.13228E-002	4.79415E+001	11	...........	6.86592E-002	-4.14222E-003	5.61795E-001	6.38491E-001	-2.99890E-002	-3.94981E-002	6.47294E-001	-4.34903E-002	2.70612E-003	-1.63261E-004	2.21425E-002	2.51654E-002	-1.18198E-003	-1.55677E-003	2.55123E-002	-1.71412E-003
	9	9	1.10034E+000	3.85879E-002	0.00000E+000	4.24597E-002	3.84788E-001	4.13037E-002	4.56885E+001	11	...........	6.86268E-002	-4.05681E-003	5.61861E-001	6.38248E-001	-2.99621E-002	-3.94424E-002	6.47465E-001	-4.33489E-002	2.64816E-003	-1.56543E-004	2.16810E-002	2.46286E-002	-1.15617E-003	-1.52200E-003	2.49843E-002	-1.67274E-003
	10	10	1.10042E+000	3.76630E-002	0.00000E+000	4.14452E-002	3.75599E-001	4.11060E-002	4.69861E+001	11	...........	6.82707E-002	-3.97986E-003	5.61744E-001	6.38184E-001	-2.99814E-002	-3.94447E-002	6.47503E-001	-4.33951E-002	2.57128E-003	-1.49894E-004	2.11570E-002	2.40360E-002	-1.12919E-003	-1.48561E-003	2.43869E-002	-1.63439E-003
	11	11	1.10036E+000	3.67717E-002	0.00000E+000	4.04620E-002	3.66737E-001	4.13553E-002	4.72400E+001	11	...........	6.87190E-002	-4.07333E-003	5.61820E-001	6.38326E-001	-2.99854E-002	-3.94685E-002	6.47554E-001	-4.34103E-002	2.52692E-003	-1.49784E-004	2.06591E-002	2.34724E-002	-1.10262E-003	-1.45132E-003	2.38117E-002	-1.59627E-003
	12	12	1.10033E+000	3.65822E-002	0.00000E+000	4.02525E-002	3.64850E-001	4.12961E-002	4.71897E+001	11	...........	6.86069E-002	-4.04514E-003	5.61884E-001	6.38411E-001	-2.99878E-002	-3.94824E-002	6.47578E-001	-4.33330E-002	2.50979E-003	-1.47980E-004	2.05549E-002	2.33545E-002	-1.09702E-003	-1.44435E-003	2.36898E-002	-1.58522E-003
	13	13	1.10041E+000	3.61677E-002	0.00000E+000	3.97994E-002	3.60732E-001	4.12789E-002	4.70913E+001	11	...........	6.85765E-002	-4.05278E-003	5.61938E-001	6.38450E-001	-3.00069E-002	-3.94776E-002	6.47628E-001	-4.33225E-002	2.48026E-003	-1.46580E-004	2.03240E-002	2.30913E-002	-1.08528E-003	-1.42782E-003	2.34232E-002	-1.56688E-003
	14	14	1.10036E+000	3.55688E-002	0.00000E+000	3.91384E-002	3.54771E-001	4.12584E-002	4.70208E+001	11	...........	6.85615E-002	-4.08556E-003	5.61865E-001	6.38602E-001	-3.00092E-002	-3.94478E-002	6.47633E-001	-4.33428E-002	2.43865E-003	-1.45318E-004	1.99848E-002	2.27143E-002	-1.06739E-003	-1.40311E-003	2.30355E-002	-1.54165E-003
	15	15	1.10033E+000	3.56087E-002	0.00000E+000	3.91812E-002	3.55165E-001	4.12385E-002	4.69460E+001	11	...........	6.85221E-002	-4.06972E-003	5.61963E-001	6.38554E-001	-3.00111E-002	-3.94114E-002	6.47600E-001	-4.33657E-002	2.43998E-003	-1.44917E-004	2.00108E-002	2.27380E-002	-1.06866E-003	-1.40339E-003	2.30602E-002	-1.54419E-003
	16	16	1.10041E+000	3.54098E-002	0.00000E+000	3.89652E-002	3.53193E-001	4.12247E-002	4.69002E+001	11	...........	6.84878E-002	-3.99625E-003	5.62073E-001	6.38351E-001	-3.00067E-002	-3.94286E-002	6.47691E-001	-4.33521E-002	2.42514E-003	-1.41506E-004	1.99029E-002	2.26039E-002	-1.06253E-003	-1.39616E-003	2.29346E-002	-1.53509E-003
	17	17	1.10036E+000	3.49212E-002	0.00000E+000	3.84259E-002	3.48329E-001	4.13309E-002	4.67626E+001	11	...........	6.86504E-002	-4.08694E-003	5.62137E-001	6.38436E-001	-2.99865E-002	-3.94035E-002	6.47686E-001	-4.33319E-002	2.39735E-003	-1.42721E-004	1.96305E-002	2.22949E-002	-1.04717E-003	-1.37602E-003	2.26180E-002	-1.51320E-003
	18	18	1.10033E+000	3.50358E-002	0.00000E+000	3.85508E-002	3.49468E-001	4.10888E-002	4.67609E+001	11	...........	6.82632E-002	-4.11181E-003	5.62331E-001	6.38488E-001	-2.99924E-002	-3.94464E-002	6.47738E-001	-4.33236E-002	2.39165E-003	-1.44060E-004	1.97017E-002	2.23699E-002	-1.05080E-003	-1.38203E-003	2.26940E-002	-1.51788E-003
	19	19	1.10040E+000	3.48573E-002	0.00000E+000	3.83571E-002	3.47691E-001	4.11544E-002	4.67186E+001	11	...........	6.83569E-002	-3.97181E-003	5.62225E-001	6.38437E-001	-3.00014E-002	-3.94790E-002	6.47713E-001	-4.33372E-002	2.38274E-003	-1.38447E-004	1.95977E-002	2.22542E-002	-1.04577E-003	-1.37613E-003	2.25775E-002	-1.51062E-003
	20	20	1.10036E+000	3.44107E-002	0.00000E+000	3.78644E-002	3.43251E-001	4.09970E-002	4.67092E+001	11	...........	6.83163E-002	-3.95444E-003	5.62407E-001	6.38588E-001	-3.00256E-002	-3.94501E-002	6.47764E-001	-4.33421E-002	2.35081E-003	-1.36075E-004	1.93528E-002	2.19743E-002	-1.03320E-003	-1.35751E-003	2.22900E-002	-1.49143E-003
	21	21	1.10032E+000	3.45843E-002	0.00000E+000	3.80539E-002	3.44981E-001	4.12830E-002	4.64307E+001	11	...........	6.89207E-002	-3.93444E-003	5.62542E-001	6.38642E-001	-3.00594E-002	-3.94867E-002	6.47812E-001	-4.33362E-002	2.38357E-003	-1.36070E-004	1.94551E-002	2.20870E-002	-1.03958E-003	-1.36562E-003	2.24041E-002	-1.49875E-003
	22	22	1.10040E+000	3.44639E-002	0.00000E+000	3.79241E-002	3.43789E-001	4.07659E-002	4.62709E+001	11	...........	6.80629E-002	-3.90069E-003	5.62316E-001	6.38578E-001	-3.00319E-002	-3.94687E-002	6.47755E-001	-4.33733E-002	2.34571E-003	-1.34433E-004	1.93796E-002	2.20079E-002	-1.03502E-003	-1.36025E-003	2.23241E-002	-1.49481E-003
	23	23	1.10037E+000	3.40266E-002	0.00000E+000	3.74418E-002	3.39440E-001	4.08452E-002	4.54046E+001	11	...........	6.82061E-002	-3.88694E-003	5.62105E-001	6.38291E-001	-3.00185E-002	-3.94228E-002	6.47715E-001	-4.34161E-002	2.32082E-003	-1.32259E-004	1.91265E-002	2.17188E-002	-1.02143E-003	-1.34142E-003	2.20395E-002	-1.47730E-003
	24	24	1.10032E+000	3.41867E-002	0.00000E+000	3.76164E-002	3.41036E-001	4.08634E-002	4.60223E+001	11	...........	6.82354E-002	-3.86222E-003	5.61960E-001	6.38209E-001	-3.00236E-002	-3.94347E-002	6.47742E-001	-4.34467E-002	2.33274E-003	-1.32036E-004	1.92115E-002	2.18183E-002	-1.02641E-003	-1.34814E-003	2.21442E-002	-1.48530E-003
	25	25	1.10040E+000	3.40919E-002	0.00000E+000	3.75147E-002	3.40092E-001	4.08176E-002	4.59955E+001	11	...........	6.81556E-002	-3.89597E-003	5.62067E-001	6.38162E-001	-3.00454E-002	-3.94436E-002	6.47661E-001	-4.33751E-002	2.32356E-003	-1.32821E-004	1.91620E-002	2.17562E-002	-1.02431E-003	-1.34471E-003	2.20800E-002	-1.47874E-003
	26	26	1.10037E+000	3.36652E-002	0.00000E+000	3.70442E-002	3.35847E-001	4.08849E-002	4.59403E+001	11	...........	6.82775E-002	-3.92153E-003	5.62105E-001	6.38086E-001	-3.00175E-002	-3.94010E-002	6.47672E-001	-4.33443E-002	2.29857E-003	-1.32019E-004	1.89233E-002	2.14813E-002	-1.01054E-003	-1.32644E-003	2.18040E-002	-1.45919E-003
	27	27	1.10032E+000	3.38289E-002	0.00000E+000	3.72227E-002	3.37473E-001	4.07905E-002	4.61810E+001	11	...........	6.81022E-002	-4.00972E-003	5.62084E-001	6.38066E-001	-2.99983E-002	-3.94068E-002	6.47671E-001	-4.33794E-002	2.30382E-003	-1.35645E-004	1.90147E-002	2.15851E-002	-1.01481E-003	-1.33309E-003	2.19100E-002	-1.46748E-003
	28	28	1.10039E+000	3.37653E-002	0.00000E+000	3.71551E-002	3.36839E-001	4.07785E-002	4.61768E+001	11	...........	6.80837E-002	-3.98931E-003	5.62044E-001	6.38135E-001	-2.99624E-002	-3.93707E-002	6.47639E-001	-4.32728E-002	2.29887E-003	-1.34700E-004	1.89776E-002	2.15468E-002	-1.01169E-003	-1.32936E-003	2.18677E-002	-1.46112E-003
	29	29	1.10038E+000	3.33690E-002	0.00000E+000	3.67184E-002	3.32899E-001	4.08852E-002	4.59693E+001	11	...........	6.82528E-002	-4.06347E-003	5.62127E-001	6.38457E-001	-2.99801E-002	-3.93606E-002	6.47713E-001	-4.32782E-002	2.27753E-003	-1.35594E-004	1.87576E-002	2.13047E-002	-1.00041E-003	-1.31342E-003	2.16135E-002	-1.44415E-003
	30	30	1.10032E+000	3.34985E-002	0.00000E+000	3.68591E-002	3.34186E-001	4.06903E-002	4.61807E+001	11	...........	6.79460E-002	-4.06500E-003	5.62155E-001	6.38487E-001	-2.99907E-002	-3.93676E-002	6.47808E-001	-4.33524E-002	2.27609E-003	-1.36171E-004	1.88313E-002	2.13884E-002	-1.00464E-003	-1.31876E-003	2.17006E-002	-1.45224E-003
	31	31	1.10039E+000	3.34313E-002	0.00000E+000	3.67875E-002	3.33515E-001	4.07133E-002	4.61767E+001	11	...........	6.80008E-002	-4.07472E-003	5.62174E-001	6.38564E-001	-3.00072E-002	-3.93732E-002	6.47906E-001	-4.33729E-002	2.27336E-003	-1.36223E-004	1.87942E-002	2.13480E-002	-1.00318E-003	-1.31630E-003	2.16603E-002	-1.45001E-003
	32	32	1.10038E+000	3.30193E-002	0.00000E+000	3.63338E-002	3.29418E-001	4.06876E-002	4.61796E+001	11	...........	6.79528E-002	-4.02875E-003	5.62341E-001	6.38710E-001	-3.00494E-002	-3.93882E-002	6.47784E-001	-4.33682E-002	2.24376E-003	-1.33027E-004	1.85681E-002	2.10898E-002	-9.92212E-004	-1.30057E-003	2.13894E-002	-1.43199E-003
	33	33	1.10032E+000	3.31639E-002	0.00000E+000	3.64908E-002	3.30855E-001	4.06877E-002	4.61802E+001	11	...........	6.79496E-002	-4.12917E-003	5.62357E-001	6.38827E-001	-3.00582E-002	-3.93765E-002	6.47699E-001	-4.33406E-002	2.25347E-003	-1.36939E-004	1.86499E-002	2.11860E-002	-9.96845E-004	-1.30588E-003	2.14802E-002	-1.43734E-003
	34	34	1.10039E+000	3.31484E-002	0.00000E+000	3.64761E-002	3.30700E-001	4.06583E-002	4.61472E+001	11	...........	6.78907E-002	-4.14361E-003	5.62340E-001	6.38836E-001	-3.00569E-002	-3.93907E-002	6.47670E-001	-4.34107E-002	2.25047E-003	-1.37354E-004	1.86407E-002	2.11764E-002	-9.96340E-004	-1.30574E-003	2.14693E-002	-1.43900E-003
	35	35	1.10038E+000	3.27307E-002	0.00000E+000	3.60164E-002	3.26548E-001	4.06302E-002	4.61028E+001	11	...........	6.78617E-002	-4.17722E-003	5.62320E-001	6.38774E-001	-3.00865E-002	-3.93818E-002	6.47719E-001	-4.33829E-002	2.22116E-003	-1.36723E-004	1.84051E-002	2.09075E-002	-9.84753E-004	-1.28899E-003	2.12003E-002	-1.41995E-003
	36	36	1.10032E+000	3.28802E-002	0.00000E+000	3.61788E-002	3.28033E-001	4.06052E-002	4.60733E+001	11	...........	6.78212E-002	-4.00611E-003	5.62202E-001	6.38816E-001	-3.00742E-002	-3.93708E-002	6.47794E-001	-4.33894E-002	2.22998E-003	-1.31722E-004	1.84853E-002	2.10044E-002	-9.88846E-004	-1.29452E-003	2.12996E-002	-1.42666E-003
	37	37	1.10038E+000	3.28452E-002	0.00000E+000	3.61424E-002	3.27686E-001	4.05726E-002	4.60769E+001	11	...........	6.77604E-002	-3.99833E-003	5.62134E-001	6.38860E-001	-3.00782E-002	-3.93622E-002	6.47717E-001	-4.33315E-002	2.22561E-003	-1.31326E-004	1.84634E-002	2.09835E-002	-9.87925E-004	-1.29286E-003	2.12744E-002	-1.42323E-003
	38	38	1.10039E+000	3.24262E-002	0.00000E+000	3.56815E-002	3.23522E-001	4.05447E-002	4.60827E+001	11	...........	6.77172E-002	-3.98319E-003	5.62046E-001	6.38786E-001	-3.00889E-002	-3.93679E-002	6.47763E-001	-4.33436E-002	2.19581E-003	-1.29160E-004	1.82250E-002	2.07134E-002	-9.75669E-004	-1.27655E-003	2.10045E-002	-1.40547E-003
	39	39	1.10032E+000	3.26112E-002	0.00000E+000	3.58827E-002	3.25358E-001	4.05247E-002	4.60853E+001	11	...........	6.76437E-002	-3.95375E-003	5.61939E-001	6.38445E-001	-3.00903E-002	-3.93643E-002	6.47654E-001	-4.33336E-002	2.20595E-003	-1.28937E-004	1.83255E-002	2.08205E-002	-9.81281E-004	-1.28372E-003	2.11208E-002	-1.41316E-003
	40	40	1.10038E+000	3.25917E-002	0.00000E+000	3.58633E-002	3.25165E-001	4.05122E-002	4.60914E+001	11	...........	6.76049E-002	-4.00597E-003	5.62070E-001	6.38338E-001	-3.00608E-002	-3.93892E-002	6.47600E-001	-4.33231E-002	2.20336E-003	-1.30562E-004	1.83188E-002	2.08045E-002	-9.79734E-004	-1.28376E-003	2.11064E-002	-1.41197E-003
	41	41	1.10039E+000	3.21573E-002	0.00000E+000	3.53857E-002	3.20849E-001	4.04813E-002	4.60887E+001	11	...........	6.75671E-002	-3.96778E-003	5.62183E-001	6.38358E-001	-3.00651E-002	-3.93900E-002	6.47569E-001	-4.33529E-002	2.17278E-003	-1.27593E-004	1.80783E-002	2.05279E-002	-9.66815E-004	-1.26668E-003	2.08241E-002	-1.39411E-003
	42	42	1.10032E+000	3.23052E-002	0.00000E+000	3.55459E-002	3.22315E-001	4.04378E-002	4.60773E+001	11	...........	6.75021E-002	-3.93778E-003	5.62167E-001	6.38373E-001	-3.00658E-002	-3.93900E-002	6.47566E-001	-4.33547E-002	2.18067E-003	-1.27211E-004	1.81609E-002	2.06228E-002	-9.71283E-004	-1.27250E-003	2.09198E-002	-1.40058E-003
	43	43	1.10038E+000	3.22997E-002	0.00000E+000	3.55419E-002	3.22262E-001	4.05969E-002	4.59393E+001	11	...........	6.77768E-002	-3.95847E-003	5.62272E-001	6.38341E-001	-3.00431E-002	-3.93976E-002	6.47527E-001	-4.34276E-002	2.18917E-003	-1.27857E-004	1.81612E-002	2.06182E-002	-9.70382E-004	-1.27253E-003	2.09149E-002	-1.40270E-003
	44	44	1.10040E+000	3.18878E-002	0.00000E+000	3.50893E-002	3.18163E-001	4.02526E-002	4.60373E+001	11	...........	6.72075E-002	-4.01764E-003	5.62361E-001	6.38433E-001	-3.00365E-002	-3.94100E-002	6.47631E-001	-4.33960E-002	2.14310E-003	-1.28114E-004	1.79325E-002	2.03582E-002	-9.57800E-004	-1.25670E-003	2.06516E-002	-1.38380E-003
	45	45	1.10032E+000	3.20263E-002	0.00000E+000	3.52390E-002	3.19537E-001	4.03552E-002	4.60096E+001	11	...........	6.73881E-002	-4.03389E-003	5.62490E-001	6.38318E-001	-3.00235E-002	-3.94256E-002	6.47673E-001	-4.33426E-002	2.15819E-003	-1.29190E-004	1.80144E-002	2.04429E-002	-9.61540E-004	-1.26265E-003	2.07425E-002	-1.38810E-003
	46	46	1.10038E+000	3.20165E-002	0.00000E+000	3.52302E-002	3.19439E-001	4.03368E-002	4.60319E+001	11	...........	6.73550E-002	-4.08361E-003	5.62720E-001	6.38266E-001	-3.00293E-002	-3.94439E-002	6.47744E-001	-4.33675E-002	2.15647E-003	-1.30743E-004	1.80163E-002	2.04350E-002	-9.61433E-004	-1.26286E-003	2.07385E-002	-1.38848E-003
	47	47	1.10040E+000	3.16214E-002	0.00000E+000	3.47962E-002	3.15512E-001	4.03150E-002	4.60372E+001	11	...........	6.73283E-002	-4.00097E-003	5.62728E-001	6.38347E-001	-3.00246E-002	-3.94331E-002	6.47813E-001	-4.33269E-002	2.12902E-003	-1.26516E-004	1.77942E-002	2.01854E-002	-9.49420E-004	-1.24693E-003	2.04848E-002	-1.37006E-003
	48	48	1.10031E+000	3.17359E-002	0.00000E+000	3.49195E-002	3.16655E-001	4.03086E-002	4.60088E+001	11	...........	6.73058E-002	-4.02944E-003	5.62626E-001	6.38546E-001	-3.00161E-002	-3.94454E-002	6.47866E-001	-4.33208E-002	2.13601E-003	-1.27878E-004	1.78554E-002	2.02649E-002	-9.52589E-004	-1.25184E-003	2.05606E-002	-1.37483E-003
	49	49	1.10037E+000	3.17627E-002	0.00000E+000	3.49508E-002	3.16922E-001	4.02807E-002	4.59961E+001	11	...........	6.72929E-002	-4.03903E-003	5.62561E-001	6.38591E-001	-3.00093E-002	-3.94669E-002	6.47741E-001	-4.33597E-002	2.13740E-003	-1.28290E-004	1.78684E-002	2.02834E-002	-9.53175E-004	-1.25357E-003	2.05740E-002	-1.37722E-003
	50	50	1.10040E+000	3.13710E-002	0.00000E+000	3.45208E-002	3.13027E-001	4.02861E-002	4.60341E+001	11	...........	6.72539E-002	-4.05667E-003	5.62529E-001	6.38580E-001	-3.00301E-002	-3.94807E-002	6.47701E-001	-4.33711E-002	2.10982E-003	-1.27262E-004	1.76471E-002	2.00329E-002	-9.42076E-004	-1.23855E-003	2.03190E-002	-1.36060E-003
	51	51	1.10031E+000	3.14796E-002	0.00000E+000	3.46374E-002	3.14108E-001	4.02642E-002	4.60535E+001	11	...........	6.72492E-002	-4.11806E-003	5.62433E-001	6.38597E-001	-3.00490E-002	-3.94879E-002	6.47647E-001	-4.34449E-002	2.11697E-003	-1.29635E-004	1.77052E-002	2.01027E-002	-9.45930E-004	-1.24306E-003	2.03876E-002	-1.36762E-003
	52	52	1.10037E+000	3.14774E-002	0.00000E+000	3.46368E-002	3.14083E-001	4.02341E-002	4.60463E+001	11	...........	6.71989E-002	-4.03333E-003	5.62423E-001	6.38738E-001	-3.00160E-002	-3.94879E-002	6.47632E-001	-4.34467E-002	2.11524E-003	-1.26959E-004	1.77036E-002	2.01058E-002	-9.44823E-004	-1.24297E-003	2.03857E-002	-1.36759E-003
	53	53	1.10041E+000	3.10806E-002	0.00000E+000	3.42013E-002	3.10144E-001	4.01994E-002	4.60109E+001	11	...........	6.71354E-002	-4.03208E-003	5.62361E-001	6.38693E-001	-3.00081E-002	-3.94371E-002	6.47636E-001	-4.33819E-002	2.08661E-003	-1.25320E-004	1.74785E-002	1.98510E-002	-9.32668E-004	-1.22573E-003	2.01289E-002	-1.34834E-003
	54	54	1.10031E+000	3.12235E-002	0.00000E+000	3.43556E-002	3.11563E-001	4.01638E-002	4.59934E+001	11	...........	6.70950E-002	-4.08708E-003	5.62444E-001	6.38713E-001	-3.00422E-002	-3.94210E-002	6.47766E-001	-4.33614E-002	2.09494E-003	-1.27613E-004	1.75615E-002	1.99429E-002	-9.38024E-004	-1.23086E-003	2.02255E-002	-1.35390E-003
	55	55	1.10037E+000	3.12212E-002	0.00000E+000	3.43550E-002	3.11543E-001	4.01326E-002	4.34666E+001	11	...........	6.70214E-002	-4.01000E-003	5.62583E-001	6.38677E-001	-3.00540E-002	-3.94232E-002	6.47765E-001	-4.33321E-002	2.09249E-003	-1.25197E-004	1.75646E-002	1.99403E-002	-9.38324E-004	-1.23084E-003	2.02240E-002	-1.35288E-003
	56	56	1.10041E+000	3.07934E-002	0.00000E+000	3.38852E-002	3.07280E-001	4.00115E-002	4.54422E+001	11	...........	6.68194E-002	-4.01722E-003	5.62479E-001	6.38562E-001	-3.00331E-002	-3.94078E-002	6.47778E-001	-4.33408E-002	2.05760E-003	-1.23704E-004	1.73206E-002	1.96635E-002	-9.24819E-004	-1.21350E-003	1.99473E-002	-1.33461E-003
	57	57	1.10031E+000	3.09708E-002	0.00000E+000	3.40775E-002	3.09045E-001	4.01296E-002	4.59929E+001	11	...........	6.69912E-002	-3.98792E-003	5.62603E-001	6.38363E-001	-3.00340E-002	-3.94268E-002	6.47828E-001	-4.33293E-002	2.07477E-003	-1.23509E-004	1.74243E-002	1.97706E-002	-9.30177E-004	-1.22108E-003	2.00637E-002	-1.34194E-003
	58	58	1.10037E+000	3.10029E-002	0.00000E+000	3.41145E-002	3.09363E-001	3.99538E-002	4.61247E+001	11	...........	6.67153E-002	-3.87819E-003	5.62521E-001	6.38518E-001	-3.00522E-002	-3.94539E-002	6.47814E-001	-4.32779E-002	2.06837E-003	-1.20235E-004	1.74398E-002	1.97959E-002	-9.31706E-004	-1.22318E-003	2.00841E-002	-1.34174E-003
	59	59	1.10041E+000	3.06576E-002	0.00000E+000	3.37359E-002	3.05932E-001	3.99447E-002	4.61920E+001	11	...........	6.67107E-002	-3.95556E-003	5.62470E-001	6.38609E-001	-3.00518E-002	-3.94439E-002	6.47761E-001	-4.33024E-002	2.04519E-003	-1.21268E-004	1.72440E-002	1.95782E-002	-9.21315E-004	-1.20925E-003	1.98588E-002	-1.32755E-003
	60	60	1.10031E+000	3.07413E-002	0.00000E+000	3.38251E-002	3.06765E-001	3.99389E-002	4.62372E+001	11	...........	6.66925E-002	-3.97778E-003	5.62312E-001	6.38627E-001	-3.00596E-002	-3.94575E-002	6.47801E-001	-4.32879E-002	2.05021E-003	-1.22282E-004	1.72862E-002	1.96322E-002	-9.24071E-004	-1.21297E-003	1.99142E-002	-1.33073E-003
	61	61	1.10036E+000	3.07560E-002	0.00000E+000	3.38428E-002	3.06913E-001	3.99087E-002	4.62991E+001	11	...........	6.66461E-002	-4.02736E-003	5.62285E-001	6.38428E-001	-3.00457E-002	-3.94693E-002	6.47767E-001	-4.32649E-002	2.04977E-003	-1.23865E-004	1.72936E-002	1.96355E-002	-9.24085E-004	-1.21392E-003	1.99227E-002	-1.33065E-003
	62	62	1.10041E+000	3.03905E-002	0.00000E+000	3.34421E-002	3.03279E-001	3.98779E-002	4.56679E+001	11	...........	6.66018E-002	-3.92542E-003	5.62366E-001	6.38509E-001	-3.00247E-002	-3.94479E-002	6.47677E-001	-4.33036E-002	2.02406E-003	-1.19295E-004	1.70906E-002	1.94046E-002	-9.12466E-004	-1.19884E-003	1.96832E-002	-1.31602E-003
	63	63	1.10031E+000	3.04831E-002	0.00000E+000	3.35409E-002	3.04199E-001	3.97627E-002	4.59240E+001	11	...........	6.63771E-002	-3.89222E-003	5.62324E-001	6.38496E-001	-3.00150E-002	-3.93946E-002	6.47658E-001	-4.32812E-002	2.02338E-003	-1.18647E-004	1.71414E-002	1.94633E-002	-9.14950E-004	-1.20087E-003	1.97426E-002	-1.31935E-003
	64	64	1.10036E+000	3.05744E-002	0.00000E+000	3.36430E-002	3.05110E-001	3.98595E-002	4.62602E+001	11	...........	6.65804E-002	-3.88014E-003	5.62240E-001	6.38515E-001	-3.00421E-002	-3.93917E-002	6.47728E-001	-4.32742E-002	2.03566E-003	-1.18633E-004	1.71902E-002	1.95222E-002	-9.18520E-004	-1.20438E-003	1.98039E-002	-1.32308E-003
	65	65	1.10042E+000	3.02239E-002	0.00000E+000	3.32589E-002	3.01624E-001	3.98458E-002	4.63206E+001	11	...........	6.65626E-002	-3.98556E-003	5.62388E-001	6.38605E-001	-3.00611E-002	-3.94339E-002	6.47815E-001	-4.32522E-002	2.01178E-003	-1.20459E-004	1.69976E-002	1.93012E-002	-9.08565E-004	-1.19185E-003	1.95795E-002	-1.30725E-003
	66	66	1.10031E+000	3.02680E-002	0.00000E+000	3.33042E-002	3.02062E-001	3.98136E-002	4.62663E+001	11	...........	6.65147E-002	-4.02667E-003	5.62312E-001	6.38631E-001	-3.00879E-002	-3.94421E-002	6.47822E-001	-4.32472E-002	2.01327E-003	-1.21879E-004	1.70201E-002	1.93301E-002	-9.10701E-004	-1.19383E-003	1.96083E-002	-1.30901E-003
	67	67	1.10036E+000	3.03291E-002	0.00000E+000	3.33729E-002	3.02666E-001	3.97996E-002	4.63426E+001	11	...........	6.64649E-002	-4.11694E-003	5.62524E-001	6.38776E-001	-3.00664E-002	-3.94319E-002	6.47808E-001	-4.33221E-002	2.01582E-003	-1.24863E-004	1.70608E-002	1.93735E-002	-9.11886E-004	-1.19593E-003	1.96474E-002	-1.31392E-003
	68	68	1.10042E+000	2.99875E-002	0.00000E+000	3.29988E-002	2.99273E-001	3.98637E-002	4.61796E+001	11	...........	6.65774E-002	-4.03819E-003	5.62512E-001	6.38657E-001	-3.00436E-002	-3.94319E-002	6.47880E-001	-4.33365E-002	1.99649E-003	-1.21095E-004	1.68683E-002	1.91517E-002	-9.00933E-004	-1.18247E-003	1.94283E-002	-1.29955E-003
	69	69	1.10031E+000	3.00296E-002	0.00000E+000	3.30419E-002	2.99692E-001	3.97487E-002	4.63158E+001	11	...........	6.63601E-002	-3.95403E-003	5.62500E-001	6.38587E-001	-3.00467E-002	-3.94186E-002	6.47907E-001	-4.33842E-002	1.99277E-003	-1.18738E-004	1.68917E-002	1.91765E-002	-9.02289E-004	-1.18373E-003	1.94564E-002	-1.30281E-003
	70	70	1.10036E+000	3.00992E-002	0.00000E+000	3.31199E-002	3.00384E-001	3.97267E-002	4.63242E+001	11	...........	6.63600E-002	-3.98153E-003	5.62527E-001	6.38519E-001	-3.00542E-002	-3.94301E-002	6.47831E-001	-4.33583E-002	1.99738E-003	-1.19841E-004	1.69316E-002	1.92189E-002	-9.04605E-004	-1.18681E-003	1.94992E-002	-1.30505E-003
	71	71	1.10042E+000	2.97488E-002	0.00000E+000	3.27361E-002	2.96899E-001	3.97041E-002	4.63541E+001	11	...........	6.62840E-002	-4.05861E-003	5.62355E-001	6.38562E-001	-3.00708E-002	-3.94600E-002	6.47627E-001	-4.33496E-002	1.97187E-003	-1.20739E-004	1.67294E-002	1.89964E-002	-8.94571E-004	-1.17389E-003	1.92661E-002	-1.28960E-003
	72	72	1.10031E+000	2.97965E-002	0.00000E+000	3.27854E-002	2.97373E-001	3.96893E-002	4.63437E+001	11	...........	6.62576E-002	-4.09333E-003	5.62149E-001	6.38683E-001	-3.00886E-002	-3.94107E-002	6.47593E-001	-4.33246E-002	1.97425E-003	-1.21967E-004	1.67501E-002	1.90305E-002	-8.96536E-004	-1.17430E-003	1.92960E-002	-1.29092E-003
	73	73	1.10036E+000	2.98560E-002	0.00000E+000	3.28523E-002	2.97968E-001	3.98115E-002	4.61821E+001	11	...........	6.64694E-002	-4.05208E-003	5.62024E-001	6.38705E-001	-3.00767E-002	-3.93900E-002	6.47645E-001	-4.33529E-002	1.98451E-003	-1.20979E-004	1.67798E-002	1.90692E-002	-8.97968E-004	-1.17603E-003	1.93361E-002	-1.29434E-003
	74	74	1.10042E+000	2.95150E-002	0.00000E+000	3.24789E-002	2.94573E-001	3.95962E-002	4.63534E+001	11	...........	6.61182E-002	-4.16125E-003	5.62073E-001	6.38569E-001	-3.00993E-002	-3.93965E-002	6.47689E-001	-4.34960E-002	1.95148E-003	-1.22819E-004	1.65896E-002	1.88474E-002	-8.88380E-004	-1.16279E-003	1.91165E-002	-1.28378E-003
	75	75	1.10031E+000	2.95391E-002	0.00000E+000	3.25022E-002	2.94814E-001	3.95922E-002	4.62960E+001	11	...........	6.61228E-002	-4.10819E-003	5.62044E-001	6.38640E-001	-3.01196E-002	-3.94332E-002	6.47662E-001	-4.34736E-002	1.95321E-003	-1.21352E-004	1.66023E-002	1.88649E-002	-8.89706E-004	-1.16482E-003	1.91314E-002	-1.28417E-003
	76	76	1.10036E+000	2.96074E-002	0.00000E+000	3.25788E-002	2.95490E-001	3.96075E-002	4.63492E+001	11	...........	6.61503E-002	-4.07750E-003	5.61923E-001	6.38554E-001	-3.01583E-002	-3.94132E-002	6.47680E-001	-4.35231E-002	1.95854E-003	-1.20724E-004	1.66371E-002	1.89059E-002	-8.92911E-004	-1.16692E-003	1.91761E-002	-1.28861E-003
	77	77	1.10042E+000	2.92917E-002	0.00000E+000	3.22332E-002	2.92356E-001	3.95840E-002	4.63820E+001	11	...........	6.60997E-002	-4.00569E-003	5.61916E-001	6.38394E-001	-3.01821E-002	-3.93918E-002	6.47751E-001	-4.33779E-002	1.93617E-003	-1.17334E-004	1.64595E-002	1.86997E-002	-8.84084E-004	-1.15385E-003	1.89737E-002	-1.27061E-003
	78	78	1.10031E+000	2.93030E-002	0.00000E+000	3.22424E-002	2.92468E-001	3.95760E-002	4.63911E+001	11	...........	6.60719E-002	-4.00417E-003	5.61963E-001	6.38302E-001	-3.01361E-002	-3.93611E-002	6.47653E-001	-4.33379E-002	1.93611E-003	-1.17334E-004	1.64672E-002	1.87042E-002	-8.83079E-004	-1.15340E-003	1.89782E-002	-1.26993E-003
	79	79	1.10036E+000	2.93777E-002	0.00000E+000	3.23259E-002	2.93208E-001	3.95518E-002	4.63823E+001	11	...........	6.60487E-002	-4.01250E-003	5.61876E-001	6.38219E-001	-3.01028E-002	-3.93824E-002	6.47634E-001	-4.33260E-002	1.94036E-003	-1.17878E-004	1.65066E-002	1.87494E-002	-8.84349E-004	-1.15696E-003	1.90260E-002	-1.27282E-003
	80	80	1.10042E+000	2.90645E-002	0.00000E+000	3.19832E-002	2.90103E-001	3.95389E-002	4.63530E+001	11	...........	6.60208E-002	-3.96667E-003	5.61774E-001	6.38076E-001	-3.00778E-002	-3.93982E-002	6.47666E-001	-4.33175E-002	1.91886E-003	-1.15289E-004	1.63277E-002	1.85453E-002	-8.74195E-004	-1.14509E-003	1.88241E-002	-1.25900E-003
	81	81	1.10031E+000	2.90515E-002	0.00000E+000	3.19657E-002	2.89972E-001	3.95132E-002	4.63373E+001	11	...........	6.59936E-002	-3.98486E-003	5.61859E-001	6.38062E-001	-3.01225E-002	-3.93737E-002	6.47666E-001	-4.33985E-002	1.91721E-003	-1.15766E-004	1.63228E-002	1.85366E-002	-8.75103E-004	-1.14387E-003	1.88157E-002	-1.26079E-003
	82	82	1.10035E+000	2.91631E-002	0.00000E+000	3.20898E-002	2.91079E-001	3.95120E-002	4.63297E+001	11	...........	6.59964E-002	-3.98097E-003	5.61816E-001	6.38055E-001	-3.00967E-002	-3.93578E-002	6.47609E-001	-4.34336E-002	1.92466E-003	-1.16098E-004	1.63843E-002	1.86077E-002	-8.77713E-004	-1.14780E-003	1.88863E-002	-1.26666E-003
	83	83	1.10042E+000	2.88617E-002	0.00000E+000	3.17601E-002	2.88081E-001	3.95042E-002	4.52277E+001	11	...........	6.59712E-002	-3.91375E-003	5.61732E-001	6.38098E-001	-3.00882E-002	-3.93728E-002	6.47677E-001	-4.34524E-002	1.90404E-003	-1.12958E-004	1.62126E-002	1.84166E-002	-8.68397E-004	-1.13637E-003	1.86931E-002	-1.25411E-003
	84	83.7467	1.10036E+000	2.88314E-002	0.00000E+000	3.17251E-002	2.87781E-001	3.93596E-002	4.49600E+001	11	...........	6.57152E-002	-3.95517E-003	5.61739E-001	6.38187E-001	-3.00841E-002	-3.93819E-002	6.47582E-001	-4.33631E-002	1.89466E-003	-1.14033E-004	1.61957E-002	1.83999E-002	-8.67367E-004	-1.13544E-003	1.86707E-002	-1.25022E-003
STARTTIMEOFFSET	QUANT	518863.8	Start Time Offset (s)
