EXPLAIN
TAG	PWR800_CHARGE
TITLE	LABEL	PWR Charge	Test Identifier
DATE	LABEL	10/11/2022	Date
TIME	LABEL	18:55:51	Time
NOTES	NOTES	1	Notes...
	
PSTAT	PSTAT	REF3000-21114	Potentiostat
CAPACITY	QUANT	5.30000E-002	Capacity (A-hr)
CELLTYPE	SELECTOR	1	Cell Type
WORKINGCONNECTION	SELECTOR	0	Working Connection
MAXCHARGETIME	VARIABLEANDUNITS	7.20000E+003	s	2.00000E+000	hour(s)	Max Charge Time
CHARGEMODE	MULTIPARAM	0	1.00000E-001	Charge Mode	Constant Current	Amp(s)
CHARGECURRENT	QUANT	0.1	Charge Current (A)
VOLTAGEFINISH	TWOPARAM	T	2.50000E-002	7.20000E+003	Voltage Finish	I (A) <	Max Time(s)
SAMPLETIME	QUANT	1.00000E+000	Sample Period (s)
CHARGESTOPAT1	MULTIPARAM	2	1.10000E+000	Stop At 1	|Voltage| > Limit	V
CHARGESTOPAT2	MULTIPARAM	0	0.00000E+000	Stop At 2	None	N/A
AESELECTOR	AESELECTOR	0x1	T	Set Limits	AE Channels
AESBHCSELECTOR	TOGGLE	F	Save Both Half Cells
IRCOMP	TOGGLE	F	IR Measure
EOC	QUANT	0.2915266	Open Circuit (V)
SEQUENCER	TOGGLE	TRUE	Run as Sequence
PSTATMODEL	IQUANT	5	Pstat Model
PSTATSECTION	LABEL	REF3000-21114	Pstat Section
PSTATSERIALNO	LABEL	21114	Pstat Serial Number
CTRLMODE	IQUANT	0	Control Mode
ELECTROMETER	IQUANT	0	RE=0 or CS=1
IESTAB	IQUANT	0	I/E Stability
CASPEED	IQUANT	4	Control Amp Speed
CONVENTION	IQUANT	1	Current Convention
ICHRANGE	IQUANT	2	Ich Range
ICHRANGEMODE	TOGGLE	T	Ich Auto Range
ICHOFFSETENABLE	TOGGLE	F	Ich Offset Enable
ICHOFFSET	QUANT	0	Ich Offset (V)
ICHFILTER	IQUANT	1	Ich Filter
VCHRANGE	IQUANT	3	Vch Range
VCHRANGEMODE	TOGGLE	T	Vch Auto Range
VCHOFFSETENABLE	TOGGLE	F	Vch Offset Enable
VCHOFFSET	QUANT	0	Vch Offset (V)
VCHFILTER	IQUANT	1	Vch Filter
ACHRANGE	IQUANT	2	Ach Range
ACHOFFSETENABLE	TOGGLE	F	Ach Offset Enable
ACHOFFSET	QUANT	0	Ach Offset (V)
ACHFILTER	IQUANT	1	Ach Filter
IERANGELOWERLIMIT	IQUANT	9	I/E Range Lower Limit
IERANGEMODE	TOGGLE	F	I/E AutoRange
IERANGE	IQUANT	9	I/E Range
POSFEEDENABLE	TOGGLE	F	Positive Feedback IR Comp
POSFEEDRESISTANCE	QUANT	0	Positive Feedback Resistance (ohm)
ACHSELECT	IQUANT	1	Ach Select
SENSECABLEID	IQUANT	13	Sense Cable ID
PWRCABLEID	IQUANT	13	Power Cable ID
DCCALDATE	LABEL		DC Calibration Date
ACCALDATE	LABEL		AC Calibration Date
THERMOSELECT	IQUANT	1	Thermo Select
FRAMEWORKVERSION	LABEL	7.8.6	Framework Version
INSTRUMENTVERSION	LABEL	4.50	Instrument Version
COMPLIANCEVOLTAGE	IQUANT	0	Compliance Voltage
CURVE	TABLE	155
	Pt	T	Vf	Im	Vu	Pwr	Sig	Ach	Temp	IERange	Over	Vf1	Vf2	Vf3	Vf4	Vf5	Vf6	Vf7	Vf8	Pwr1	Pwr2	Pwr3	Pwr4	Pwr5	Pwr6	Pwr7	Pwr8
	#	s	V	A	V	W	V	V	deg C	#	bits	V	V	V	V	V	V	V	V	W	W	W	W	W	W	W	W
	0	1	5.35158E-001	9.98403E-002	0.00000E+000	5.34304E-002	9.94000E-001	3.60982E-002	3.54753E+001	11	...........	5.99181E-002	-3.55681E-003	5.49160E-001	6.88330E-001	-3.03876E-002	-3.94876E-002	6.18703E-001	-4.31119E-002	5.98224E-003	-3.55113E-004	5.48283E-002	6.87231E-002	-3.03391E-003	-3.94246E-003	6.17715E-002	-4.30431E-003
	1	2	7.00988E-001	9.98406E-002	0.00000E+000	6.99870E-002	9.94000E-001	3.64913E-002	3.75521E+001	11	...........	6.05736E-002	-3.63583E-003	5.49312E-001	6.88421E-001	-3.03607E-002	-3.94844E-002	6.18648E-001	-4.30426E-002	6.04770E-003	-3.63004E-004	5.48437E-002	6.87324E-002	-3.03123E-003	-3.94215E-003	6.17662E-002	-4.29740E-003
	2	2.63333	9.69331E-001	9.98415E-002	0.00000E+000	9.67795E-002	9.94000E-001	3.72926E-002	4.12754E+001	11	...........	6.18844E-002	-3.73860E-003	5.49475E-001	6.88418E-001	-3.03526E-002	-3.94680E-002	6.18687E-001	-4.29671E-002	6.17864E-003	-3.73267E-004	5.48604E-002	6.87327E-002	-3.03045E-003	-3.94054E-003	6.17706E-002	-4.28990E-003
	3	3	1.10132E+000	8.26236E-002	0.00000E+000	9.09953E-002	8.22778E-001	3.71641E-002	4.28175E+001	11	...........	6.16659E-002	-3.71553E-003	5.49474E-001	6.88316E-001	-3.03276E-002	-3.94515E-002	6.18692E-001	-4.30015E-002	5.09506E-003	-3.06990E-004	4.53995E-002	5.68711E-002	-2.50578E-003	-3.25962E-003	5.11185E-002	-3.55294E-003
	4	4	1.10035E+000	6.24404E-002	0.00000E+000	6.87060E-002	6.22077E-001	3.66381E-002	4.14316E+001	11	...........	6.08025E-002	-3.79736E-003	5.49316E-001	6.88342E-001	-3.03131E-002	-3.94604E-002	6.18576E-001	-4.30275E-002	3.79653E-003	-2.37109E-004	3.42995E-002	4.29804E-002	-1.89276E-003	-2.46392E-003	3.86242E-002	-2.68665E-003
	5	5	1.10029E+000	5.42716E-002	0.00000E+000	5.97145E-002	5.40843E-001	3.65690E-002	4.06476E+001	11	...........	6.06942E-002	-3.73222E-003	5.49233E-001	6.88285E-001	-3.02968E-002	-3.94729E-002	6.18648E-001	-4.29654E-002	3.29397E-003	-2.02554E-004	2.98077E-002	3.73543E-002	-1.64426E-003	-2.14226E-003	3.35750E-002	-2.33180E-003
	6	6	1.10041E+000	5.01918E-002	0.00000E+000	5.52314E-002	5.00274E-001	3.67209E-002	3.98524E+001	11	...........	6.09411E-002	-3.63444E-003	5.49002E-001	6.88187E-001	-3.03019E-002	-3.94483E-002	6.18670E-001	-4.30251E-002	3.05875E-003	-1.82419E-004	2.75554E-002	3.45414E-002	-1.52091E-003	-1.97998E-003	3.10522E-002	-2.15951E-003
	7	7	1.10019E+000	4.79234E-002	0.00000E+000	5.27250E-002	4.77724E-001	3.66962E-002	4.02957E+001	11	...........	6.08985E-002	-3.65472E-003	5.48931E-001	6.88105E-001	-3.03011E-002	-3.94140E-002	6.18741E-001	-4.29640E-002	2.91846E-003	-1.75147E-004	2.63067E-002	3.29763E-002	-1.45213E-003	-1.88886E-003	2.96522E-002	-2.05898E-003
	8	8	1.10024E+000	4.67528E-002	0.00000E+000	5.14396E-002	4.66090E-001	3.65507E-002	4.05342E+001	11	...........	6.06628E-002	-3.64861E-003	5.48948E-001	6.88147E-001	-3.03026E-002	-3.93874E-002	6.18750E-001	-4.29314E-002	2.83616E-003	-1.70583E-004	2.56649E-002	3.21728E-002	-1.41673E-003	-1.84147E-003	2.89283E-002	-2.00716E-003
	9	9	1.10037E+000	4.56008E-002	0.00000E+000	5.01776E-002	4.54627E-001	3.65453E-002	4.03507E+001	11	...........	6.06454E-002	-3.59542E-003	5.48768E-001	6.88209E-001	-3.02704E-002	-3.93804E-002	6.18681E-001	-4.29368E-002	2.76548E-003	-1.63954E-004	2.50242E-002	3.13829E-002	-1.38036E-003	-1.79578E-003	2.82123E-002	-1.95795E-003
	10	10	1.10019E+000	4.48898E-002	0.00000E+000	4.93873E-002	4.47561E-001	3.67060E-002	4.05849E+001	11	...........	6.09057E-002	-3.57000E-003	5.48733E-001	6.88110E-001	-3.02490E-002	-3.93564E-002	6.18571E-001	-4.29137E-002	2.73405E-003	-1.60257E-004	2.46325E-002	3.08892E-002	-1.35787E-003	-1.76670E-003	2.77676E-002	-1.92639E-003
	11	11	1.10023E+000	4.46904E-002	0.00000E+000	4.91699E-002	4.45580E-001	3.63859E-002	3.98642E+001	11	...........	6.03935E-002	-3.52986E-003	5.48792E-001	6.88187E-001	-3.02872E-002	-3.93599E-002	6.18629E-001	-4.28539E-002	2.69901E-003	-1.57751E-004	2.45257E-002	3.07554E-002	-1.35355E-003	-1.75901E-003	2.76468E-002	-1.91516E-003
	12	12	1.10036E+000	4.41077E-002	0.00000E+000	4.85343E-002	4.39786E-001	3.66682E-002	4.03288E+001	11	...........	6.08490E-002	-3.51236E-003	5.48800E-001	6.88172E-001	-3.03307E-002	-3.93743E-002	6.18607E-001	-4.30331E-002	2.68391E-003	-1.54922E-004	2.42063E-002	3.03537E-002	-1.33782E-003	-1.73671E-003	2.72853E-002	-1.89809E-003
	13	13	1.10019E+000	4.37333E-002	0.00000E+000	4.81150E-002	4.36065E-001	3.65242E-002	4.08240E+001	11	...........	6.06265E-002	-3.53958E-003	5.48781E-001	6.88235E-001	-3.03442E-002	-3.93967E-002	6.18632E-001	-4.29586E-002	2.65140E-003	-1.54798E-004	2.40000E-002	3.00988E-002	-1.32705E-003	-1.72295E-003	2.70548E-002	-1.87872E-003
	14	14	1.10023E+000	4.38496E-002	0.00000E+000	4.82444E-002	4.37221E-001	3.62116E-002	4.00734E+001	11	...........	6.00850E-002	-3.56528E-003	5.48746E-001	6.88243E-001	-3.03485E-002	-3.93879E-002	6.18590E-001	-4.30514E-002	2.63470E-003	-1.56336E-004	2.40623E-002	3.01792E-002	-1.33077E-003	-1.72714E-003	2.71249E-002	-1.88778E-003
	15	15	1.10036E+000	4.33767E-002	0.00000E+000	4.77299E-002	4.32519E-001	3.64410E-002	4.02599E+001	11	...........	6.04665E-002	-3.42972E-003	5.48747E-001	6.88253E-001	-3.03708E-002	-3.94047E-002	6.18535E-001	-4.30000E-002	2.62284E-003	-1.48770E-004	2.38028E-002	2.98541E-002	-1.31739E-003	-1.70925E-003	2.68300E-002	-1.86520E-003
	16	16	1.10019E+000	4.31071E-002	0.00000E+000	4.74262E-002	4.29836E-001	3.63836E-002	4.01463E+001	11	...........	6.03519E-002	-3.47208E-003	5.48688E-001	6.88218E-001	-3.03887E-002	-3.94279E-002	6.18710E-001	-4.29210E-002	2.60160E-003	-1.49672E-004	2.36524E-002	2.96671E-002	-1.30997E-003	-1.69962E-003	2.66708E-002	-1.85020E-003
	17	17	1.10023E+000	4.31695E-002	0.00000E+000	4.74962E-002	4.30454E-001	3.63692E-002	3.95496E+001	11	...........	6.03625E-002	-3.66819E-003	5.49077E-001	6.88136E-001	-3.03985E-002	-3.94535E-002	6.18797E-001	-4.30622E-002	2.60582E-003	-1.58354E-004	2.37033E-002	2.97065E-002	-1.31229E-003	-1.70318E-003	2.67131E-002	-1.85897E-003
	18	18	1.10035E+000	4.28727E-002	0.00000E+000	4.71751E-002	4.27505E-001	3.61461E-002	4.04973E+001	11	...........	5.99942E-002	-3.46111E-003	5.48889E-001	6.88085E-001	-3.04022E-002	-3.94569E-002	6.18751E-001	-4.30358E-002	2.57211E-003	-1.48387E-004	2.35324E-002	2.95001E-002	-1.30343E-003	-1.69163E-003	2.65275E-002	-1.84506E-003
	19	19	1.10020E+000	4.25929E-002	0.00000E+000	4.68608E-002	4.24723E-001	3.64586E-002	3.91248E+001	11	...........	6.04986E-002	-3.51389E-003	5.49012E-001	6.88093E-001	-3.03962E-002	-3.94567E-002	6.18824E-001	-4.29951E-002	2.57681E-003	-1.49667E-004	2.33840E-002	2.93079E-002	-1.29467E-003	-1.68058E-003	2.63575E-002	-1.83129E-003
	20	20	1.10022E+000	4.27229E-002	0.00000E+000	4.70047E-002	4.26015E-001	3.59877E-002	4.01194E+001	11	...........	5.99251E-002	-3.32625E-003	5.48956E-001	6.87982E-001	-3.04149E-002	-3.94558E-002	6.18846E-001	-4.29426E-002	2.56018E-003	-1.42107E-004	2.34530E-002	2.93926E-002	-1.29941E-003	-1.68567E-003	2.64389E-002	-1.83463E-003
	21	21	1.10035E+000	4.24331E-002	0.00000E+000	4.66912E-002	4.23135E-001	3.61978E-002	3.98425E+001	11	...........	6.03994E-002	-3.32264E-003	5.49071E-001	6.87926E-001	-3.04135E-002	-3.94299E-002	6.18850E-001	-4.30411E-002	2.56294E-003	-1.40990E-004	2.32988E-002	2.91908E-002	-1.29054E-003	-1.67313E-003	2.62597E-002	-1.82637E-003
	22	22	1.10020E+000	4.21116E-002	0.00000E+000	4.63313E-002	4.19939E-001	3.57519E-002	4.03210E+001	11	...........	5.96537E-002	-3.44278E-003	5.49056E-001	6.87986E-001	-3.04014E-002	-3.94108E-002	6.18715E-001	-4.31329E-002	2.51212E-003	-1.44981E-004	2.31216E-002	2.89722E-002	-1.28025E-003	-1.65965E-003	2.60551E-002	-1.81640E-003
	23	23	1.10022E+000	4.23129E-002	0.00000E+000	4.65536E-002	4.21937E-001	3.60821E-002	3.98313E+001	11	...........	6.01985E-002	-3.42361E-003	5.49168E-001	6.88137E-001	-3.04074E-002	-3.94328E-002	6.18763E-001	-4.30015E-002	2.54717E-003	-1.44863E-004	2.32369E-002	2.91171E-002	-1.28662E-003	-1.66851E-003	2.61816E-002	-1.81952E-003
	24	24	1.10034E+000	4.20537E-002	0.00000E+000	4.62735E-002	4.19361E-001	3.60031E-002	4.05972E+001	11	...........	6.00931E-002	-3.48889E-003	5.49262E-001	6.88002E-001	-3.04215E-002	-3.94482E-002	6.18635E-001	-4.28729E-002	2.52713E-003	-1.46721E-004	2.30985E-002	2.89330E-002	-1.27934E-003	-1.65894E-003	2.60159E-002	-1.80296E-003
	25	25	1.10021E+000	4.16620E-002	0.00000E+000	4.58369E-002	4.15467E-001	3.58319E-002	3.91045E+001	11	...........	5.98001E-002	-3.40583E-003	5.49151E-001	6.88059E-001	-3.04046E-002	-3.94175E-002	6.18717E-001	-4.29486E-002	2.49140E-003	-1.41894E-004	2.28787E-002	2.86659E-002	-1.26672E-003	-1.64221E-003	2.57770E-002	-1.78933E-003
	26	26	1.10022E+000	4.19120E-002	0.00000E+000	4.61124E-002	4.17949E-001	3.60531E-002	3.95372E+001	11	...........	6.01614E-002	-3.45639E-003	5.49018E-001	6.88025E-001	-3.04183E-002	-3.94168E-002	6.18788E-001	-4.30722E-002	2.52148E-003	-1.44864E-004	2.30104E-002	2.88365E-002	-1.27489E-003	-1.65204E-003	2.59346E-002	-1.80524E-003
	27	27	1.10035E+000	4.16354E-002	0.00000E+000	4.58133E-002	4.15203E-001	3.56015E-002	4.01471E+001	11	...........	5.94232E-002	-3.44611E-003	5.49163E-001	6.87905E-001	-3.04161E-002	-3.94108E-002	6.18587E-001	-4.28939E-002	2.47411E-003	-1.43480E-004	2.28646E-002	2.86412E-002	-1.26639E-003	-1.64088E-003	2.57551E-002	-1.78590E-003
	28	28	1.10021E+000	4.12885E-002	0.00000E+000	4.54260E-002	4.11756E-001	3.61463E-002	3.81413E+001	11	...........	6.03168E-002	-3.55708E-003	5.49291E-001	6.87771E-001	-3.04178E-002	-3.94153E-002	6.18854E-001	-4.28506E-002	2.49039E-003	-1.46867E-004	2.26794E-002	2.83970E-002	-1.25590E-003	-1.62740E-003	2.55516E-002	-1.76924E-003
	29	29	1.10022E+000	4.15253E-002	0.00000E+000	4.56871E-002	4.14111E-001	3.59024E-002	3.92768E+001	11	...........	5.98969E-002	-3.53389E-003	5.49177E-001	6.87844E-001	-3.04267E-002	-3.94147E-002	6.18732E-001	-4.30300E-002	2.48724E-003	-1.46746E-004	2.28047E-002	2.85629E-002	-1.26348E-003	-1.63671E-003	2.56930E-002	-1.78683E-003
	30	30	1.10034E+000	4.12193E-002	0.00000E+000	4.53553E-002	4.11067E-001	3.56358E-002	3.93134E+001	11	...........	5.94600E-002	-3.48208E-003	5.49173E-001	6.87926E-001	-3.04108E-002	-3.94090E-002	6.18698E-001	-4.31718E-002	2.45090E-003	-1.43529E-004	2.26365E-002	2.83558E-002	-1.25351E-003	-1.62441E-003	2.55023E-002	-1.77951E-003
	31	31	1.10021E+000	4.08756E-002	0.00000E+000	4.49718E-002	4.07649E-001	3.58975E-002	3.91739E+001	11	...........	5.98890E-002	-3.36042E-003	5.49368E-001	6.88010E-001	-3.04125E-002	-3.93908E-002	6.18722E-001	-4.31508E-002	2.44800E-003	-1.37359E-004	2.24558E-002	2.81229E-002	-1.24313E-003	-1.61013E-003	2.52906E-002	-1.76382E-003
	32	32	1.10022E+000	4.11320E-002	0.00000E+000	4.52541E-002	4.10203E-001	3.57545E-002	3.99425E+001	11	...........	5.96646E-002	-3.44569E-003	5.49426E-001	6.87963E-001	-3.04179E-002	-3.93810E-002	6.18840E-001	-4.30822E-002	2.45412E-003	-1.41728E-004	2.25990E-002	2.82973E-002	-1.25115E-003	-1.61982E-003	2.54541E-002	-1.77206E-003
	33	33	1.10034E+000	4.08634E-002	0.00000E+000	4.49636E-002	4.07531E-001	3.57974E-002	4.00586E+001	11	...........	5.97396E-002	-3.45806E-003	5.49587E-001	6.87905E-001	-3.03933E-002	-3.93786E-002	6.18819E-001	-4.31289E-002	2.44116E-003	-1.41308E-004	2.24580E-002	2.81101E-002	-1.24197E-003	-1.60914E-003	2.52870E-002	-1.76239E-003
	34	34	1.10022E+000	4.04881E-002	0.00000E+000	4.45457E-002	4.03799E-001	3.58718E-002	3.90212E+001	11	...........	5.98678E-002	-3.54778E-003	5.49628E-001	6.87739E-001	-3.03736E-002	-3.93681E-002	6.18657E-001	-4.29832E-002	2.42394E-003	-1.43643E-004	2.22534E-002	2.78453E-002	-1.22977E-003	-1.59394E-003	2.50483E-002	-1.74031E-003
	35	35	1.10022E+000	4.06914E-002	0.00000E+000	4.47695E-002	4.05819E-001	3.54493E-002	3.93181E+001	11	...........	5.91583E-002	-3.56069E-003	5.49661E-001	6.87730E-001	-3.04050E-002	-3.93540E-002	6.18474E-001	-4.29561E-002	2.40724E-003	-1.44890E-004	2.23665E-002	2.79847E-002	-1.23722E-003	-1.60137E-003	2.51666E-002	-1.74795E-003
	36	36	1.10034E+000	4.05590E-002	0.00000E+000	4.46285E-002	4.04500E-001	3.60488E-002	4.05093E+001	11	...........	6.01451E-002	-3.56958E-003	5.49663E-001	6.87823E-001	-3.03915E-002	-3.93364E-002	6.18416E-001	-4.31362E-002	2.43942E-003	-1.44779E-004	2.22938E-002	2.78974E-002	-1.23265E-003	-1.59544E-003	2.50823E-002	-1.74956E-003
	37	37	1.10022E+000	4.01686E-002	0.00000E+000	4.41942E-002	4.00618E-001	3.56987E-002	3.84165E+001	11	...........	5.95636E-002	-3.50167E-003	5.49596E-001	6.87990E-001	-3.03736E-002	-3.93232E-002	6.18442E-001	-4.31112E-002	2.39258E-003	-1.40657E-004	2.20765E-002	2.76356E-002	-1.22006E-003	-1.57956E-003	2.48419E-002	-1.73172E-003
	38	38	1.10022E+000	4.03963E-002	0.00000E+000	4.44447E-002	4.02887E-001	3.57016E-002	3.96513E+001	11	...........	5.95662E-002	-3.44444E-003	5.49564E-001	6.88040E-001	-3.03651E-002	-3.92978E-002	6.18537E-001	-4.30364E-002	2.40626E-003	-1.39143E-004	2.22004E-002	2.77943E-002	-1.22664E-003	-1.58749E-003	2.49866E-002	-1.73851E-003
	39	39	1.10033E+000	4.02158E-002	0.00000E+000	4.42508E-002	4.01090E-001	3.54377E-002	3.92783E+001	11	...........	5.96406E-002	-3.52903E-003	5.49818E-001	6.88017E-001	-3.03349E-002	-3.92739E-002	6.18456E-001	-4.28896E-002	2.39849E-003	-1.41923E-004	2.21114E-002	2.76692E-002	-1.21994E-003	-1.57943E-003	2.48717E-002	-1.72484E-003
	40	40	1.10023E+000	3.98188E-002	0.00000E+000	4.38097E-002	3.97143E-001	3.56038E-002	3.85856E+001	11	...........	5.94114E-002	-3.39472E-003	5.49769E-001	6.88062E-001	-3.03078E-002	-3.92868E-002	6.18444E-001	-4.28835E-002	2.36569E-003	-1.35174E-004	2.18911E-002	2.73978E-002	-1.20682E-003	-1.56435E-003	2.46257E-002	-1.70757E-003
	41	41	1.10022E+000	4.00597E-002	0.00000E+000	4.40744E-002	3.99537E-001	3.57631E-002	3.91517E+001	11	...........	5.96749E-002	-3.35278E-003	5.49876E-001	6.88156E-001	-3.03300E-002	-3.92903E-002	6.18581E-001	-4.28331E-002	2.39056E-003	-1.34311E-004	2.20279E-002	2.75673E-002	-1.21501E-003	-1.57396E-003	2.47802E-002	-1.71588E-003
	42	42	1.10033E+000	3.98458E-002	0.00000E+000	4.38434E-002	3.97411E-001	3.56526E-002	3.97734E+001	11	...........	5.94924E-002	-3.52611E-003	5.50014E-001	6.88061E-001	-3.03350E-002	-3.93001E-002	6.18556E-001	-4.29540E-002	2.37052E-003	-1.40501E-004	2.19157E-002	2.74163E-002	-1.20872E-003	-1.56595E-003	2.46469E-002	-1.71154E-003
	43	43	1.10023E+000	3.94529E-002	0.00000E+000	4.34073E-002	3.93505E-001	3.53366E-002	3.93907E+001	11	...........	5.89675E-002	-3.55278E-003	5.49918E-001	6.88028E-001	-3.03446E-002	-3.93018E-002	6.18274E-001	-4.30861E-002	2.32644E-003	-1.40167E-004	2.16959E-002	2.71447E-002	-1.19718E-003	-1.55057E-003	2.43927E-002	-1.69987E-003
	44	44	1.10021E+000	3.96703E-002	0.00000E+000	4.36458E-002	3.95667E-001	3.58288E-002	3.91946E+001	11	...........	5.99047E-002	-3.58181E-003	5.49890E-001	6.88155E-001	-3.03794E-002	-3.92885E-002	6.18348E-001	-4.30607E-002	2.37644E-003	-1.42091E-004	2.18143E-002	2.72993E-002	-1.20516E-003	-1.55859E-003	2.45301E-002	-1.70823E-003
	45	45	1.10033E+000	3.94824E-002	0.00000E+000	4.34436E-002	3.93797E-001	3.55548E-002	4.00907E+001	11	...........	5.93368E-002	-3.60000E-003	5.49837E-001	6.88389E-001	-3.04017E-002	-3.93004E-002	6.18536E-001	-4.29811E-002	2.34276E-003	-1.42137E-004	2.17089E-002	2.71792E-002	-1.20033E-003	-1.55167E-003	2.44213E-002	-1.69700E-003
	46	46	1.10023E+000	3.91420E-002	0.00000E+000	4.30653E-002	3.90413E-001	3.56071E-002	3.99137E+001	11	...........	5.94396E-002	-3.63764E-003	5.49666E-001	6.88398E-001	-3.03946E-002	-3.93128E-002	6.18515E-001	-4.29132E-002	2.32658E-003	-1.42384E-004	2.15150E-002	2.69452E-002	-1.18970E-003	-1.53878E-003	2.42099E-002	-1.67971E-003
	47	47	1.10021E+000	3.93700E-002	0.00000E+000	4.33154E-002	3.92680E-001	3.56495E-002	3.87582E+001	11	...........	5.95021E-002	-3.59139E-003	5.49775E-001	6.88358E-001	-3.04128E-002	-3.93206E-002	6.18520E-001	-4.30079E-002	2.34260E-003	-1.41393E-004	2.16447E-002	2.71007E-002	-1.19735E-003	-1.54805E-003	2.43512E-002	-1.69322E-003
	48	48	1.10032E+000	3.91508E-002	0.00000E+000	4.30786E-002	3.90503E-001	3.51484E-002	3.91632E+001	11	...........	5.86639E-002	-3.58389E-003	5.49759E-001	6.88290E-001	-3.04296E-002	-3.93247E-002	6.18585E-001	-4.29776E-002	2.29674E-003	-1.40312E-004	2.15235E-002	2.69471E-002	-1.19134E-003	-1.53960E-003	2.42181E-002	-1.68261E-003
	49	49	1.10024E+000	3.87613E-002	0.00000E+000	4.26466E-002	3.86631E-001	3.57717E-002	3.92440E+001	11	...........	5.97822E-002	-3.71333E-003	5.49873E-001	6.88313E-001	-3.04283E-002	-3.93136E-002	6.18627E-001	-4.29783E-002	2.31724E-003	-1.43934E-004	2.13138E-002	2.66799E-002	-1.17944E-003	-1.52385E-003	2.39788E-002	-1.66590E-003
	50	50	1.10022E+000	3.90018E-002	0.00000E+000	4.29104E-002	3.89022E-001	3.54294E-002	3.90218E+001	11	...........	5.91075E-002	-3.67236E-003	5.49847E-001	6.88327E-001	-3.04458E-002	-3.92972E-002	6.18561E-001	-4.29440E-002	2.30530E-003	-1.43229E-004	2.14450E-002	2.68460E-002	-1.18744E-003	-1.53266E-003	2.41250E-002	-1.67490E-003
	51	51	1.10032E+000	3.88326E-002	0.00000E+000	4.27283E-002	3.87341E-001	3.53687E-002	3.96302E+001	11	...........	5.90165E-002	-3.53917E-003	5.49893E-001	6.88242E-001	-3.04083E-002	-3.92965E-002	6.18400E-001	-4.29567E-002	2.29176E-003	-1.37435E-004	2.13538E-002	2.67262E-002	-1.18083E-003	-1.52599E-003	2.40141E-002	-1.66812E-003
	52	52	1.10024E+000	3.84462E-002	0.00000E+000	4.23001E-002	3.83499E-001	3.56351E-002	3.97183E+001	11	...........	5.94758E-002	-3.56514E-003	5.50062E-001	6.88204E-001	-3.04039E-002	-3.93064E-002	6.18439E-001	-4.29700E-002	2.28662E-003	-1.37066E-004	2.11478E-002	2.64588E-002	-1.16891E-003	-1.51118E-003	2.37766E-002	-1.65203E-003
	53	53	1.10021E+000	3.86716E-002	0.00000E+000	4.25469E-002	3.85739E-001	3.56767E-002	3.95291E+001	11	...........	5.95522E-002	-3.63361E-003	5.50132E-001	6.88452E-001	-3.04332E-002	-3.92871E-002	6.18479E-001	-4.29967E-002	2.30298E-003	-1.40517E-004	2.12745E-002	2.66235E-002	-1.17690E-003	-1.51929E-003	2.39176E-002	-1.66275E-003
	54	54	1.10032E+000	3.84664E-002	0.00000E+000	4.23253E-002	3.83699E-001	3.53314E-002	3.89774E+001	11	...........	5.89476E-002	-3.67833E-003	5.50263E-001	6.88401E-001	-3.04261E-002	-3.92942E-002	6.18584E-001	-4.30162E-002	2.26751E-003	-1.41492E-004	2.11667E-002	2.64804E-002	-1.17038E-003	-1.51151E-003	2.37947E-002	-1.65468E-003
	55	55	1.10024E+000	3.81366E-002	0.00000E+000	4.19596E-002	3.80417E-001	3.55619E-002	3.97332E+001	11	...........	5.93579E-002	-3.65917E-003	5.50388E-001	6.88303E-001	-3.04153E-002	-3.93112E-002	6.18721E-001	-4.28846E-002	2.26371E-003	-1.39548E-004	2.09899E-002	2.62496E-002	-1.15994E-003	-1.49920E-003	2.35959E-002	-1.63547E-003
	56	56	1.10021E+000	3.82863E-002	0.00000E+000	4.21231E-002	3.81905E-001	3.52424E-002	3.89627E+001	11	...........	5.88057E-002	-3.63236E-003	5.50404E-001	6.88365E-001	-3.04040E-002	-3.92826E-002	6.18711E-001	-4.29064E-002	2.25146E-003	-1.39070E-004	2.10730E-002	2.63550E-002	-1.16406E-003	-1.50399E-003	2.36882E-002	-1.64273E-003
	57	57	1.10032E+000	3.82176E-002	0.00000E+000	4.20515E-002	3.81222E-001	3.55954E-002	3.97039E+001	11	...........	5.93919E-002	-3.67625E-003	5.50444E-001	6.88339E-001	-3.03957E-002	-3.93189E-002	6.18698E-001	-4.29754E-002	2.26982E-003	-1.40498E-004	2.10367E-002	2.63067E-002	-1.16165E-003	-1.50267E-003	2.36452E-002	-1.64242E-003
	58	58	1.10025E+000	3.78257E-002	0.00000E+000	4.16177E-002	3.77323E-001	3.53832E-002	3.99938E+001	11	...........	5.90424E-002	-3.56181E-003	5.50385E-001	6.88354E-001	-3.03883E-002	-3.93249E-002	6.18659E-001	-4.31053E-002	2.23332E-003	-1.34728E-004	2.08187E-002	2.60375E-002	-1.14946E-003	-1.48749E-003	2.34012E-002	-1.63049E-003
	59	59	1.10021E+000	3.79653E-002	0.00000E+000	4.17699E-002	3.78715E-001	3.54377E-002	3.78829E+001	11	...........	5.91312E-002	-3.51278E-003	5.50344E-001	6.88473E-001	-3.03904E-002	-3.93329E-002	6.18492E-001	-4.31335E-002	2.24494E-003	-1.33364E-004	2.08940E-002	2.61381E-002	-1.15378E-003	-1.49329E-003	2.34812E-002	-1.63758E-003
	60	60	1.10031E+000	3.79021E-002	0.00000E+000	4.17039E-002	3.78084E-001	3.52889E-002	3.96731E+001	11	...........	5.89014E-002	-3.70167E-003	5.50305E-001	6.88537E-001	-3.04140E-002	-3.93357E-002	6.18517E-001	-4.31124E-002	2.23248E-003	-1.40301E-004	2.08577E-002	2.60970E-002	-1.15275E-003	-1.49090E-003	2.34431E-002	-1.63405E-003
	61	61	1.10025E+000	3.74655E-002	0.00000E+000	4.12215E-002	3.73742E-001	3.55729E-002	3.96789E+001	11	...........	5.93676E-002	-3.80278E-003	5.50391E-001	6.88588E-001	-3.04160E-002	-3.93472E-002	6.18553E-001	-4.30271E-002	2.22424E-003	-1.42473E-004	2.06207E-002	2.57983E-002	-1.13955E-003	-1.47416E-003	2.31744E-002	-1.61203E-003
	62	62	1.10021E+000	3.76520E-002	0.00000E+000	4.14251E-002	3.75600E-001	3.53362E-002	4.00890E+001	11	...........	5.89679E-002	-3.75778E-003	5.50405E-001	6.88568E-001	-3.04240E-002	-3.93642E-002	6.18608E-001	-4.29711E-002	2.22026E-003	-1.41488E-004	2.07238E-002	2.59259E-002	-1.14552E-003	-1.48214E-003	2.32918E-002	-1.61795E-003
	63	63	1.10031E+000	3.75174E-002	0.00000E+000	4.12807E-002	3.74263E-001	3.54230E-002	3.80100E+001	11	...........	5.91124E-002	-3.52500E-003	5.50326E-001	6.88514E-001	-3.04011E-002	-3.93594E-002	6.18562E-001	-4.30249E-002	2.21774E-003	-1.32249E-004	2.06468E-002	2.58313E-002	-1.14057E-003	-1.47666E-003	2.32069E-002	-1.61418E-003
	64	64	1.10026E+000	3.71176E-002	0.00000E+000	4.08390E-002	3.70287E-001	3.53271E-002	3.65454E+001	11	...........	5.89243E-002	-3.52861E-003	5.50157E-001	6.88553E-001	-3.04097E-002	-3.93439E-002	6.18659E-001	-4.31643E-002	2.18713E-003	-1.30973E-004	2.04205E-002	2.55574E-002	-1.12873E-003	-1.46035E-003	2.29631E-002	-1.60215E-003
	65	65	1.10020E+000	3.73389E-002	0.00000E+000	4.10805E-002	3.72486E-001	3.52192E-002	4.00888E+001	11	...........	5.87679E-002	-3.49972E-003	5.50045E-001	6.88552E-001	-3.04215E-002	-3.93303E-002	6.18799E-001	-4.31407E-002	2.19433E-003	-1.30676E-004	2.05381E-002	2.57098E-002	-1.13591E-003	-1.46855E-003	2.31053E-002	-1.61083E-003
	66	66	1.10030E+000	3.72165E-002	0.00000E+000	4.09494E-002	3.71268E-001	3.53875E-002	3.84592E+001	11	...........	5.90554E-002	-3.55139E-003	5.50056E-001	6.88582E-001	-3.04300E-002	-3.93228E-002	6.18669E-001	-4.32524E-002	2.19784E-003	-1.32170E-004	2.04711E-002	2.56266E-002	-1.13250E-003	-1.46346E-003	2.30247E-002	-1.60970E-003
	67	67	1.10027E+000	3.67604E-002	0.00000E+000	4.04463E-002	3.66729E-001	3.54178E-002	3.80375E+001	11	...........	5.91028E-002	-3.56306E-003	5.49930E-001	6.88512E-001	-3.04482E-002	-3.93036E-002	6.18601E-001	-4.30989E-002	2.17264E-003	-1.30979E-004	2.02157E-002	2.53100E-002	-1.11929E-003	-1.44482E-003	2.27400E-002	-1.58433E-003
	68	68	1.10021E+000	3.69902E-002	0.00000E+000	4.06969E-002	3.69019E-001	3.54950E-002	3.84169E+001	11	...........	5.92217E-002	-3.48139E-003	5.49959E-001	6.88387E-001	-3.04874E-002	-3.93085E-002	6.18592E-001	-4.30706E-002	2.19062E-003	-1.28777E-004	2.03431E-002	2.54636E-002	-1.12773E-003	-1.45403E-003	2.28819E-002	-1.59319E-003
	69	69	1.10030E+000	3.68896E-002	0.00000E+000	4.05896E-002	3.68020E-001	3.51962E-002	3.71631E+001	11	...........	5.87212E-002	-3.42403E-003	5.49969E-001	6.88434E-001	-3.05142E-002	-3.93501E-002	6.18654E-001	-4.29825E-002	2.16621E-003	-1.26311E-004	2.02882E-002	2.53961E-002	-1.12566E-003	-1.45161E-003	2.28219E-002	-1.58561E-003
	70	70	1.10027E+000	3.64878E-002	0.00000E+000	4.01465E-002	3.64026E-001	3.51621E-002	3.96161E+001	11	...........	5.86810E-002	-3.35319E-003	5.49937E-001	6.88321E-001	-3.05272E-002	-3.93710E-002	6.18702E-001	-4.30210E-002	2.14114E-003	-1.22351E-004	2.00660E-002	2.51153E-002	-1.11387E-003	-1.43656E-003	2.25751E-002	-1.56974E-003
	71	71	1.10020E+000	3.66600E-002	0.00000E+000	4.03335E-002	3.65734E-001	3.55790E-002	3.84715E+001	11	...........	5.93640E-002	-3.53389E-003	5.50129E-001	6.88310E-001	-3.05256E-002	-3.94040E-002	6.18707E-001	-4.29907E-002	2.17629E-003	-1.29552E-004	2.01678E-002	2.52334E-002	-1.11907E-003	-1.44455E-003	2.26818E-002	-1.57604E-003
	72	72	1.10029E+000	3.65208E-002	0.00000E+000	4.01836E-002	3.64353E-001	3.50164E-002	3.85063E+001	11	...........	5.84246E-002	-3.57069E-003	5.50062E-001	6.88219E-001	-3.05154E-002	-3.94093E-002	6.18619E-001	-4.29712E-002	2.13371E-003	-1.30404E-004	2.00887E-002	2.51343E-002	-1.11445E-003	-1.43926E-003	2.25924E-002	-1.56934E-003
	73	73	1.10027E+000	3.62001E-002	0.00000E+000	3.98299E-002	3.61161E-001	3.51982E-002	3.91182E+001	11	...........	5.87367E-002	-3.56167E-003	5.50104E-001	6.88241E-001	-3.05090E-002	-3.94442E-002	6.18639E-001	-4.30799E-002	2.12627E-003	-1.28933E-004	1.99138E-002	2.49144E-002	-1.10443E-003	-1.42788E-003	2.23948E-002	-1.55949E-003
	74	74	1.10021E+000	3.63966E-002	0.00000E+000	4.00437E-002	3.63118E-001	3.54425E-002	3.83009E+001	11	...........	5.91428E-002	-3.49236E-003	5.50172E-001	6.88175E-001	-3.05312E-002	-3.94472E-002	6.18625E-001	-4.31076E-002	2.15260E-003	-1.27110E-004	2.00244E-002	2.50472E-002	-1.11123E-003	-1.43574E-003	2.25159E-002	-1.56897E-003
	75	75	1.10029E+000	3.62701E-002	0.00000E+000	3.99078E-002	3.61857E-001	3.52552E-002	3.77456E+001	11	...........	5.88135E-002	-3.56389E-003	5.50207E-001	6.88352E-001	-3.05387E-002	-3.94406E-002	6.18738E-001	-4.31243E-002	2.13317E-003	-1.29263E-004	1.99561E-002	2.49666E-002	-1.10764E-003	-1.43051E-003	2.24417E-002	-1.56412E-003
	76	76	1.10028E+000	3.58957E-002	0.00000E+000	3.94952E-002	3.58130E-001	3.48819E-002	3.96051E+001	11	...........	5.82181E-002	-3.34889E-003	5.50123E-001	6.88454E-001	-3.05469E-002	-3.94600E-002	6.18804E-001	-4.31183E-002	2.08978E-003	-1.20211E-004	1.97470E-002	2.47125E-002	-1.09650E-003	-1.41644E-003	2.22124E-002	-1.54776E-003
	77	77	1.10020E+000	3.60486E-002	0.00000E+000	3.96607E-002	3.59649E-001	3.52660E-002	3.94728E+001	11	...........	5.88454E-002	-3.40069E-003	5.50227E-001	6.88473E-001	-3.05406E-002	-3.94607E-002	6.18764E-001	-4.31526E-002	2.12130E-003	-1.22590E-004	1.98349E-002	2.48185E-002	-1.10094E-003	-1.42250E-003	2.23056E-002	-1.55559E-003
	78	78	1.10029E+000	3.60707E-002	0.00000E+000	3.96883E-002	3.59873E-001	3.53317E-002	3.94042E+001	11	...........	5.89724E-002	-3.53847E-003	5.50324E-001	6.88421E-001	-3.05126E-002	-3.94592E-002	6.18732E-001	-4.30928E-002	2.12717E-003	-1.27635E-004	1.98506E-002	2.48318E-002	-1.10061E-003	-1.42332E-003	2.23181E-002	-1.55439E-003
	79	79	1.10028E+000	3.55384E-002	0.00000E+000	3.91024E-002	3.54580E-001	3.50538E-002	3.81866E+001	11	...........	5.84937E-002	-3.64625E-003	5.50380E-001	6.88280E-001	-3.04867E-002	-3.94525E-002	6.18688E-001	-4.30340E-002	2.07878E-003	-1.29582E-004	1.95596E-002	2.44604E-002	-1.08345E-003	-1.40208E-003	2.19872E-002	-1.52936E-003
	80	80	1.10020E+000	3.57673E-002	0.00000E+000	3.93512E-002	3.56855E-001	3.50252E-002	3.82570E+001	11	...........	5.84461E-002	-3.70833E-003	5.50337E-001	6.88044E-001	-3.04668E-002	-3.94319E-002	6.18743E-001	-4.29894E-002	2.09046E-003	-1.32637E-004	1.96841E-002	2.46095E-002	-1.08972E-003	-1.41037E-003	2.21308E-002	-1.53762E-003
	81	81	1.10028E+000	3.57549E-002	0.00000E+000	3.93405E-002	3.56733E-001	3.53175E-002	3.94084E+001	11	...........	5.89393E-002	-3.75861E-003	5.50443E-001	6.87908E-001	-3.04422E-002	-3.94560E-002	6.18825E-001	-4.28892E-002	2.10737E-003	-1.34389E-004	1.96810E-002	2.45961E-002	-1.08846E-003	-1.41074E-003	2.21260E-002	-1.53350E-003
	82	82	1.10029E+000	3.52642E-002	0.00000E+000	3.88007E-002	3.51856E-001	3.48714E-002	3.85577E+001	11	...........	5.81912E-002	-3.74722E-003	5.50264E-001	6.87957E-001	-3.04147E-002	-3.94575E-002	6.18826E-001	-4.30317E-002	2.05207E-003	-1.32143E-004	1.94046E-002	2.42603E-002	-1.07255E-003	-1.39144E-003	2.18224E-002	-1.51748E-003
	83	83	1.10020E+000	3.54396E-002	0.00000E+000	3.89908E-002	3.53600E-001	3.52399E-002	3.74434E+001	11	...........	5.88007E-002	-3.70208E-003	5.50129E-001	6.87948E-001	-3.04046E-002	-3.94293E-002	6.18853E-001	-4.30232E-002	2.08387E-003	-1.31200E-004	1.94963E-002	2.43806E-002	-1.07753E-003	-1.39736E-003	2.19319E-002	-1.52472E-003
	84	84	1.10028E+000	3.54709E-002	0.00000E+000	3.90278E-002	3.53911E-001	3.50885E-002	3.90645E+001	11	...........	5.85410E-002	-3.67806E-003	5.49982E-001	6.88028E-001	-3.04092E-002	-3.94412E-002	6.18755E-001	-4.30865E-002	2.07650E-003	-1.30464E-004	1.95084E-002	2.44050E-002	-1.07864E-003	-1.39902E-003	2.19478E-002	-1.52832E-003
	85	85	1.10030E+000	3.50280E-002	0.00000E+000	3.85412E-002	3.49509E-001	3.48343E-002	3.99033E+001	11	...........	5.81199E-002	-3.62208E-003	5.49849E-001	6.87935E-001	-3.04147E-002	-3.94476E-002	6.18830E-001	-4.30599E-002	2.03582E-003	-1.26874E-004	1.92601E-002	2.40970E-002	-1.06537E-003	-1.38177E-003	2.16764E-002	-1.50830E-003
	86	86	1.10020E+000	3.51660E-002	0.00000E+000	3.86896E-002	3.50881E-001	3.53970E-002	3.84651E+001	11	...........	5.90568E-002	-3.63542E-003	5.49792E-001	6.87849E-001	-3.04264E-002	-3.94631E-002	6.18707E-001	-4.30635E-002	2.07679E-003	-1.27843E-004	1.93340E-002	2.41889E-002	-1.06997E-003	-1.38776E-003	2.17575E-002	-1.51437E-003
	87	87	1.10028E+000	3.51636E-002	0.00000E+000	3.86897E-002	3.50855E-001	3.50948E-002	3.90783E+001	11	...........	5.85714E-002	-3.53014E-003	5.49680E-001	6.87821E-001	-3.04503E-002	-3.94743E-002	6.18626E-001	-4.31444E-002	2.05958E-003	-1.24132E-004	1.93287E-002	2.41862E-002	-1.07074E-003	-1.38806E-003	2.17531E-002	-1.51711E-003
	88	88	1.10030E+000	3.46860E-002	0.00000E+000	3.81648E-002	3.46107E-001	3.47780E-002	3.84983E+001	11	...........	5.80468E-002	-3.52639E-003	5.49717E-001	6.87706E-001	-3.04726E-002	-3.94910E-002	6.18588E-001	-4.31567E-002	2.01341E-003	-1.22316E-004	1.90675E-002	2.38538E-002	-1.05697E-003	-1.36978E-003	2.14563E-002	-1.49693E-003
	89	89	1.10020E+000	3.48570E-002	0.00000E+000	3.83496E-002	3.47808E-001	3.49547E-002	3.87229E+001	11	...........	5.83242E-002	-3.52069E-003	5.49644E-001	6.87631E-001	-3.05132E-002	-3.95194E-002	6.18556E-001	-4.31650E-002	2.03300E-003	-1.22721E-004	1.91589E-002	2.39687E-002	-1.06360E-003	-1.37753E-003	2.15610E-002	-1.50460E-003
	90	90	1.10027E+000	3.48710E-002	0.00000E+000	3.83677E-002	3.47949E-001	3.54534E-002	3.88055E+001	11	...........	5.91758E-002	-3.66056E-003	5.49667E-001	6.87532E-001	-3.05336E-002	-3.95261E-002	6.18564E-001	-4.29456E-002	2.06352E-003	-1.27647E-004	1.91675E-002	2.39750E-002	-1.06474E-003	-1.37832E-003	2.15700E-002	-1.49756E-003
	91	91	1.10030E+000	3.43799E-002	0.00000E+000	3.78282E-002	3.43068E-001	3.46587E-002	3.90456E+001	11	...........	5.78461E-002	-3.55542E-003	5.49561E-001	6.87442E-001	-3.04990E-002	-3.95400E-002	6.18379E-001	-4.29053E-002	1.98874E-003	-1.22235E-004	1.88938E-002	2.36342E-002	-1.04855E-003	-1.35938E-003	2.12598E-002	-1.47508E-003
	92	92	1.10020E+000	3.44962E-002	0.00000E+000	3.79528E-002	3.44223E-001	3.49047E-002	3.78533E+001	11	...........	5.82686E-002	-3.43944E-003	5.49434E-001	6.87495E-001	-3.04687E-002	-3.95517E-002	6.18432E-001	-4.28661E-002	2.01005E-003	-1.18648E-004	1.89534E-002	2.37160E-002	-1.05106E-003	-1.36438E-003	2.13336E-002	-1.47872E-003
	93	93	1.10027E+000	3.46226E-002	0.00000E+000	3.80942E-002	3.45477E-001	3.53537E-002	3.90743E+001	11	...........	5.89969E-002	-3.38458E-003	5.49342E-001	6.87448E-001	-3.04475E-002	-3.95486E-002	6.18527E-001	-4.29040E-002	2.04263E-003	-1.17183E-004	1.90197E-002	2.38013E-002	-1.05417E-003	-1.36928E-003	2.14150E-002	-1.48545E-003
	94	94	1.10031E+000	3.41402E-002	0.00000E+000	3.75648E-002	3.40683E-001	3.47415E-002	3.85159E+001	11	...........	5.79542E-002	-3.58833E-003	5.49379E-001	6.87393E-001	-3.04294E-002	-3.95467E-002	6.18432E-001	-4.28387E-002	1.97857E-003	-1.22506E-004	1.87559E-002	2.34677E-002	-1.03887E-003	-1.35013E-003	2.11134E-002	-1.46252E-003
	95	95	1.10019E+000	3.42082E-002	0.00000E+000	3.76355E-002	3.41359E-001	3.49625E-002	3.66623E+001	11	...........	5.83529E-002	-3.54056E-003	5.49314E-001	6.87312E-001	-3.04418E-002	-3.95368E-002	6.18420E-001	-4.30061E-002	1.99615E-003	-1.21116E-004	1.87910E-002	2.35117E-002	-1.04136E-003	-1.35248E-003	2.11550E-002	-1.47116E-003
	96	96	1.10027E+000	3.43005E-002	0.00000E+000	3.77399E-002	3.42279E-001	3.44132E-002	3.77330E+001	11	...........	5.74281E-002	-3.53486E-003	5.49201E-001	6.87172E-001	-3.04453E-002	-3.95286E-002	6.18465E-001	-4.30522E-002	1.96981E-003	-1.21248E-004	1.88379E-002	2.35704E-002	-1.04429E-003	-1.35585E-003	2.12137E-002	-1.47671E-003
	97	97	1.10031E+000	3.39141E-002	0.00000E+000	3.73159E-002	3.38439E-001	3.56273E-002	3.86653E+001	11	...........	5.94535E-002	-3.59583E-003	5.49088E-001	6.87123E-001	-3.04514E-002	-3.95339E-002	6.18614E-001	-4.30178E-002	2.01631E-003	-1.21949E-004	1.86218E-002	2.33031E-002	-1.03273E-003	-1.34076E-003	2.09797E-002	-1.45891E-003
	98	98	1.10020E+000	3.40073E-002	0.00000E+000	3.74147E-002	3.39360E-001	3.46410E-002	3.86042E+001	11	...........	5.78042E-002	-3.65264E-003	5.48957E-001	6.87057E-001	-3.04774E-002	-3.95360E-002	6.18570E-001	-4.30787E-002	1.96576E-003	-1.24216E-004	1.86685E-002	2.33649E-002	-1.03645E-003	-1.34451E-003	2.10359E-002	-1.46499E-003
	99	99	1.10026E+000	3.40457E-002	0.00000E+000	3.74592E-002	3.39739E-001	3.50271E-002	3.91429E+001	11	...........	5.84560E-002	-3.61472E-003	5.48906E-001	6.87064E-001	-3.04614E-002	-3.95572E-002	6.18555E-001	-4.30546E-002	1.99017E-003	-1.23066E-004	1.86879E-002	2.33915E-002	-1.03708E-003	-1.34675E-003	2.10591E-002	-1.46582E-003
	100	100	1.10031E+000	3.36487E-002	0.00000E+000	3.70241E-002	3.35794E-001	3.48798E-002	3.90009E+001	11	...........	5.81846E-002	-3.52569E-003	5.48776E-001	6.87008E-001	-3.04597E-002	-3.95492E-002	6.18468E-001	-4.29683E-002	1.95783E-003	-1.18635E-004	1.84656E-002	2.31169E-002	-1.02493E-003	-1.33078E-003	2.08106E-002	-1.44583E-003
	101	101	1.10020E+000	3.37142E-002	0.00000E+000	3.70922E-002	3.36445E-001	3.50157E-002	3.88202E+001	11	...........	5.84143E-002	-3.43486E-003	5.48742E-001	6.86910E-001	-3.04914E-002	-3.95400E-002	6.18559E-001	-4.29554E-002	1.96939E-003	-1.15803E-004	1.85004E-002	2.31586E-002	-1.02799E-003	-1.33306E-003	2.08542E-002	-1.44821E-003
	102	102	1.10026E+000	3.37113E-002	0.00000E+000	3.70913E-002	3.36416E-001	3.45509E-002	3.76012E+001	11	...........	5.76468E-002	-3.47625E-003	5.48765E-001	6.86918E-001	-3.04719E-002	-3.95203E-002	6.18639E-001	-4.29686E-002	1.94335E-003	-1.17189E-004	1.84996E-002	2.31569E-002	-1.02725E-003	-1.33228E-003	2.08551E-002	-1.44853E-003
	103	103	1.10031E+000	3.33802E-002	0.00000E+000	3.67287E-002	3.33121E-001	3.51939E-002	3.87855E+001	11	...........	5.87239E-002	-3.44958E-003	5.48889E-001	6.86898E-001	-3.04374E-002	-3.95281E-002	6.18645E-001	-4.30553E-002	1.96021E-003	-1.15148E-004	1.83220E-002	2.29288E-002	-1.01600E-003	-1.31945E-003	2.06505E-002	-1.43719E-003
	104	104	1.10019E+000	3.34823E-002	0.00000E+000	3.68369E-002	3.34137E-001	3.47311E-002	3.82072E+001	11	...........	5.79646E-002	-3.48667E-003	5.49044E-001	6.87008E-001	-3.04406E-002	-3.95306E-002	6.18641E-001	-4.30206E-002	1.94079E-003	-1.16742E-004	1.83833E-002	2.30026E-002	-1.01922E-003	-1.32357E-003	2.07135E-002	-1.44043E-003
	105	105	1.10026E+000	3.34499E-002	0.00000E+000	3.68037E-002	3.33816E-001	3.44605E-002	3.78795E+001	11	...........	5.75151E-002	-3.44097E-003	5.48926E-001	6.87190E-001	-3.04537E-002	-3.95340E-002	6.18571E-001	-4.29090E-002	1.92388E-003	-1.15100E-004	1.83615E-002	2.29864E-002	-1.01868E-003	-1.32241E-003	2.06912E-002	-1.43530E-003
	106	106	1.10032E+000	3.31048E-002	0.00000E+000	3.64259E-002	3.30382E-001	3.50286E-002	3.82523E+001	11	...........	5.84604E-002	-3.56194E-003	5.48807E-001	6.87101E-001	-3.04497E-002	-3.95564E-002	6.18650E-001	-4.29228E-002	1.93532E-003	-1.17917E-004	1.81682E-002	2.27464E-002	-1.00803E-003	-1.30951E-003	2.04803E-002	-1.42095E-003
	107	107	1.10019E+000	3.31722E-002	0.00000E+000	3.64958E-002	3.31053E-001	3.51078E-002	3.91988E+001	11	...........	5.85885E-002	-3.63847E-003	5.48690E-001	6.86923E-001	-3.04849E-002	-3.95421E-002	6.18643E-001	-4.30394E-002	1.94351E-003	-1.20696E-004	1.82013E-002	2.27868E-002	-1.01125E-003	-1.31170E-003	2.05218E-002	-1.42771E-003
	108	108	1.10026E+000	3.31641E-002	0.00000E+000	3.64890E-002	3.30971E-001	3.46303E-002	3.84035E+001	11	...........	5.77789E-002	-3.52389E-003	5.48586E-001	6.86828E-001	-3.04801E-002	-3.95378E-002	6.18599E-001	-4.30839E-002	1.91618E-003	-1.16866E-004	1.81933E-002	2.27780E-002	-1.01084E-003	-1.31123E-003	2.05153E-002	-1.42884E-003
	109	109	1.10032E+000	3.28201E-002	0.00000E+000	3.61126E-002	3.27553E-001	3.47424E-002	3.81727E+001	11	...........	5.79657E-002	-3.54472E-003	5.48396E-001	6.86785E-001	-3.04767E-002	-3.95228E-002	6.18600E-001	-4.29860E-002	1.90244E-003	-1.16338E-004	1.79984E-002	2.25404E-002	-1.00025E-003	-1.29714E-003	2.03025E-002	-1.41080E-003
	110	110	1.10020E+000	3.28670E-002	0.00000E+000	3.61602E-002	3.28019E-001	3.47282E-002	3.90939E+001	11	...........	5.79521E-002	-3.58722E-003	5.48334E-001	6.86809E-001	-3.05062E-002	-3.95226E-002	6.18624E-001	-4.29482E-002	1.90471E-003	-1.17901E-004	1.80221E-002	2.25734E-002	-1.00265E-003	-1.29899E-003	2.03323E-002	-1.41158E-003
	111	111	1.10025E+000	3.29536E-002	0.00000E+000	3.62573E-002	3.28881E-001	3.49386E-002	3.82552E+001	11	...........	5.82937E-002	-3.51833E-003	5.48358E-001	6.86813E-001	-3.05297E-002	-3.95315E-002	6.18566E-001	-4.28818E-002	1.92099E-003	-1.15942E-004	1.80704E-002	2.26330E-002	-1.00606E-003	-1.30271E-003	2.03840E-002	-1.41311E-003
	112	112	1.10032E+000	3.25887E-002	0.00000E+000	3.58581E-002	3.25254E-001	3.46883E-002	3.85948E+001	11	...........	5.78826E-002	-3.43306E-003	5.48260E-001	6.86865E-001	-3.05328E-002	-3.95325E-002	6.18628E-001	-4.30051E-002	1.88632E-003	-1.11879E-004	1.78671E-002	2.23840E-002	-9.95023E-004	-1.28831E-003	2.01603E-002	-1.40148E-003
	113	113	1.10020E+000	3.26025E-002	0.00000E+000	3.58691E-002	3.25396E-001	3.48263E-002	3.89398E+001	11	...........	5.81169E-002	-3.39611E-003	5.48235E-001	6.86760E-001	-3.05304E-002	-3.95382E-002	6.18780E-001	-4.30462E-002	1.89476E-003	-1.10722E-004	1.78738E-002	2.23901E-002	-9.95368E-004	-1.28904E-003	2.01738E-002	-1.40342E-003
	114	114	1.10025E+000	3.26602E-002	0.00000E+000	3.59345E-002	3.25966E-001	3.45512E-002	3.86791E+001	11	...........	5.76579E-002	-3.65806E-003	5.48266E-001	6.86636E-001	-3.05258E-002	-3.95560E-002	6.18866E-001	-4.28287E-002	1.88312E-003	-1.19473E-004	1.79064E-002	2.24257E-002	-9.96979E-004	-1.29190E-003	2.02123E-002	-1.39879E-003
	115	115	1.10032E+000	3.23151E-002	0.00000E+000	3.55572E-002	3.22541E-001	3.50328E-002	3.92050E+001	11	...........	5.84504E-002	-3.51319E-003	5.48339E-001	6.86520E-001	-3.05150E-002	-3.95631E-002	6.18825E-001	-4.28075E-002	1.88883E-003	-1.13529E-004	1.77196E-002	2.21850E-002	-9.86097E-004	-1.27849E-003	1.99974E-002	-1.38333E-003
	116	116	1.10019E+000	3.23091E-002	0.00000E+000	3.55463E-002	3.22475E-001	3.44558E-002	3.76394E+001	11	...........	5.74828E-002	-3.49222E-003	5.48072E-001	6.86749E-001	-3.04747E-002	-3.95511E-002	6.18757E-001	-4.30067E-002	1.85722E-003	-1.12831E-004	1.77077E-002	2.21882E-002	-9.84611E-004	-1.27786E-003	1.99915E-002	-1.38951E-003
	117	117	1.10025E+000	3.23782E-002	0.00000E+000	3.56241E-002	3.23161E-001	3.46562E-002	3.76632E+001	11	...........	5.78169E-002	-3.68361E-003	5.48037E-001	6.86824E-001	-3.04612E-002	-3.95507E-002	6.18781E-001	-4.29810E-002	1.87201E-003	-1.19269E-004	1.77444E-002	2.22381E-002	-9.86279E-004	-1.28058E-003	2.00350E-002	-1.39164E-003
	118	118	1.10033E+000	3.20981E-002	0.00000E+000	3.53184E-002	3.20376E-001	3.48657E-002	3.78653E+001	11	...........	5.81742E-002	-3.68486E-003	5.48107E-001	6.86756E-001	-3.04674E-002	-3.95400E-002	6.18773E-001	-4.29004E-002	1.86728E-003	-1.18277E-004	1.75932E-002	2.20436E-002	-9.77944E-004	-1.26916E-003	1.98614E-002	-1.37702E-003
	119	119	1.10020E+000	3.20598E-002	0.00000E+000	3.52720E-002	3.19993E-001	3.45816E-002	3.88267E+001	11	...........	5.77010E-002	-3.74625E-003	5.48135E-001	6.86766E-001	-3.04437E-002	-3.95269E-002	6.18883E-001	-4.28765E-002	1.84988E-003	-1.20104E-004	1.75731E-002	2.20175E-002	-9.76019E-004	-1.26722E-003	1.98412E-002	-1.37461E-003
	120	120	1.10025E+000	3.21815E-002	0.00000E+000	3.54076E-002	3.21199E-001	3.48522E-002	3.88771E+001	11	...........	5.81640E-002	-3.64875E-003	5.48155E-001	6.86795E-001	-3.04347E-002	-3.95186E-002	6.18954E-001	-4.29296E-002	1.87181E-003	-1.17422E-004	1.76404E-002	2.21021E-002	-9.79435E-004	-1.27177E-003	1.99189E-002	-1.38154E-003
	121	121	1.10033E+000	3.18132E-002	0.00000E+000	3.50050E-002	3.17542E-001	3.44218E-002	3.93463E+001	11	...........	5.74521E-002	-3.66792E-003	5.48255E-001	6.86838E-001	-3.04335E-002	-3.95117E-002	6.18923E-001	-4.28900E-002	1.82774E-003	-1.16688E-004	1.74418E-002	2.18505E-002	-9.68187E-004	-1.25699E-003	1.96900E-002	-1.36447E-003
	122	122	1.10020E+000	3.18132E-002	0.00000E+000	3.50007E-002	3.17540E-001	3.47253E-002	3.87162E+001	11	...........	5.79581E-002	-3.70694E-003	5.48411E-001	6.86864E-001	-3.04250E-002	-3.95346E-002	6.18915E-001	-4.29086E-002	1.84383E-003	-1.17930E-004	1.74467E-002	2.18514E-002	-9.67917E-004	-1.25772E-003	1.96897E-002	-1.36506E-003
	123	123	1.10025E+000	3.19096E-002	0.00000E+000	3.51085E-002	3.18499E-001	3.46230E-002	3.92352E+001	11	...........	5.77640E-002	-3.73167E-003	5.48356E-001	6.86966E-001	-3.04353E-002	-3.95272E-002	6.18814E-001	-4.30332E-002	1.84322E-003	-1.19076E-004	1.74978E-002	2.19208E-002	-9.71176E-004	-1.26130E-003	1.97461E-002	-1.37317E-003
	124	124	1.10033E+000	3.15497E-002	0.00000E+000	3.47151E-002	3.14928E-001	3.44844E-002	3.87946E+001	11	...........	5.75371E-002	-3.66264E-003	5.48365E-001	6.87027E-001	-3.04099E-002	-3.95218E-002	6.18726E-001	-4.30537E-002	1.81528E-003	-1.15555E-004	1.73008E-002	2.16755E-002	-9.59423E-004	-1.24690E-003	1.95206E-002	-1.35833E-003
	125	125	1.10020E+000	3.15720E-002	0.00000E+000	3.47354E-002	3.15145E-001	3.47460E-002	3.90924E+001	11	...........	5.79799E-002	-3.64389E-003	5.48384E-001	6.87032E-001	-3.04511E-002	-3.95083E-002	6.18831E-001	-4.30908E-002	1.83054E-003	-1.15045E-004	1.73136E-002	2.16910E-002	-9.61402E-004	-1.24736E-003	1.95377E-002	-1.36046E-003
	126	126	1.10024E+000	3.16328E-002	0.00000E+000	3.48038E-002	3.15751E-001	3.44582E-002	3.79066E+001	11	...........	5.75160E-002	-3.70958E-003	5.48362E-001	6.87071E-001	-3.04864E-002	-3.94972E-002	6.18847E-001	-4.31621E-002	1.81939E-003	-1.17344E-004	1.73462E-002	2.17340E-002	-9.64369E-004	-1.24941E-003	1.95758E-002	-1.36534E-003
	127	127	1.10033E+000	3.13126E-002	0.00000E+000	3.44541E-002	3.12567E-001	3.46373E-002	3.86271E+001	11	...........	5.77878E-002	-3.67097E-003	5.48456E-001	6.87115E-001	-3.05181E-002	-3.95107E-002	6.18802E-001	-4.31476E-002	1.80948E-003	-1.14948E-004	1.71736E-002	2.15153E-002	-9.55599E-004	-1.23718E-003	1.93763E-002	-1.35106E-003
	128	128	1.10020E+000	3.13166E-002	0.00000E+000	3.44544E-002	3.12608E-001	3.48044E-002	3.89020E+001	11	...........	5.80743E-002	-3.64819E-003	5.48512E-001	6.87207E-001	-3.05601E-002	-3.95233E-002	6.18881E-001	-4.30931E-002	1.81869E-003	-1.14249E-004	1.71775E-002	2.15210E-002	-9.57039E-004	-1.23774E-003	1.93812E-002	-1.34953E-003
	129	129	1.10025E+000	3.13575E-002	0.00000E+000	3.45010E-002	3.13007E-001	3.41160E-002	3.82270E+001	11	...........	5.69308E-002	-3.49431E-003	5.48516E-001	6.87224E-001	-3.05899E-002	-3.95347E-002	6.18786E-001	-4.30075E-002	1.78521E-003	-1.09573E-004	1.72001E-002	2.15496E-002	-9.59220E-004	-1.23971E-003	1.94035E-002	-1.34861E-003
	130	130	1.10033E+000	3.10018E-002	0.00000E+000	3.41122E-002	3.09475E-001	3.45902E-002	3.56509E+001	11	...........	5.77235E-002	-3.47611E-003	5.48501E-001	6.87204E-001	-3.05646E-002	-3.95240E-002	6.18816E-001	-4.28297E-002	1.78953E-003	-1.07766E-004	1.70045E-002	2.13045E-002	-9.47556E-004	-1.22531E-003	1.91844E-002	-1.32780E-003
	131	131	1.10020E+000	3.10892E-002	0.00000E+000	3.42042E-002	3.10343E-001	3.44544E-002	4.00290E+001	11	...........	5.74976E-002	-3.47778E-003	5.48468E-001	6.87299E-001	-3.05256E-002	-3.95472E-002	6.18744E-001	-4.29315E-002	1.78756E-003	-1.08121E-004	1.70515E-002	2.13676E-002	-9.49016E-004	-1.22949E-003	1.92363E-002	-1.33471E-003
	132	132	1.10025E+000	3.11309E-002	0.00000E+000	3.42516E-002	3.10761E-001	3.46364E-002	3.83815E+001	11	...........	5.78025E-002	-3.55847E-003	5.48679E-001	6.87444E-001	-3.05068E-002	-3.95776E-002	6.18617E-001	-4.30010E-002	1.79944E-003	-1.10778E-004	1.70809E-002	2.14007E-002	-9.49704E-004	-1.23209E-003	1.92581E-002	-1.33866E-003
	133	133	1.10033E+000	3.08409E-002	0.00000E+000	3.39351E-002	3.07875E-001	3.43582E-002	3.75255E+001	11	...........	5.73478E-002	-3.44931E-003	5.48459E-001	6.87448E-001	-3.05012E-002	-3.95811E-002	6.18507E-001	-4.29885E-002	1.76866E-003	-1.06380E-004	1.69150E-002	2.12015E-002	-9.40685E-004	-1.22072E-003	1.90753E-002	-1.32580E-003
	134	134	1.10020E+000	3.07886E-002	0.00000E+000	3.38735E-002	3.07355E-001	3.45426E-002	3.74550E+001	11	...........	5.76272E-002	-3.35972E-003	5.48376E-001	6.87376E-001	-3.04867E-002	-3.95567E-002	6.18539E-001	-4.29639E-002	1.77426E-003	-1.03441E-004	1.68837E-002	2.11633E-002	-9.38640E-004	-1.21789E-003	1.90439E-002	-1.32280E-003
	135	135	1.10025E+000	3.09176E-002	0.00000E+000	3.40170E-002	3.08636E-001	3.43028E-002	3.86478E+001	11	...........	5.72396E-002	-3.45542E-003	5.48374E-001	6.87369E-001	-3.04974E-002	-3.95328E-002	6.18565E-001	-4.31165E-002	1.76971E-003	-1.06833E-004	1.69544E-002	2.12518E-002	-9.42905E-004	-1.22226E-003	1.91245E-002	-1.33306E-003
	136	136	1.10033E+000	3.06280E-002	0.00000E+000	3.37009E-002	3.05761E-001	3.46481E-002	3.83071E+001	11	...........	5.78068E-002	-3.53097E-003	5.48569E-001	6.87435E-001	-3.05069E-002	-3.95225E-002	6.18715E-001	-4.30179E-002	1.77051E-003	-1.08147E-004	1.68016E-002	2.10548E-002	-9.34368E-004	-1.21050E-003	1.89500E-002	-1.31755E-003
	137	137	1.10020E+000	3.05182E-002	0.00000E+000	3.35761E-002	3.04671E-001	3.43754E-002	3.82282E+001	11	...........	5.73571E-002	-3.49917E-003	5.48563E-001	6.87568E-001	-3.05001E-002	-3.95306E-002	6.18651E-001	-4.30818E-002	1.75043E-003	-1.06788E-004	1.67411E-002	2.09833E-002	-9.30808E-004	-1.20640E-003	1.88801E-002	-1.31478E-003
	138	138	1.10024E+000	3.06396E-002	0.00000E+000	3.37110E-002	3.05876E-001	3.44851E-002	3.91053E+001	11	...........	5.75456E-002	-3.60431E-003	5.48931E-001	6.87619E-001	-3.04754E-002	-3.95353E-002	6.18792E-001	-4.29339E-002	1.76317E-003	-1.10435E-004	1.68191E-002	2.10684E-002	-9.33756E-004	-1.21135E-003	1.89596E-002	-1.31548E-003
	139	139	1.10033E+000	3.04176E-002	0.00000E+000	3.34693E-002	3.03671E-001	3.46502E-002	3.85028E+001	11	...........	5.78431E-002	-3.60250E-003	5.48872E-001	6.87731E-001	-3.04533E-002	-3.95292E-002	6.18800E-001	-4.28928E-002	1.75944E-003	-1.09579E-004	1.66953E-002	2.09191E-002	-9.26316E-004	-1.20238E-003	1.88224E-002	-1.30469E-003
	140	140	1.10020E+000	3.02558E-002	0.00000E+000	3.32875E-002	3.02063E-001	3.39576E-002	3.69492E+001	11	...........	5.66589E-002	-3.53250E-003	5.48701E-001	6.87750E-001	-3.04521E-002	-3.95399E-002	6.18686E-001	-4.28903E-002	1.71426E-003	-1.06879E-004	1.66014E-002	2.08084E-002	-9.21352E-004	-1.19631E-003	1.87188E-002	-1.29768E-003
	141	141	1.10024E+000	3.04078E-002	0.00000E+000	3.34560E-002	3.03577E-001	3.46509E-002	3.82522E+001	11	...........	5.78175E-002	-3.44917E-003	5.48648E-001	6.87712E-001	-3.04626E-002	-3.95114E-002	6.18777E-001	-4.28751E-002	1.75811E-003	-1.04882E-004	1.66832E-002	2.09118E-002	-9.26303E-004	-1.20146E-003	1.88157E-002	-1.30374E-003
	142	142	1.10033E+000	3.01358E-002	0.00000E+000	3.31592E-002	3.00871E-001	3.43057E-002	3.92953E+001	11	...........	5.72560E-002	-3.38806E-003	5.48684E-001	6.87884E-001	-3.04887E-002	-3.95094E-002	6.18736E-001	-4.29436E-002	1.72546E-003	-1.02102E-004	1.65350E-002	2.07299E-002	-9.18803E-004	-1.19065E-003	1.86461E-002	-1.29414E-003
	143	143	1.10021E+000	2.99679E-002	0.00000E+000	3.29708E-002	2.99197E-001	3.43509E-002	3.68965E+001	11	...........	5.73274E-002	-3.34153E-003	5.48857E-001	6.87946E-001	-3.05289E-002	-3.95022E-002	6.18880E-001	-4.29110E-002	1.71798E-003	-1.00138E-004	1.64481E-002	2.06163E-002	-9.14886E-004	-1.18380E-003	1.85465E-002	-1.28595E-003
	144	144	1.10024E+000	3.01797E-002	0.00000E+000	3.32048E-002	3.01299E-001	3.42674E-002	3.86365E+001	11	...........	5.71772E-002	-3.36889E-003	5.49033E-001	6.88050E-001	-3.05133E-002	-3.94903E-002	6.18866E-001	-4.29589E-002	1.72559E-003	-1.01672E-004	1.65696E-002	2.07651E-002	-9.20882E-004	-1.19180E-003	1.86772E-002	-1.29649E-003
	145	145	1.10033E+000	2.98728E-002	0.00000E+000	3.28699E-002	2.98250E-001	3.45742E-002	3.82041E+001	11	...........	5.76828E-002	-3.49403E-003	5.49079E-001	6.88061E-001	-3.05361E-002	-3.95011E-002	6.18809E-001	-4.28990E-002	1.72315E-003	-1.04377E-004	1.64025E-002	2.05543E-002	-9.12200E-004	-1.18001E-003	1.84856E-002	-1.28152E-003
	146	146	1.10021E+000	2.97262E-002	0.00000E+000	3.27050E-002	2.96799E-001	3.40825E-002	3.82915E+001	11	...........	5.68728E-002	-3.53431E-003	5.49063E-001	6.87910E-001	-3.05518E-002	-3.94910E-002	6.18723E-001	-4.30011E-002	1.69061E-003	-1.05062E-004	1.63216E-002	2.04490E-002	-9.08190E-004	-1.17392E-003	1.83923E-002	-1.27826E-003
	147	147	1.10024E+000	2.99024E-002	0.00000E+000	3.28997E-002	2.98550E-001	3.46062E-002	3.84945E+001	11	...........	5.77446E-002	-3.62431E-003	5.49010E-001	6.87776E-001	-3.05992E-002	-3.94804E-002	6.18756E-001	-4.28160E-002	1.72670E-003	-1.08375E-004	1.64167E-002	2.05661E-002	-9.14988E-004	-1.18056E-003	1.85023E-002	-1.28030E-003
	148	148	1.10033E+000	2.96699E-002	0.00000E+000	3.26466E-002	2.96236E-001	3.44349E-002	3.77058E+001	11	...........	5.74651E-002	-3.49972E-003	5.48871E-001	6.87722E-001	-3.05960E-002	-3.94699E-002	6.18700E-001	-4.29325E-002	1.70499E-003	-1.03837E-004	1.62850E-002	2.04047E-002	-9.07781E-004	-1.17107E-003	1.83568E-002	-1.27381E-003
	149	149	1.10021E+000	2.94929E-002	0.00000E+000	3.24483E-002	2.94481E-001	3.39102E-002	3.79179E+001	11	...........	5.65768E-002	-3.41625E-003	5.48863E-001	6.87692E-001	-3.05839E-002	-3.94715E-002	6.18561E-001	-4.29504E-002	1.66861E-003	-1.00755E-004	1.61876E-002	2.02821E-002	-9.02008E-004	-1.16413E-003	1.82432E-002	-1.26673E-003
	150	150	1.10024E+000	2.96269E-002	0.00000E+000	3.25967E-002	2.95812E-001	3.45086E-002	3.78434E+001	11	...........	5.75794E-002	-3.58403E-003	5.48681E-001	6.87656E-001	-3.05549E-002	-3.94962E-002	6.18593E-001	-4.29197E-002	1.70590E-003	-1.06184E-004	1.62558E-002	2.03731E-002	-9.05247E-004	-1.17015E-003	1.83270E-002	-1.27158E-003
	151	151	1.10032E+000	2.94215E-002	0.00000E+000	3.23731E-002	2.93771E-001	3.43215E-002	3.87249E+001	11	...........	5.72826E-002	-3.73736E-003	5.48748E-001	6.87790E-001	-3.05254E-002	-3.95133E-002	6.18711E-001	-4.29896E-002	1.68534E-003	-1.09959E-004	1.61450E-002	2.02358E-002	-8.98103E-004	-1.16254E-003	1.82034E-002	-1.26482E-003
	152	152	1.10021E+000	2.92984E-002	0.00000E+000	3.22345E-002	2.92550E-001	3.43330E-002	3.82903E+001	11	...........	5.72947E-002	-3.68417E-003	5.48793E-001	6.87745E-001	-3.05031E-002	-3.95251E-002	6.18675E-001	-4.29936E-002	1.67864E-003	-1.07940E-004	1.60787E-002	2.01498E-002	-8.93691E-004	-1.15802E-003	1.81262E-002	-1.25964E-003
	153	153	1.10024E+000	2.94185E-002	0.00000E+000	3.23673E-002	2.93744E-001	3.41823E-002	3.81140E+001	11	...........	5.70271E-002	-3.54917E-003	5.48670E-001	6.87851E-001	-3.05033E-002	-3.95464E-002	6.18740E-001	-4.29836E-002	1.67765E-003	-1.04411E-004	1.61410E-002	2.02355E-002	-8.97362E-004	-1.16340E-003	1.82024E-002	-1.26451E-003
	154	153.822	1.10035E+000	2.91631E-002	0.00000E+000	3.20896E-002	2.91204E-001	3.43302E-002	3.81072E+001	11	...........	5.72792E-002	-3.53702E-003	5.48717E-001	6.87893E-001	-3.05144E-002	-3.95303E-002	6.18662E-001	-4.29370E-002	1.67044E-003	-1.03151E-004	1.60023E-002	2.00611E-002	-8.89894E-004	-1.15283E-003	1.80421E-002	-1.25218E-003
STARTTIMEOFFSET	QUANT	427583.3	Start Time Offset (s)
