EXPLAIN
TAG	PWR800_CHARGE
TITLE	LABEL	PWR Charge	Test Identifier
DATE	LABEL	10/12/2022	Date
TIME	LABEL	22:25:15	Time
NOTES	NOTES	1	Notes...
	
PSTAT	PSTAT	REF3000-21114	Potentiostat
CAPACITY	QUANT	5.30000E-002	Capacity (A-hr)
CELLTYPE	SELECTOR	1	Cell Type
WORKINGCONNECTION	SELECTOR	0	Working Connection
MAXCHARGETIME	VARIABLEANDUNITS	7.20000E+003	s	2.00000E+000	hour(s)	Max Charge Time
CHARGEMODE	MULTIPARAM	0	1.00000E-001	Charge Mode	Constant Current	Amp(s)
CHARGECURRENT	QUANT	0.1	Charge Current (A)
VOLTAGEFINISH	TWOPARAM	T	2.50000E-002	7.20000E+003	Voltage Finish	I (A) <	Max Time(s)
SAMPLETIME	QUANT	1.00000E+000	Sample Period (s)
CHARGESTOPAT1	MULTIPARAM	2	1.10000E+000	Stop At 1	|Voltage| > Limit	V
CHARGESTOPAT2	MULTIPARAM	0	0.00000E+000	Stop At 2	None	N/A
AESELECTOR	AESELECTOR	0x1	T	Set Limits	AE Channels
AESBHCSELECTOR	TOGGLE	F	Save Both Half Cells
IRCOMP	TOGGLE	F	IR Measure
EOC	QUANT	0.2530254	Open Circuit (V)
SEQUENCER	TOGGLE	TRUE	Run as Sequence
PSTATMODEL	IQUANT	5	Pstat Model
PSTATSECTION	LABEL	REF3000-21114	Pstat Section
PSTATSERIALNO	LABEL	21114	Pstat Serial Number
CTRLMODE	IQUANT	0	Control Mode
ELECTROMETER	IQUANT	0	RE=0 or CS=1
IESTAB	IQUANT	0	I/E Stability
CASPEED	IQUANT	4	Control Amp Speed
CONVENTION	IQUANT	1	Current Convention
ICHRANGE	IQUANT	2	Ich Range
ICHRANGEMODE	TOGGLE	T	Ich Auto Range
ICHOFFSETENABLE	TOGGLE	F	Ich Offset Enable
ICHOFFSET	QUANT	0	Ich Offset (V)
ICHFILTER	IQUANT	1	Ich Filter
VCHRANGE	IQUANT	3	Vch Range
VCHRANGEMODE	TOGGLE	T	Vch Auto Range
VCHOFFSETENABLE	TOGGLE	F	Vch Offset Enable
VCHOFFSET	QUANT	0	Vch Offset (V)
VCHFILTER	IQUANT	1	Vch Filter
ACHRANGE	IQUANT	2	Ach Range
ACHOFFSETENABLE	TOGGLE	F	Ach Offset Enable
ACHOFFSET	QUANT	0	Ach Offset (V)
ACHFILTER	IQUANT	1	Ach Filter
IERANGELOWERLIMIT	IQUANT	9	I/E Range Lower Limit
IERANGEMODE	TOGGLE	F	I/E AutoRange
IERANGE	IQUANT	9	I/E Range
POSFEEDENABLE	TOGGLE	F	Positive Feedback IR Comp
POSFEEDRESISTANCE	QUANT	0	Positive Feedback Resistance (ohm)
ACHSELECT	IQUANT	1	Ach Select
SENSECABLEID	IQUANT	13	Sense Cable ID
PWRCABLEID	IQUANT	13	Power Cable ID
DCCALDATE	LABEL		DC Calibration Date
ACCALDATE	LABEL		AC Calibration Date
THERMOSELECT	IQUANT	1	Thermo Select
FRAMEWORKVERSION	LABEL	7.8.6	Framework Version
INSTRUMENTVERSION	LABEL	4.50	Instrument Version
COMPLIANCEVOLTAGE	IQUANT	0	Compliance Voltage
CURVE	TABLE	100
	Pt	T	Vf	Im	Vu	Pwr	Sig	Ach	Temp	IERange	Over	Vf1	Vf2	Vf3	Vf4	Vf5	Vf6	Vf7	Vf8	Pwr1	Pwr2	Pwr3	Pwr4	Pwr5	Pwr6	Pwr7	Pwr8
	#	s	V	A	V	W	V	V	deg C	#	bits	V	V	V	V	V	V	V	V	W	W	W	W	W	W	W	W
	0	1	5.38840E-001	9.98512E-002	0.00000E+000	5.38038E-002	9.94000E-001	4.13805E-002	4.08921E+001	11	...........	6.87219E-002	-4.74861E-003	5.70869E-001	6.16303E-001	-2.95844E-002	-3.95146E-002	6.61552E-001	-4.35371E-002	6.86197E-003	-4.74155E-004	5.70019E-002	6.15386E-002	-2.95404E-003	-3.94558E-003	6.60568E-002	-4.34723E-003
	1	2	7.77367E-001	9.98520E-002	0.00000E+000	7.76216E-002	9.94000E-001	4.19526E-002	4.45685E+001	11	...........	6.96883E-002	-4.72472E-003	5.71074E-001	6.16289E-001	-2.95144E-002	-3.95444E-002	6.61631E-001	-4.35682E-002	6.95852E-003	-4.71773E-004	5.70228E-002	6.15377E-002	-2.94707E-003	-3.94859E-003	6.60651E-002	-4.35037E-003
	2	2.25833	1.04852E+000	9.98527E-002	0.00000E+000	1.04697E-001	9.94000E-001	4.26890E-002	5.01903E+001	11	...........	7.09140E-002	-4.87204E-003	5.71287E-001	6.16195E-001	-2.95102E-002	-3.95473E-002	6.61723E-001	-4.35710E-002	7.08095E-003	-4.86486E-004	5.70445E-002	6.15287E-002	-2.94667E-003	-3.94890E-003	6.60748E-002	-4.35068E-003
	3	3	1.10059E+000	7.01092E-002	0.00000E+000	7.71612E-002	6.98210E-001	4.21011E-002	5.03347E+001	11	...........	6.99112E-002	-4.89195E-003	5.71324E-001	6.16218E-001	-2.95150E-002	-3.95575E-002	6.61610E-001	-4.35869E-002	4.90142E-003	-3.42971E-004	4.00551E-002	4.32026E-002	-2.06927E-003	-2.77335E-003	4.63850E-002	-3.05584E-003
	4	4	1.10019E+000	5.35417E-002	0.00000E+000	5.89061E-002	5.33450E-001	4.22887E-002	4.92991E+001	11	...........	7.02136E-002	-4.66514E-003	5.71270E-001	6.16253E-001	-2.95296E-002	-3.95182E-002	6.61530E-001	-4.35436E-002	3.75936E-003	-2.49780E-004	3.05868E-002	3.29953E-002	-1.58107E-003	-2.11587E-003	3.54195E-002	-2.33140E-003
	5	5	1.10007E+000	4.72816E-002	0.00000E+000	5.20132E-002	4.71208E-001	4.18269E-002	4.86981E+001	11	...........	6.94419E-002	-4.56681E-003	5.71229E-001	6.16343E-001	-2.95171E-002	-3.94826E-002	6.61557E-001	-4.36015E-002	3.28333E-003	-2.15926E-004	2.70087E-002	2.91417E-002	-1.39562E-003	-1.86680E-003	3.12795E-002	-2.06155E-003
	6	6	1.10003E+000	4.43225E-002	0.00000E+000	4.87562E-002	4.41784E-001	4.21555E-002	4.81298E+001	11	...........	7.00207E-002	-4.58444E-003	5.71358E-001	6.16345E-001	-2.94812E-002	-3.94942E-002	6.61611E-001	-4.36218E-002	3.10349E-003	-2.03194E-004	2.53240E-002	2.73180E-002	-1.30668E-003	-1.75048E-003	2.93243E-002	-1.93343E-003
	7	7	1.10011E+000	4.21895E-002	0.00000E+000	4.64132E-002	4.20567E-001	4.21603E-002	4.76949E+001	11	...........	7.00235E-002	-4.53819E-003	5.71398E-001	6.16506E-001	-2.95335E-002	-3.94965E-002	6.61584E-001	-4.35835E-002	2.95426E-003	-1.91464E-004	2.41070E-002	2.60101E-002	-1.24600E-003	-1.66634E-003	2.79119E-002	-1.83877E-003
	8	8	1.10005E+000	4.03437E-002	0.00000E+000	4.43800E-002	4.02219E-001	4.17724E-002	4.76743E+001	11	...........	6.93665E-002	-4.39194E-003	5.71403E-001	6.16667E-001	-2.95339E-002	-3.94932E-002	6.61601E-001	-4.35553E-002	2.79850E-003	-1.77187E-004	2.30525E-002	2.48786E-002	-1.19151E-003	-1.59330E-003	2.66914E-002	-1.75718E-003
	9	9	1.10002E+000	3.95536E-002	0.00000E+000	4.35097E-002	3.94364E-001	4.19306E-002	4.74051E+001	11	...........	6.96600E-002	-4.46208E-003	5.71300E-001	6.16499E-001	-2.95446E-002	-3.95061E-002	6.61467E-001	-4.35378E-002	2.75531E-003	-1.76492E-004	2.25970E-002	2.43848E-002	-1.16860E-003	-1.56261E-003	2.61634E-002	-1.72208E-003
	10	10	1.10009E+000	3.87491E-002	0.00000E+000	4.26277E-002	3.86365E-001	4.19314E-002	4.72097E+001	11	...........	6.96580E-002	-4.53486E-003	5.71203E-001	6.16529E-001	-2.94904E-002	-3.95106E-002	6.61506E-001	-4.36111E-002	2.69919E-003	-1.75722E-004	2.21336E-002	2.38899E-002	-1.14273E-003	-1.53100E-003	2.56328E-002	-1.68989E-003
	11	11	1.10005E+000	3.78193E-002	0.00000E+000	4.16029E-002	3.77118E-001	4.19401E-002	4.71477E+001	11	...........	6.96376E-002	-4.56292E-003	5.71048E-001	6.16502E-001	-2.95187E-002	-3.95190E-002	6.61578E-001	-4.36897E-002	2.63364E-003	-1.72566E-004	2.15966E-002	2.33157E-002	-1.11638E-003	-1.49458E-003	2.50204E-002	-1.65231E-003
	12	12	1.10001E+000	3.76660E-002	0.00000E+000	4.14329E-002	3.75600E-001	4.18957E-002	4.55523E+001	11	...........	6.96086E-002	-4.38639E-003	5.70837E-001	6.16439E-001	-2.95421E-002	-3.95122E-002	6.61399E-001	-4.37290E-002	2.62188E-003	-1.65218E-004	2.15011E-002	2.32188E-002	-1.11273E-003	-1.48827E-003	2.49122E-002	-1.64710E-003
	13	13	1.10009E+000	3.72572E-002	0.00000E+000	4.09861E-002	3.71534E-001	4.15748E-002	4.52471E+001	11	...........	6.90461E-002	-4.06153E-003	5.70679E-001	6.16361E-001	-2.95449E-002	-3.95003E-002	6.61403E-001	-4.37326E-002	2.57246E-003	-1.51321E-004	2.12619E-002	2.29639E-002	-1.10076E-003	-1.47167E-003	2.46420E-002	-1.62936E-003
	14	14	1.10005E+000	3.67244E-002	0.00000E+000	4.03987E-002	3.66236E-001	4.19995E-002	4.69770E+001	11	...........	6.97275E-002	-4.16625E-003	5.70596E-001	6.16327E-001	-2.95390E-002	-3.95151E-002	6.61567E-001	-4.36536E-002	2.56070E-003	-1.53003E-004	2.09548E-002	2.26343E-002	-1.08480E-003	-1.45117E-003	2.42957E-002	-1.60315E-003
	15	15	1.10001E+000	3.67098E-002	0.00000E+000	4.03810E-002	3.66087E-001	4.17795E-002	4.70574E+001	11	...........	6.94101E-002	-4.23972E-003	5.70496E-001	6.16467E-001	-2.95069E-002	-3.95157E-002	6.61620E-001	-4.36603E-002	2.54803E-003	-1.55639E-004	2.09428E-002	2.26304E-002	-1.08319E-003	-1.45061E-003	2.42879E-002	-1.60276E-003
	16	16	1.10008E+000	3.65540E-002	0.00000E+000	4.02124E-002	3.64540E-001	4.17579E-002	4.70310E+001	11	...........	6.93619E-002	-4.14542E-003	5.70323E-001	6.16460E-001	-2.95382E-002	-3.95347E-002	6.61687E-001	-4.36164E-002	2.53546E-003	-1.51532E-004	2.08476E-002	2.25341E-002	-1.07974E-003	-1.44515E-003	2.41873E-002	-1.59435E-003
	17	17	1.10005E+000	3.60806E-002	0.00000E+000	3.96906E-002	3.59835E-001	4.17174E-002	4.70236E+001	11	...........	6.93200E-002	-4.28111E-003	5.70392E-001	6.16536E-001	-2.95796E-002	-3.95211E-002	6.61599E-001	-4.36201E-002	2.50111E-003	-1.54465E-004	2.05801E-002	2.22450E-002	-1.06725E-003	-1.42595E-003	2.38709E-002	-1.57384E-003
	18	18	1.10001E+000	3.61456E-002	0.00000E+000	3.97604E-002	3.60477E-001	4.17297E-002	4.69878E+001	11	...........	6.93012E-002	-4.30278E-003	5.70386E-001	6.16561E-001	-2.95732E-002	-3.95068E-002	6.61631E-001	-4.36681E-002	2.50494E-003	-1.55527E-004	2.06170E-002	2.22860E-002	-1.06894E-003	-1.42800E-003	2.39151E-002	-1.57841E-003
	19	19	1.10008E+000	3.60459E-002	0.00000E+000	3.96533E-002	3.59485E-001	4.18503E-002	4.66383E+001	11	...........	6.95090E-002	-4.28069E-003	5.70323E-001	6.16520E-001	-2.95706E-002	-3.95074E-002	6.61738E-001	-4.36829E-002	2.50552E-003	-1.54302E-004	2.05578E-002	2.22230E-002	-1.06590E-003	-1.42408E-003	2.38530E-002	-1.57459E-003
	20	20	1.10006E+000	3.55969E-002	0.00000E+000	3.91586E-002	3.55020E-001	4.15445E-002	4.68376E+001	11	...........	6.92076E-002	-4.23903E-003	5.70425E-001	6.16498E-001	-2.95557E-002	-3.95075E-002	6.61729E-001	-4.35711E-002	2.46358E-003	-1.50896E-004	2.03054E-002	2.19454E-002	-1.05209E-003	-1.40634E-003	2.35555E-002	-1.55100E-003
	21	21	1.10000E+000	3.56883E-002	0.00000E+000	3.92573E-002	3.55933E-001	4.14455E-002	4.68003E+001	11	...........	6.92057E-002	-4.32625E-003	5.70547E-001	6.16591E-001	-2.95131E-002	-3.94946E-002	6.61793E-001	-4.36229E-002	2.46983E-003	-1.54396E-004	2.03619E-002	2.20051E-002	-1.05327E-003	-1.40949E-003	2.36183E-002	-1.55683E-003
	22	22	1.10007E+000	3.56194E-002	0.00000E+000	3.91839E-002	3.55251E-001	4.14242E-002	4.67859E+001	11	...........	6.91726E-002	-4.44278E-003	5.70786E-001	6.16680E-001	-2.95519E-002	-3.94985E-002	6.61723E-001	-4.36728E-002	2.46389E-003	-1.58249E-004	2.03311E-002	2.19658E-002	-1.05262E-003	-1.40691E-003	2.35702E-002	-1.55560E-003
	23	23	1.10006E+000	3.51607E-002	0.00000E+000	3.86789E-002	3.50688E-001	4.18313E-002	4.63676E+001	11	...........	6.98400E-002	-4.38264E-003	5.71037E-001	6.16823E-001	-2.95804E-002	-3.94865E-002	6.61720E-001	-4.35974E-002	2.45563E-003	-1.54097E-004	2.00781E-002	2.16879E-002	-1.04007E-003	-1.38838E-003	2.32666E-002	-1.53292E-003
	24	24	1.10000E+000	3.52767E-002	0.00000E+000	3.88045E-002	3.51843E-001	4.12202E-002	4.66116E+001	11	...........	6.87985E-002	-4.06500E-003	5.70961E-001	6.16633E-001	-2.95831E-002	-3.94965E-002	6.61698E-001	-4.35587E-002	2.42698E-003	-1.43400E-004	2.01416E-002	2.17527E-002	-1.04359E-003	-1.39331E-003	2.33425E-002	-1.53661E-003
	25	25	1.10007E+000	3.52528E-002	0.00000E+000	3.87805E-002	3.51606E-001	4.13446E-002	4.65334E+001	11	...........	6.90249E-002	-3.96750E-003	5.70829E-001	6.16722E-001	-2.96076E-002	-3.94993E-002	6.61637E-001	-4.37136E-002	2.43332E-003	-1.39866E-004	2.01233E-002	2.17412E-002	-1.04375E-003	-1.39246E-003	2.33246E-002	-1.54103E-003
	26	26	1.10006E+000	3.48485E-002	0.00000E+000	3.83356E-002	3.47588E-001	4.13117E-002	4.65616E+001	11	...........	6.89643E-002	-4.16125E-003	5.70911E-001	6.16755E-001	-2.96053E-002	-3.94971E-002	6.61677E-001	-4.37465E-002	2.40330E-003	-1.45013E-004	1.98954E-002	2.14930E-002	-1.03170E-003	-1.37641E-003	2.30585E-002	-1.52450E-003
	27	27	1.10000E+000	3.49617E-002	0.00000E+000	3.84579E-002	3.48711E-001	4.13282E-002	4.66659E+001	11	...........	6.89610E-002	-4.07806E-003	5.71086E-001	6.16852E-001	-2.95631E-002	-3.94931E-002	6.61751E-001	-4.37271E-002	2.41099E-003	-1.42576E-004	1.99661E-002	2.15662E-002	-1.03357E-003	-1.38074E-003	2.31359E-002	-1.52877E-003
	28	28	1.10007E+000	3.49869E-002	0.00000E+000	3.84879E-002	3.48964E-001	4.13052E-002	4.66945E+001	11	...........	6.89519E-002	-4.08014E-003	5.71059E-001	6.16756E-001	-2.95292E-002	-3.94954E-002	6.61718E-001	-4.36437E-002	2.41242E-003	-1.42752E-004	1.99796E-002	2.15784E-002	-1.03313E-003	-1.38182E-003	2.31515E-002	-1.52696E-003
	29	29	1.10007E+000	3.45371E-002	0.00000E+000	3.79932E-002	3.44486E-001	4.12702E-002	4.66526E+001	11	...........	6.88926E-002	-4.22639E-003	5.71152E-001	6.16832E-001	-2.95428E-002	-3.94810E-002	6.61678E-001	-4.37079E-002	2.37936E-003	-1.45967E-004	1.97260E-002	2.13036E-002	-1.02032E-003	-1.36356E-003	2.28525E-002	-1.50955E-003
	30	30	1.10000E+000	3.46452E-002	0.00000E+000	3.81098E-002	3.45565E-001	4.12502E-002	4.66436E+001	11	...........	6.88474E-002	-4.26208E-003	5.71259E-001	6.16972E-001	-2.95985E-002	-3.94393E-002	6.61709E-001	-4.36439E-002	2.38523E-003	-1.47661E-004	1.97914E-002	2.13751E-002	-1.02545E-003	-1.36638E-003	2.29250E-002	-1.51205E-003
	31	31	1.10006E+000	3.46478E-002	0.00000E+000	3.81148E-002	3.45585E-001	4.12302E-002	4.66371E+001	11	...........	6.88067E-002	-4.13000E-003	5.71102E-001	6.17135E-001	-2.96356E-002	-3.94557E-002	6.61789E-001	-4.36217E-002	2.38400E-003	-1.43095E-004	1.97874E-002	2.13824E-002	-1.02681E-003	-1.36705E-003	2.29296E-002	-1.51139E-003
	32	32	1.10007E+000	3.42341E-002	0.00000E+000	3.76599E-002	3.41473E-001	4.11999E-002	4.66237E+001	11	...........	6.87644E-002	-4.18972E-003	5.71219E-001	6.17293E-001	-2.96399E-002	-3.94592E-002	6.61950E-001	-4.37014E-002	2.35409E-003	-1.43431E-004	1.95552E-002	2.11325E-002	-1.01469E-003	-1.35085E-003	2.26613E-002	-1.49608E-003
	33	33	1.10000E+000	3.43377E-002	0.00000E+000	3.77715E-002	3.42506E-001	4.11775E-002	4.66164E+001	11	...........	6.87304E-002	-4.23889E-003	5.71323E-001	6.17306E-001	-2.96256E-002	-3.94724E-002	6.62048E-001	-4.36189E-002	2.36005E-003	-1.45554E-004	1.96179E-002	2.11969E-002	-1.01727E-003	-1.35539E-003	2.27332E-002	-1.49777E-003
	34	34	1.10006E+000	3.43466E-002	0.00000E+000	3.77834E-002	3.42594E-001	4.11618E-002	4.66155E+001	11	...........	6.86954E-002	-4.23694E-003	5.71404E-001	6.17161E-001	-2.96353E-002	-3.94803E-002	6.62045E-001	-4.36161E-002	2.35946E-003	-1.45525E-004	1.96258E-002	2.11974E-002	-1.01787E-003	-1.35601E-003	2.27390E-002	-1.49807E-003
	35	35	1.10007E+000	3.39122E-002	0.00000E+000	3.73060E-002	3.38276E-001	4.11378E-002	4.65668E+001	11	...........	6.86338E-002	-4.22458E-003	5.71422E-001	6.17159E-001	-2.95992E-002	-3.94856E-002	6.62028E-001	-4.35121E-002	2.32752E-003	-1.43265E-004	1.93782E-002	2.09293E-002	-1.00377E-003	-1.33904E-003	2.24509E-002	-1.47559E-003
	36	36	1.10000E+000	3.40125E-002	0.00000E+000	3.74138E-002	3.39277E-001	4.11137E-002	4.65640E+001	11	...........	6.86151E-002	-4.25569E-003	5.71394E-001	6.17222E-001	-2.96317E-002	-3.94796E-002	6.61942E-001	-4.35035E-002	2.33377E-003	-1.44747E-004	1.94346E-002	2.09932E-002	-1.00785E-003	-1.34280E-003	2.25143E-002	-1.47966E-003
	37	37	1.10006E+000	3.40143E-002	0.00000E+000	3.74177E-002	3.39296E-001	4.12618E-002	4.64755E+001	11	...........	6.88615E-002	-4.35417E-003	5.71271E-001	6.17348E-001	-2.96333E-002	-3.94897E-002	6.61871E-001	-4.35337E-002	2.34228E-003	-1.48104E-004	1.94314E-002	2.09986E-002	-1.00796E-003	-1.34321E-003	2.25131E-002	-1.48077E-003
	38	38	1.10008E+000	3.36064E-002	0.00000E+000	3.69697E-002	3.35235E-001	4.09533E-002	4.65192E+001	11	...........	6.83499E-002	-4.41736E-003	5.71344E-001	6.17376E-001	-2.96478E-002	-3.94949E-002	6.61767E-001	-4.35893E-002	2.29699E-003	-1.48452E-004	1.92008E-002	2.07478E-002	-9.96355E-004	-1.32728E-003	2.22396E-002	-1.46488E-003
	39	39	1.10000E+000	3.36979E-002	0.00000E+000	3.70677E-002	3.36145E-001	4.10309E-002	4.65341E+001	11	...........	6.84832E-002	-4.39972E-003	5.71361E-001	6.17459E-001	-2.96465E-002	-3.94757E-002	6.61911E-001	-4.34999E-002	2.30774E-003	-1.48261E-004	1.92537E-002	2.08071E-002	-9.99026E-004	-1.33025E-003	2.23050E-002	-1.46585E-003
	40	40	1.10006E+000	3.37549E-002	0.00000E+000	3.71322E-002	3.36712E-001	4.15566E-002	4.60821E+001	11	...........	6.93710E-002	-4.45847E-003	5.71589E-001	6.17478E-001	-2.96540E-002	-3.94810E-002	6.62027E-001	-4.34924E-002	2.34161E-003	-1.50495E-004	1.92939E-002	2.08429E-002	-1.00097E-003	-1.33268E-003	2.23466E-002	-1.46808E-003
	41	41	1.10008E+000	3.33450E-002	0.00000E+000	3.66822E-002	3.32635E-001	4.06851E-002	4.54727E+001	11	...........	6.79305E-002	-4.46250E-003	5.71451E-001	6.17419E-001	-2.96543E-002	-3.94675E-002	6.61977E-001	-4.35640E-002	2.26514E-003	-1.48802E-004	1.90550E-002	2.05878E-002	-9.88823E-004	-1.31604E-003	2.20736E-002	-1.45264E-003
	42	42	1.10000E+000	3.33967E-002	0.00000E+000	3.67364E-002	3.33153E-001	4.08108E-002	4.50593E+001	11	...........	6.81112E-002	-4.36597E-003	5.71304E-001	6.17176E-001	-2.96525E-002	-3.94731E-002	6.62020E-001	-4.35753E-002	2.27469E-003	-1.45809E-004	1.90797E-002	2.06117E-002	-9.90296E-004	-1.31827E-003	2.21093E-002	-1.45527E-003
	43	43	1.10005E+000	3.35566E-002	0.00000E+000	3.69140E-002	3.34739E-001	4.09654E-002	4.52790E+001	11	...........	6.83774E-002	-4.28986E-003	5.71203E-001	6.17283E-001	-2.96228E-002	-3.94846E-002	6.62044E-001	-4.36447E-002	2.29451E-003	-1.43953E-004	1.91676E-002	2.07139E-002	-9.94039E-004	-1.32497E-003	2.22159E-002	-1.46457E-003
	44	44	1.10008E+000	3.30712E-002	0.00000E+000	3.63810E-002	3.29915E-001	4.07298E-002	4.48659E+001	11	...........	6.80044E-002	-4.40250E-003	5.70979E-001	6.17201E-001	-2.96142E-002	-3.95040E-002	6.62125E-001	-4.36887E-002	2.24899E-003	-1.45596E-004	1.88830E-002	2.04115E-002	-9.79375E-004	-1.30644E-003	2.18972E-002	-1.44484E-003
	45	45	1.10000E+000	3.32185E-002	0.00000E+000	3.65402E-002	3.31380E-001	4.09282E-002	4.60749E+001	11	...........	6.83228E-002	-4.28583E-003	5.70881E-001	6.17050E-001	-2.96493E-002	-3.95168E-002	6.62095E-001	-4.35858E-002	2.26958E-003	-1.42369E-004	1.89638E-002	2.04974E-002	-9.84904E-004	-1.31269E-003	2.19938E-002	-1.44785E-003
	46	46	1.10005E+000	3.32898E-002	0.00000E+000	3.66204E-002	3.32089E-001	4.08670E-002	4.63254E+001	11	...........	6.82354E-002	-4.31028E-003	5.70858E-001	6.17000E-001	-2.96761E-002	-3.94983E-002	6.62106E-001	-4.34937E-002	2.27154E-003	-1.43488E-004	1.90037E-002	2.05398E-002	-9.87911E-004	-1.31489E-003	2.20414E-002	-1.44790E-003
	47	47	1.10009E+000	3.28821E-002	0.00000E+000	3.61732E-002	3.28035E-001	4.08296E-002	4.63836E+001	11	...........	6.81722E-002	-4.44056E-003	5.70667E-001	6.17272E-001	-2.96474E-002	-3.94951E-002	6.62036E-001	-4.36047E-002	2.24165E-003	-1.46015E-004	1.87647E-002	2.02972E-002	-9.74868E-004	-1.29868E-003	2.17692E-002	-1.43382E-003
	48	48	1.10000E+000	3.29600E-002	0.00000E+000	3.62560E-002	3.28809E-001	4.07981E-002	4.64197E+001	11	...........	6.81121E-002	-4.45611E-003	5.70625E-001	6.17381E-001	-2.96456E-002	-3.94885E-002	6.61997E-001	-4.36067E-002	2.24498E-003	-1.46874E-004	1.88078E-002	2.03489E-002	-9.77118E-004	-1.30154E-003	2.18194E-002	-1.43728E-003
	49	49	1.10005E+000	3.29835E-002	0.00000E+000	3.62835E-002	3.29043E-001	4.07195E-002	4.64661E+001	11	...........	6.80714E-002	-4.48625E-003	5.70692E-001	6.17393E-001	-2.96258E-002	-3.95086E-002	6.61925E-001	-4.36649E-002	2.24524E-003	-1.47972E-004	1.88235E-002	2.03638E-002	-9.77165E-004	-1.30313E-003	2.18326E-002	-1.44022E-003
	50	50	1.10009E+000	3.25967E-002	0.00000E+000	3.58593E-002	3.25197E-001	4.07508E-002	4.64753E+001	11	...........	6.80368E-002	-4.40667E-003	5.70803E-001	6.17225E-001	-2.96819E-002	-3.95042E-002	6.61878E-001	-4.37204E-002	2.21778E-003	-1.43643E-004	1.86063E-002	2.01195E-002	-9.67535E-004	-1.28771E-003	2.15751E-002	-1.42514E-003
	51	51	1.10000E+000	3.26528E-002	0.00000E+000	3.59179E-002	3.25756E-001	4.07391E-002	4.64666E+001	11	...........	6.80128E-002	-4.46972E-003	5.71181E-001	6.17135E-001	-2.96985E-002	-3.95285E-002	6.61899E-001	-4.36749E-002	2.22081E-003	-1.45949E-004	1.86507E-002	2.01512E-002	-9.69738E-004	-1.29071E-003	2.16128E-002	-1.42611E-003
	52	52	1.10005E+000	3.27328E-002	0.00000E+000	3.60075E-002	3.26547E-001	4.07076E-002	4.65117E+001	11	...........	6.79731E-002	-4.41458E-003	5.71286E-001	6.17231E-001	-2.97432E-002	-3.95149E-002	6.61956E-001	-4.36332E-002	2.22495E-003	-1.44501E-004	1.86998E-002	2.02037E-002	-9.73577E-004	-1.29343E-003	2.16676E-002	-1.42823E-003
	53	53	1.10009E+000	3.23487E-002	0.00000E+000	3.55865E-002	3.22731E-001	4.06811E-002	4.64893E+001	11	...........	6.79206E-002	-4.25111E-003	5.71329E-001	6.17350E-001	-2.97118E-002	-3.94815E-002	6.61872E-001	-4.35276E-002	2.19714E-003	-1.37518E-004	1.84817E-002	1.99705E-002	-9.61138E-004	-1.27718E-003	2.14107E-002	-1.40806E-003
	54	54	1.10000E+000	3.23794E-002	0.00000E+000	3.56172E-002	3.23035E-001	4.06476E-002	4.65081E+001	11	...........	6.78817E-002	-4.31528E-003	5.71311E-001	6.17160E-001	-2.96940E-002	-3.95007E-002	6.61651E-001	-4.35210E-002	2.19797E-003	-1.39726E-004	1.84987E-002	1.99833E-002	-9.61476E-004	-1.27901E-003	2.14239E-002	-1.40918E-003
	55	55	1.10005E+000	3.24555E-002	0.00000E+000	3.57025E-002	3.23788E-001	4.06295E-002	4.65245E+001	11	...........	6.78360E-002	-4.49653E-003	5.71340E-001	6.17236E-001	-2.96808E-002	-3.95172E-002	6.61695E-001	-4.36132E-002	2.20165E-003	-1.45937E-004	1.85431E-002	2.00327E-002	-9.63305E-004	-1.28255E-003	2.14756E-002	-1.41549E-003
	56	56	1.10009E+000	3.20746E-002	0.00000E+000	3.52851E-002	3.20003E-001	4.06071E-002	4.65063E+001	11	...........	6.77833E-002	-4.41556E-003	5.71372E-001	6.17385E-001	-2.96650E-002	-3.95131E-002	6.61570E-001	-4.36697E-002	2.17412E-003	-1.41627E-004	1.83265E-002	1.98023E-002	-9.51492E-004	-1.26736E-003	2.12196E-002	-1.40069E-003
	57	57	1.10000E+000	3.21208E-002	0.00000E+000	3.53327E-002	3.20464E-001	4.05778E-002	4.65092E+001	11	...........	6.77351E-002	-4.22500E-003	5.71135E-001	6.17282E-001	-2.96762E-002	-3.95033E-002	6.61744E-001	-4.36149E-002	2.17571E-003	-1.35710E-004	1.83453E-002	1.98276E-002	-9.53225E-004	-1.26888E-003	2.12558E-002	-1.40094E-003
	58	58	1.10004E+000	3.22184E-002	0.00000E+000	3.54416E-002	3.21430E-001	4.05579E-002	4.65033E+001	11	...........	6.76974E-002	-4.32347E-003	5.70996E-001	6.17291E-001	-2.96517E-002	-3.94951E-002	6.61776E-001	-4.36185E-002	2.18110E-003	-1.39295E-004	1.83966E-002	1.98881E-002	-9.55328E-004	-1.27247E-003	2.13213E-002	-1.40532E-003
	59	59	1.10010E+000	3.18280E-002	0.00000E+000	3.50139E-002	3.17551E-001	4.05197E-002	4.65133E+001	11	...........	6.76465E-002	-4.36681E-003	5.71189E-001	6.17055E-001	-2.96650E-002	-3.95058E-002	6.61862E-001	-4.35374E-002	2.15306E-003	-1.38987E-004	1.81798E-002	1.96396E-002	-9.44178E-004	-1.25739E-003	2.10658E-002	-1.38571E-003
	60	60	1.09999E+000	3.18739E-002	0.00000E+000	3.50611E-002	3.18001E-001	4.05183E-002	4.65250E+001	11	...........	6.76121E-002	-4.26514E-003	5.71323E-001	6.16956E-001	-2.96593E-002	-3.94968E-002	6.61784E-001	-4.35032E-002	2.15506E-003	-1.35946E-004	1.82103E-002	1.96648E-002	-9.45356E-004	-1.25892E-003	2.10936E-002	-1.38661E-003
	61	61	1.10004E+000	3.19706E-002	0.00000E+000	3.51690E-002	3.18967E-001	4.04819E-002	4.65254E+001	11	...........	6.75606E-002	-4.24403E-003	5.71091E-001	6.17093E-001	-2.96493E-002	-3.95012E-002	6.61717E-001	-4.35699E-002	2.15995E-003	-1.35684E-004	1.82581E-002	1.97288E-002	-9.47905E-004	-1.26288E-003	2.11555E-002	-1.39295E-003
	62	62	1.10010E+000	3.16040E-002	0.00000E+000	3.47675E-002	3.15323E-001	4.04644E-002	4.65029E+001	11	...........	6.75094E-002	-4.27431E-003	5.71149E-001	6.16890E-001	-2.96347E-002	-3.95004E-002	6.61762E-001	-4.36406E-002	2.13357E-003	-1.35085E-004	1.80506E-002	1.94962E-002	-9.36576E-004	-1.24837E-003	2.09143E-002	-1.37922E-003
	63	63	1.10000E+000	3.16170E-002	0.00000E+000	3.47786E-002	3.15451E-001	4.04288E-002	4.65146E+001	11	...........	6.74850E-002	-4.30847E-003	5.71148E-001	6.16868E-001	-2.96235E-002	-3.94869E-002	6.61774E-001	-4.36900E-002	2.13368E-003	-1.36221E-004	1.80580E-002	1.95035E-002	-9.36606E-004	-1.24846E-003	2.09233E-002	-1.38135E-003
	64	64	1.10004E+000	3.16884E-002	0.00000E+000	3.48585E-002	3.16167E-001	4.08392E-002	4.61737E+001	11	...........	6.81743E-002	-4.47125E-003	5.71200E-001	6.16991E-001	-2.96365E-002	-3.95067E-002	6.61871E-001	-4.35674E-002	2.16034E-003	-1.41687E-004	1.81004E-002	1.95515E-002	-9.39135E-004	-1.25190E-003	2.09736E-002	-1.38058E-003
	65	65	1.10010E+000	3.13340E-002	0.00000E+000	3.44705E-002	3.12642E-001	4.01465E-002	4.62939E+001	11	...........	6.70194E-002	-4.41431E-003	5.71038E-001	6.16873E-001	-2.96532E-002	-3.95129E-002	6.61757E-001	-4.35350E-002	2.09999E-003	-1.38318E-004	1.78929E-002	1.93291E-002	-9.29153E-004	-1.23810E-003	2.07355E-002	-1.36413E-003
	66	66	1.09999E+000	3.13450E-002	0.00000E+000	3.44793E-002	3.12752E-001	4.06464E-002	4.60399E+001	11	...........	6.78469E-002	-4.36264E-003	5.71314E-001	6.16693E-001	-2.96506E-002	-3.95510E-002	6.61666E-001	-4.36903E-002	2.12666E-003	-1.36747E-004	1.79078E-002	1.93302E-002	-9.29396E-004	-1.23972E-003	2.07399E-002	-1.36947E-003
	67	67	1.10004E+000	3.14456E-002	0.00000E+000	3.45914E-002	3.13751E-001	4.02077E-002	4.55272E+001	11	...........	6.71057E-002	-4.30361E-003	5.71374E-001	6.16644E-001	-2.96704E-002	-3.95469E-002	6.61971E-001	-4.36403E-002	2.11018E-003	-1.35330E-004	1.79672E-002	1.93907E-002	-9.33003E-004	-1.24358E-003	2.08161E-002	-1.37229E-003
	68	68	1.10010E+000	3.10416E-002	0.00000E+000	3.41488E-002	3.09734E-001	4.01179E-002	4.49302E+001	11	...........	6.69761E-002	-4.17333E-003	5.71228E-001	6.16694E-001	-2.96576E-002	-3.95544E-002	6.61916E-001	-4.36896E-002	2.07904E-003	-1.29547E-004	1.77318E-002	1.91432E-002	-9.20619E-004	-1.22783E-003	2.05469E-002	-1.35619E-003
	69	69	1.10000E+000	3.10638E-002	0.00000E+000	3.41700E-002	3.09960E-001	4.03969E-002	4.62748E+001	11	...........	6.74233E-002	-4.24389E-003	5.71416E-001	6.16721E-001	-2.96419E-002	-3.95564E-002	6.61791E-001	-4.35960E-002	2.09442E-003	-1.31831E-004	1.77503E-002	1.91577E-002	-9.20790E-004	-1.22877E-003	2.05577E-002	-1.35425E-003
	70	70	1.10004E+000	3.11872E-002	0.00000E+000	3.43071E-002	3.11183E-001	4.02795E-002	4.64635E+001	11	...........	6.72251E-002	-4.25972E-003	5.71241E-001	6.16744E-001	-2.96424E-002	-3.95479E-002	6.61753E-001	-4.36114E-002	2.09657E-003	-1.32849E-004	1.78154E-002	1.92345E-002	-9.24463E-004	-1.23339E-003	2.06382E-002	-1.36012E-003
	71	71	1.10010E+000	3.08638E-002	0.00000E+000	3.39534E-002	3.07973E-001	4.02196E-002	4.64665E+001	11	...........	6.71422E-002	-4.12069E-003	5.71165E-001	6.16624E-001	-2.96126E-002	-3.95542E-002	6.61821E-001	-4.35571E-002	2.07227E-003	-1.27180E-004	1.76284E-002	1.90314E-002	-9.13960E-004	-1.22079E-003	2.04263E-002	-1.34434E-003
	72	72	1.10000E+000	3.08119E-002	0.00000E+000	3.38930E-002	3.07449E-001	4.02107E-002	4.65039E+001	11	...........	6.71336E-002	-4.15222E-003	5.71268E-001	6.16580E-001	-2.96158E-002	-3.95529E-002	6.61818E-001	-4.36153E-002	2.06852E-003	-1.27938E-004	1.76019E-002	1.89980E-002	-9.12521E-004	-1.21870E-003	2.03919E-002	-1.34387E-003
	73	73	1.10004E+000	3.09191E-002	0.00000E+000	3.40121E-002	3.08522E-001	4.01811E-002	4.65296E+001	11	...........	6.70664E-002	-4.25236E-003	5.71448E-001	6.16531E-001	-2.96121E-002	-3.95429E-002	6.61921E-001	-4.36737E-002	2.07363E-003	-1.31479E-004	1.76687E-002	1.90626E-002	-9.15578E-004	-1.22263E-003	2.04660E-002	-1.35035E-003
	74	74	1.10010E+000	3.06051E-002	0.00000E+000	3.36687E-002	3.05396E-001	4.01502E-002	4.65402E+001	11	...........	6.70225E-002	-4.31292E-003	5.71404E-001	6.16501E-001	-2.95953E-002	-3.95218E-002	6.61811E-001	-4.35860E-002	2.05123E-003	-1.31997E-004	1.74879E-002	1.88681E-002	-9.05766E-004	-1.20957E-003	2.02548E-002	-1.33395E-003
	75	75	1.10000E+000	3.05894E-002	0.00000E+000	3.36482E-002	3.05238E-001	4.01264E-002	4.65369E+001	11	...........	6.69939E-002	-4.27278E-003	5.71423E-001	6.16525E-001	-2.95707E-002	-3.95376E-002	6.61819E-001	-4.35676E-002	2.04930E-003	-1.30702E-004	1.74795E-002	1.88591E-002	-9.04549E-004	-1.20943E-003	2.02446E-002	-1.33271E-003
	76	76	1.10003E+000	3.07055E-002	0.00000E+000	3.37771E-002	3.06395E-001	4.01107E-002	4.65447E+001	11	...........	6.69496E-002	-4.27181E-003	5.71481E-001	6.16661E-001	-2.95887E-002	-3.95697E-002	6.61785E-001	-4.36353E-002	2.05572E-003	-1.31168E-004	1.75476E-002	1.89349E-002	-9.08537E-004	-1.21501E-003	2.03204E-002	-1.33984E-003
	77	77	1.10010E+000	3.04002E-002	0.00000E+000	3.34433E-002	3.03360E-001	4.00783E-002	4.65347E+001	11	...........	6.69253E-002	-4.09069E-003	5.71293E-001	6.16776E-001	-2.95904E-002	-3.95561E-002	6.61797E-001	-4.36646E-002	2.03454E-003	-1.24358E-004	1.73674E-002	1.87501E-002	-8.99554E-004	-1.20251E-003	2.01187E-002	-1.32741E-003
	78	78	1.10000E+000	3.03449E-002	0.00000E+000	3.33793E-002	3.02807E-001	4.00623E-002	4.65342E+001	11	...........	6.68960E-002	-4.21556E-003	5.71288E-001	6.16651E-001	-2.96314E-002	-3.95436E-002	6.61629E-001	-4.36333E-002	2.02995E-003	-1.27921E-004	1.73357E-002	1.87122E-002	-8.99161E-004	-1.19995E-003	2.00771E-002	-1.32405E-003
	79	79	1.10003E+000	3.04550E-002	0.00000E+000	3.35015E-002	3.03905E-001	4.00523E-002	4.65487E+001	11	...........	6.68546E-002	-4.29764E-003	5.71136E-001	6.16631E-001	-2.96560E-002	-3.95350E-002	6.61795E-001	-4.35725E-002	2.03606E-003	-1.30885E-004	1.73939E-002	1.87795E-002	-9.03173E-004	-1.20404E-003	2.01550E-002	-1.32700E-003
	80	80	1.10010E+000	3.01759E-002	0.00000E+000	3.31966E-002	3.01123E-001	4.02227E-002	4.62685E+001	11	...........	6.71349E-002	-4.33236E-003	5.71197E-001	6.16671E-001	-2.96501E-002	-3.95339E-002	6.61699E-001	-4.35901E-002	2.02586E-003	-1.30733E-004	1.72364E-002	1.86086E-002	-8.94721E-004	-1.19297E-003	1.99674E-002	-1.31537E-003
	81	81	1.10000E+000	3.01307E-002	0.00000E+000	3.31437E-002	3.00680E-001	3.99172E-002	4.65192E+001	11	...........	6.66508E-002	-4.18097E-003	5.70935E-001	6.16614E-001	-2.96386E-002	-3.95243E-002	6.61612E-001	-4.36290E-002	2.00823E-003	-1.25976E-004	1.72027E-002	1.85790E-002	-8.93032E-004	-1.19089E-003	1.99348E-002	-1.31457E-003
	82	82	1.10003E+000	3.02517E-002	0.00000E+000	3.32778E-002	3.01883E-001	4.01652E-002	4.64132E+001	11	...........	6.70576E-002	-4.37708E-003	5.71190E-001	6.16680E-001	-2.96565E-002	-3.95406E-002	6.61640E-001	-4.36529E-002	2.02861E-003	-1.32414E-004	1.72794E-002	1.86556E-002	-8.97160E-004	-1.19617E-003	2.00157E-002	-1.32057E-003
	83	83	1.10010E+000	2.99587E-002	0.00000E+000	3.29576E-002	2.98970E-001	3.98649E-002	4.63661E+001	11	...........	6.65619E-002	-4.33403E-003	5.71091E-001	6.16706E-001	-2.96504E-002	-3.95400E-002	6.61537E-001	-4.35358E-002	1.99411E-003	-1.29842E-004	1.71091E-002	1.84757E-002	-8.88287E-004	-1.18457E-003	1.98188E-002	-1.30428E-003
	84	84	1.10000E+000	2.98763E-002	0.00000E+000	3.28638E-002	2.98145E-001	3.99347E-002	4.57940E+001	11	...........	6.66810E-002	-4.33611E-003	5.70813E-001	6.16865E-001	-2.96568E-002	-3.95268E-002	6.61528E-001	-4.35797E-002	1.99218E-003	-1.29547E-004	1.70538E-002	1.84296E-002	-8.86035E-004	-1.18091E-003	1.97640E-002	-1.30200E-003
	85	85	1.10003E+000	3.00076E-002	0.00000E+000	3.30093E-002	2.99450E-001	3.99120E-002	4.61341E+001	11	...........	6.66381E-002	-4.36569E-003	5.70863E-001	6.16797E-001	-2.96306E-002	-3.95303E-002	6.61529E-001	-4.37353E-002	1.99965E-003	-1.31004E-004	1.71302E-002	1.85086E-002	-8.89141E-004	-1.18621E-003	1.98509E-002	-1.31239E-003
	86	86	1.10010E+000	2.97362E-002	0.00000E+000	3.27129E-002	2.96754E-001	3.99156E-002	4.54458E+001	11	...........	6.66385E-002	-4.45403E-003	5.70950E-001	6.16720E-001	-2.95951E-002	-3.95306E-002	6.61458E-001	-4.36599E-002	1.98158E-003	-1.32446E-004	1.69779E-002	1.83389E-002	-8.80047E-004	-1.17549E-003	1.96692E-002	-1.29828E-003
	87	87	1.10000E+000	2.95697E-002	0.00000E+000	3.25266E-002	2.95095E-001	3.96747E-002	4.51021E+001	11	...........	6.62201E-002	-4.37667E-003	5.70923E-001	6.16885E-001	-2.95976E-002	-3.94840E-002	6.61429E-001	-4.36114E-002	1.95811E-003	-1.29417E-004	1.68820E-002	1.82411E-002	-8.75193E-004	-1.16753E-003	1.95582E-002	-1.28957E-003
	88	88	1.10003E+000	2.98247E-002	0.00000E+000	3.28081E-002	2.97629E-001	3.99292E-002	4.62177E+001	11	...........	6.66853E-002	-4.40153E-003	5.70861E-001	6.16923E-001	-2.96104E-002	-3.94708E-002	6.61369E-001	-4.37418E-002	1.98887E-003	-1.31274E-004	1.70258E-002	1.83996E-002	-8.83123E-004	-1.17721E-003	1.97251E-002	-1.30459E-003
	89	89	1.10010E+000	2.95602E-002	0.00000E+000	3.25192E-002	2.95006E-001	3.98638E-002	4.64604E+001	11	...........	6.65621E-002	-4.35764E-003	5.70866E-001	6.17077E-001	-2.96033E-002	-3.94674E-002	6.61629E-001	-4.36519E-002	1.96759E-003	-1.28813E-004	1.68749E-002	1.82409E-002	-8.75079E-004	-1.16666E-003	1.95579E-002	-1.29036E-003
	90	90	1.10000E+000	2.94440E-002	0.00000E+000	3.23884E-002	2.93849E-001	3.98271E-002	4.64770E+001	11	...........	6.64765E-002	-4.51778E-003	5.71066E-001	6.17201E-001	-2.95928E-002	-3.94356E-002	6.61747E-001	-4.37090E-002	1.95734E-003	-1.33022E-004	1.68145E-002	1.81729E-002	-8.71330E-004	-1.16114E-003	1.94845E-002	-1.28697E-003
	91	91	1.10003E+000	2.95884E-002	0.00000E+000	3.25481E-002	2.95284E-001	3.98067E-002	4.64791E+001	11	...........	6.64467E-002	-4.38819E-003	5.70868E-001	6.17082E-001	-2.95733E-002	-3.94317E-002	6.61710E-001	-4.36217E-002	1.96605E-003	-1.29840E-004	1.68911E-002	1.82585E-002	-8.75028E-004	-1.16672E-003	1.95790E-002	-1.29070E-003
	92	92	1.10010E+000	2.93211E-002	0.00000E+000	3.22562E-002	2.92632E-001	3.97752E-002	4.64669E+001	11	...........	6.64049E-002	-4.37528E-003	5.70743E-001	6.17021E-001	-2.95535E-002	-3.94264E-002	6.61807E-001	-4.36728E-002	1.94706E-003	-1.28288E-004	1.67348E-002	1.80918E-002	-8.66541E-004	-1.15603E-003	1.94049E-002	-1.28053E-003
	93	93	1.10000E+000	2.91752E-002	0.00000E+000	3.20928E-002	2.91184E-001	3.97606E-002	4.64723E+001	11	...........	6.63717E-002	-4.41556E-003	5.70670E-001	6.17147E-001	-2.95436E-002	-3.94222E-002	6.61885E-001	-4.36000E-002	1.93641E-003	-1.28825E-004	1.66494E-002	1.80054E-002	-8.61941E-004	-1.15015E-003	1.93106E-002	-1.27204E-003
	94	94	1.10003E+000	2.93187E-002	0.00000E+000	3.22515E-002	2.92605E-001	3.97479E-002	4.64665E+001	11	...........	6.63594E-002	-4.41819E-003	5.70733E-001	6.17098E-001	-2.95546E-002	-3.94282E-002	6.61913E-001	-4.36151E-002	1.94557E-003	-1.29536E-004	1.67332E-002	1.80925E-002	-8.66503E-004	-1.15598E-003	1.94065E-002	-1.27874E-003
	95	95	1.10010E+000	2.90860E-002	0.00000E+000	3.19976E-002	2.90296E-001	3.97293E-002	4.46665E+001	11	...........	6.63071E-002	-4.49028E-003	5.70717E-001	6.17102E-001	-2.95851E-002	-3.94250E-002	6.61961E-001	-4.35319E-002	1.92861E-003	-1.30604E-004	1.65999E-002	1.79491E-002	-8.60515E-004	-1.14672E-003	1.92538E-002	-1.26617E-003
	96	96	1.10000E+000	2.89079E-002	0.00000E+000	3.17989E-002	2.88530E-001	3.95760E-002	4.60710E+001	11	...........	6.60625E-002	-4.49111E-003	5.70498E-001	6.17035E-001	-2.95842E-002	-3.94051E-002	6.61916E-001	-4.35333E-002	1.90973E-003	-1.29829E-004	1.64919E-002	1.78372E-002	-8.55218E-004	-1.13912E-003	1.91346E-002	-1.25846E-003
	97	97	1.10003E+000	2.90859E-002	0.00000E+000	3.19953E-002	2.90298E-001	3.97420E-002	4.64248E+001	11	...........	6.63365E-002	-4.47153E-003	5.70420E-001	6.16814E-001	-2.95857E-002	-3.93775E-002	6.61838E-001	-4.34806E-002	1.92946E-003	-1.30058E-004	1.65912E-002	1.79406E-002	-8.60526E-004	-1.14533E-003	1.92501E-002	-1.26467E-003
	98	98	1.10010E+000	2.88500E-002	0.00000E+000	3.17379E-002	2.87954E-001	3.97227E-002	4.64446E+001	11	...........	6.62892E-002	-4.49431E-003	5.70356E-001	6.16775E-001	-2.95849E-002	-3.93737E-002	6.61800E-001	-4.34626E-002	1.91244E-003	-1.29661E-004	1.64548E-002	1.77940E-002	-8.53523E-004	-1.13593E-003	1.90929E-002	-1.25390E-003
	99	98.94	1.10005E+000	2.87796E-002	0.00000E+000	3.16590E-002	2.87256E-001	3.96176E-002	4.63737E+001	11	...........	6.61170E-002	-4.20597E-003	5.70271E-001	6.16755E-001	-2.95567E-002	-3.93824E-002	6.61835E-001	-4.34060E-002	1.90282E-003	-1.21046E-004	1.64122E-002	1.77500E-002	-8.50632E-004	-1.13341E-003	1.90474E-002	-1.24921E-003
STARTTIMEOFFSET	QUANT	526520.9	Start Time Offset (s)
