EXPLAIN
TAG	PWR800_CHARGE
TITLE	LABEL	PWR Charge	Test Identifier
DATE	LABEL	10/15/2022	Date
TIME	LABEL	7:21:53	Time
NOTES	NOTES	1	Notes...
	
PSTAT	PSTAT	REF3000-21114	Potentiostat
CAPACITY	QUANT	5.30000E-002	Capacity (A-hr)
CELLTYPE	SELECTOR	1	Cell Type
WORKINGCONNECTION	SELECTOR	0	Working Connection
MAXCHARGETIME	VARIABLEANDUNITS	7.20000E+003	s	2.00000E+000	hour(s)	Max Charge Time
CHARGEMODE	MULTIPARAM	0	1.00000E-001	Charge Mode	Constant Current	Amp(s)
CHARGECURRENT	QUANT	0.1	Charge Current (A)
VOLTAGEFINISH	TWOPARAM	T	2.50000E-002	7.20000E+003	Voltage Finish	I (A) <	Max Time(s)
SAMPLETIME	QUANT	1.00000E+000	Sample Period (s)
CHARGESTOPAT1	MULTIPARAM	2	1.10000E+000	Stop At 1	|Voltage| > Limit	V
CHARGESTOPAT2	MULTIPARAM	0	0.00000E+000	Stop At 2	None	N/A
AESELECTOR	AESELECTOR	0x1	T	Set Limits	AE Channels
AESBHCSELECTOR	TOGGLE	F	Save Both Half Cells
IRCOMP	TOGGLE	F	IR Measure
EOC	QUANT	0.2757508	Open Circuit (V)
SEQUENCER	TOGGLE	TRUE	Run as Sequence
PSTATMODEL	IQUANT	5	Pstat Model
PSTATSECTION	LABEL	REF3000-21114	Pstat Section
PSTATSERIALNO	LABEL	21114	Pstat Serial Number
CTRLMODE	IQUANT	0	Control Mode
ELECTROMETER	IQUANT	0	RE=0 or CS=1
IESTAB	IQUANT	0	I/E Stability
CASPEED	IQUANT	4	Control Amp Speed
CONVENTION	IQUANT	1	Current Convention
ICHRANGE	IQUANT	2	Ich Range
ICHRANGEMODE	TOGGLE	T	Ich Auto Range
ICHOFFSETENABLE	TOGGLE	F	Ich Offset Enable
ICHOFFSET	QUANT	0	Ich Offset (V)
ICHFILTER	IQUANT	1	Ich Filter
VCHRANGE	IQUANT	3	Vch Range
VCHRANGEMODE	TOGGLE	T	Vch Auto Range
VCHOFFSETENABLE	TOGGLE	F	Vch Offset Enable
VCHOFFSET	QUANT	0	Vch Offset (V)
VCHFILTER	IQUANT	1	Vch Filter
ACHRANGE	IQUANT	2	Ach Range
ACHOFFSETENABLE	TOGGLE	F	Ach Offset Enable
ACHOFFSET	QUANT	0	Ach Offset (V)
ACHFILTER	IQUANT	1	Ach Filter
IERANGELOWERLIMIT	IQUANT	9	I/E Range Lower Limit
IERANGEMODE	TOGGLE	F	I/E AutoRange
IERANGE	IQUANT	9	I/E Range
POSFEEDENABLE	TOGGLE	F	Positive Feedback IR Comp
POSFEEDRESISTANCE	QUANT	0	Positive Feedback Resistance (ohm)
ACHSELECT	IQUANT	1	Ach Select
SENSECABLEID	IQUANT	13	Sense Cable ID
PWRCABLEID	IQUANT	13	Power Cable ID
DCCALDATE	LABEL		DC Calibration Date
ACCALDATE	LABEL		AC Calibration Date
THERMOSELECT	IQUANT	1	Thermo Select
FRAMEWORKVERSION	LABEL	7.8.6	Framework Version
INSTRUMENTVERSION	LABEL	4.50	Instrument Version
COMPLIANCEVOLTAGE	IQUANT	0	Compliance Voltage
CURVE	TABLE	156
	Pt	T	Vf	Im	Vu	Pwr	Sig	Ach	Temp	IERange	Over	Vf1	Vf2	Vf3	Vf4	Vf5	Vf6	Vf7	Vf8	Pwr1	Pwr2	Pwr3	Pwr4	Pwr5	Pwr6	Pwr7	Pwr8
	#	s	V	A	V	W	V	V	deg C	#	bits	V	V	V	V	V	V	V	V	W	W	W	W	W	W	W	W
	0	1	5.54933E-001	9.98573E-002	0.00000E+000	5.54141E-002	9.94000E-001	4.01478E-002	3.97856E+001	11	...........	6.67242E-002	-4.53875E-003	5.87947E-001	6.04791E-001	-2.82674E-002	-3.82278E-002	6.80961E-001	-4.26615E-002	6.66289E-003	-4.53227E-004	5.87108E-002	6.03928E-002	-2.82270E-003	-3.81732E-003	6.79989E-002	-4.26007E-003
	1	2	7.22168E-001	9.98575E-002	0.00000E+000	7.21138E-002	9.94000E-001	4.06558E-002	4.37761E+001	11	...........	6.75696E-002	-4.58444E-003	5.88035E-001	6.04637E-001	-2.84144E-002	-3.82051E-002	6.81161E-001	-4.26675E-002	6.74733E-003	-4.57791E-004	5.87196E-002	6.03775E-002	-2.83739E-003	-3.81507E-003	6.80190E-002	-4.26067E-003
	2	2.54833	9.74782E-001	9.98577E-002	0.00000E+000	9.73395E-002	9.94000E-001	4.14243E-002	4.77642E+001	11	...........	6.88285E-002	-4.71454E-003	5.88310E-001	6.04564E-001	-2.84552E-002	-3.82285E-002	6.81187E-001	-4.26613E-002	6.87305E-003	-4.70783E-004	5.87473E-002	6.03704E-002	-2.84147E-003	-3.81741E-003	6.80217E-002	-4.26006E-003
	3	3	1.10196E+000	7.47615E-002	0.00000E+000	8.23844E-002	7.44445E-001	4.09050E-002	4.88206E+001	11	...........	6.79634E-002	-4.78936E-003	5.88465E-001	6.04601E-001	-2.85474E-002	-3.82106E-002	6.81256E-001	-4.26556E-002	5.08105E-003	-3.58060E-004	4.39945E-002	4.52009E-002	-2.13424E-003	-2.85669E-003	5.09318E-002	-3.18900E-003
	4	4	1.10115E+000	5.62773E-002	0.00000E+000	6.19699E-002	5.60627E-001	4.07403E-002	4.91964E+001	11	...........	6.76864E-002	-4.56444E-003	5.88394E-001	6.04840E-001	-2.85929E-002	-3.82042E-002	6.81299E-001	-4.26651E-002	3.80920E-003	-2.56874E-004	3.31132E-002	3.40387E-002	-1.60913E-003	-2.15003E-003	3.83416E-002	-2.40108E-003
	5	5	1.10113E+000	4.89962E-002	0.00000E+000	5.39513E-002	4.88232E-001	4.07692E-002	4.72026E+001	11	...........	6.77147E-002	-4.36250E-003	5.88496E-001	6.04928E-001	-2.86544E-002	-3.82206E-002	6.81267E-001	-4.26721E-002	3.31777E-003	-2.13746E-004	2.88341E-002	2.96392E-002	-1.40396E-003	-1.87266E-003	3.33795E-002	-2.09077E-003
	6	6	1.10110E+000	4.55232E-002	0.00000E+000	5.01258E-002	4.53702E-001	4.05566E-002	4.69647E+001	11	...........	6.73742E-002	-4.31986E-003	5.88558E-001	6.05136E-001	-2.86407E-002	-3.82185E-002	6.81195E-001	-4.26854E-002	3.06709E-003	-1.96654E-004	2.67931E-002	2.75477E-002	-1.30382E-003	-1.73983E-003	3.10102E-002	-1.94318E-003
	7	7	1.10102E+000	4.39978E-002	0.00000E+000	4.84426E-002	4.38532E-001	4.10586E-002	4.89022E+001	11	...........	6.82067E-002	-4.40556E-003	5.88532E-001	6.05302E-001	-2.86299E-002	-3.81951E-002	6.81046E-001	-4.26871E-002	3.00094E-003	-1.93835E-004	2.58941E-002	2.66320E-002	-1.25965E-003	-1.68050E-003	2.99646E-002	-1.87814E-003
	8	8	1.10109E+000	4.28540E-002	0.00000E+000	4.71862E-002	4.27156E-001	4.06738E-002	4.78332E+001	11	...........	6.75729E-002	-4.33819E-003	5.88467E-001	6.05338E-001	-2.86335E-002	-3.81908E-002	6.81063E-001	-4.26758E-002	2.89577E-003	-1.85909E-004	2.52182E-002	2.59412E-002	-1.22706E-003	-1.63663E-003	2.91863E-002	-1.82883E-003
	9	9	1.10109E+000	4.16920E-002	0.00000E+000	4.59067E-002	4.15606E-001	4.08196E-002	4.73845E+001	11	...........	6.78368E-002	-4.25486E-003	5.88690E-001	6.05341E-001	-2.86374E-002	-3.81679E-002	6.81118E-001	-4.26804E-002	2.82825E-003	-1.77394E-004	2.45437E-002	2.52379E-002	-1.19395E-003	-1.59130E-003	2.83972E-002	-1.77943E-003
	10	10	1.10101E+000	4.13939E-002	0.00000E+000	4.55752E-002	4.12635E-001	4.08296E-002	4.83507E+001	11	...........	6.78240E-002	-4.14278E-003	5.88757E-001	6.05337E-001	-2.85829E-002	-3.81660E-002	6.81079E-001	-4.27061E-002	2.80750E-003	-1.71486E-004	2.43710E-002	2.50572E-002	-1.18316E-003	-1.57984E-003	2.81925E-002	-1.76777E-003
	11	11	1.10108E+000	4.09817E-002	0.00000E+000	4.51241E-002	4.08540E-001	4.03983E-002	4.53821E+001	11	...........	6.71178E-002	-4.23528E-003	5.88635E-001	6.05335E-001	-2.84900E-002	-3.81793E-002	6.81007E-001	-4.27001E-002	2.75060E-003	-1.73569E-004	2.41232E-002	2.48076E-002	-1.16757E-003	-1.56465E-003	2.79088E-002	-1.74992E-003
	12	12	1.10109E+000	4.03434E-002	0.00000E+000	4.44217E-002	4.02198E-001	4.08648E-002	4.72342E+001	11	...........	6.79114E-002	-4.32306E-003	5.88613E-001	6.05339E-001	-2.83561E-002	-3.81778E-002	6.81091E-001	-4.26953E-002	2.73978E-003	-1.74407E-004	2.37467E-002	2.44214E-002	-1.14398E-003	-1.54022E-003	2.74775E-002	-1.72247E-003
	13	13	1.10101E+000	4.02669E-002	0.00000E+000	4.43343E-002	4.01431E-001	4.07970E-002	4.80972E+001	11	...........	6.77788E-002	-4.47000E-003	5.88651E-001	6.05327E-001	-2.82615E-002	-3.81722E-002	6.81055E-001	-4.26817E-002	2.72924E-003	-1.79993E-004	2.37031E-002	2.43746E-002	-1.13800E-003	-1.53708E-003	2.74240E-002	-1.71866E-003
	14	14	1.10107E+000	4.00901E-002	0.00000E+000	4.41422E-002	3.99677E-001	4.04387E-002	4.70301E+001	11	...........	6.71821E-002	-4.47333E-003	5.88611E-001	6.05330E-001	-2.83215E-002	-3.81843E-002	6.80988E-001	-4.26717E-002	2.69334E-003	-1.79336E-004	2.35975E-002	2.42677E-002	-1.13541E-003	-1.53081E-003	2.73009E-002	-1.71071E-003
	15	15	1.10109E+000	3.95996E-002	0.00000E+000	4.36029E-002	3.94800E-001	4.08883E-002	4.79378E+001	11	...........	6.79212E-002	-4.41333E-003	5.88712E-001	6.05330E-001	-2.84807E-002	-3.81774E-002	6.81128E-001	-4.26817E-002	2.68966E-003	-1.74766E-004	2.33128E-002	2.39709E-002	-1.12783E-003	-1.51181E-003	2.69724E-002	-1.69018E-003
	16	16	1.10101E+000	3.96046E-002	0.00000E+000	4.36051E-002	3.94855E-001	4.05627E-002	4.53922E+001	11	...........	6.73979E-002	-4.26583E-003	5.88802E-001	6.05318E-001	-2.86054E-002	-3.81793E-002	6.81154E-001	-4.26762E-002	2.66927E-003	-1.68947E-004	2.33193E-002	2.39734E-002	-1.13291E-003	-1.51208E-003	2.69768E-002	-1.69018E-003
	17	17	1.10107E+000	3.95780E-002	0.00000E+000	4.35782E-002	3.94586E-001	4.06436E-002	4.75565E+001	11	...........	6.75183E-002	-4.28667E-003	5.88894E-001	6.05318E-001	-2.87107E-002	-3.81539E-002	6.81044E-001	-4.26432E-002	2.67224E-003	-1.69658E-004	2.33073E-002	2.39573E-002	-1.13631E-003	-1.51006E-003	2.69544E-002	-1.68773E-003
	18	18	1.10110E+000	3.91255E-002	0.00000E+000	4.30809E-002	3.90090E-001	4.05774E-002	4.78534E+001	11	...........	6.74050E-002	-4.45944E-003	5.88943E-001	6.05313E-001	-2.87290E-002	-3.81394E-002	6.81171E-001	-4.26446E-002	2.63726E-003	-1.74478E-004	2.30427E-002	2.36832E-002	-1.12404E-003	-1.49223E-003	2.66512E-002	-1.66849E-003
	19	19	1.10101E+000	3.91020E-002	0.00000E+000	4.30517E-002	3.89858E-001	4.05537E-002	4.67934E+001	11	...........	6.73958E-002	-4.53722E-003	5.88922E-001	6.05322E-001	-2.86803E-002	-3.81265E-002	6.81150E-001	-4.26385E-002	2.63531E-003	-1.77415E-004	2.30280E-002	2.36693E-002	-1.12146E-003	-1.49082E-003	2.66343E-002	-1.66725E-003
	20	20	1.10107E+000	3.91351E-002	0.00000E+000	4.30904E-002	3.90187E-001	4.03352E-002	4.77115E+001	11	...........	6.72218E-002	-4.51208E-003	5.88866E-001	6.05330E-001	-2.85343E-002	-3.81460E-002	6.81105E-001	-4.26465E-002	2.63073E-003	-1.76581E-004	2.30453E-002	2.36897E-002	-1.11669E-003	-1.49285E-003	2.66551E-002	-1.66898E-003
	21	21	1.10110E+000	3.86525E-002	0.00000E+000	4.25602E-002	3.85393E-001	4.04730E-002	4.59951E+001	11	...........	6.75557E-002	-4.50986E-003	5.88844E-001	6.05321E-001	-2.83678E-002	-3.81371E-002	6.81134E-001	-4.26632E-002	2.61120E-003	-1.74318E-004	2.27603E-002	2.33972E-002	-1.09649E-003	-1.47410E-003	2.63275E-002	-1.64904E-003
	22	22	1.10101E+000	3.86745E-002	0.00000E+000	4.25809E-002	3.85612E-001	3.99256E-002	4.62424E+001	11	...........	6.66696E-002	-4.34500E-003	5.88817E-001	6.05309E-001	-2.84439E-002	-3.81483E-002	6.81152E-001	-4.26690E-002	2.57841E-003	-1.68041E-004	2.27722E-002	2.34100E-002	-1.10005E-003	-1.47537E-003	2.63432E-002	-1.65020E-003
	23	23	1.10107E+000	3.87909E-002	0.00000E+000	4.27114E-002	3.86769E-001	4.04508E-002	4.78528E+001	11	...........	6.75387E-002	-4.39486E-003	5.88977E-001	6.05289E-001	-2.86281E-002	-3.81865E-002	6.81123E-001	-4.26717E-002	2.61989E-003	-1.70481E-004	2.28470E-002	2.34797E-002	-1.11051E-003	-1.48129E-003	2.64214E-002	-1.65527E-003
	24	24	1.10110E+000	3.82957E-002	0.00000E+000	4.21674E-002	3.81847E-001	4.03910E-002	4.76288E+001	11	...........	6.74494E-002	-4.48236E-003	5.88950E-001	6.05307E-001	-2.86936E-002	-3.81567E-002	6.81099E-001	-4.26851E-002	2.58302E-003	-1.71655E-004	2.25542E-002	2.31806E-002	-1.09884E-003	-1.46123E-003	2.60831E-002	-1.63466E-003
	25	25	1.10101E+000	3.83274E-002	0.00000E+000	4.21987E-002	3.82163E-001	4.00152E-002	4.65218E+001	11	...........	6.68104E-002	-4.44319E-003	5.88822E-001	6.05226E-001	-2.86771E-002	-3.81479E-002	6.81056E-001	-4.26987E-002	2.56067E-003	-1.70296E-004	2.25680E-002	2.31967E-002	-1.09912E-003	-1.46211E-003	2.61031E-002	-1.63653E-003
	26	26	1.10106E+000	3.84164E-002	0.00000E+000	4.22989E-002	3.83050E-001	4.03541E-002	4.80747E+001	11	...........	6.73744E-002	-4.40278E-003	5.88760E-001	6.05248E-001	-2.85087E-002	-3.81282E-002	6.81034E-001	-4.26793E-002	2.58828E-003	-1.69139E-004	2.26180E-002	2.32514E-002	-1.09520E-003	-1.46475E-003	2.61628E-002	-1.63958E-003
	27	27	1.10110E+000	3.79587E-002	0.00000E+000	4.17964E-002	3.78496E-001	4.01047E-002	4.53446E+001	11	...........	6.69461E-002	-4.40958E-003	5.88736E-001	6.05281E-001	-2.82899E-002	-3.81462E-002	6.80962E-001	-4.26701E-002	2.54118E-003	-1.67382E-004	2.23476E-002	2.29756E-002	-1.07385E-003	-1.44798E-003	2.58484E-002	-1.61970E-003
	28	28	1.10101E+000	3.80524E-002	0.00000E+000	4.18959E-002	3.79427E-001	4.01668E-002	4.72060E+001	11	...........	6.70549E-002	-4.35528E-003	5.88663E-001	6.05295E-001	-2.84985E-002	-3.81936E-002	6.80989E-001	-4.26582E-002	2.55159E-003	-1.65729E-004	2.24000E-002	2.30329E-002	-1.08443E-003	-1.45336E-003	2.59132E-002	-1.62324E-003
	29	29	1.10106E+000	3.81004E-002	0.00000E+000	4.19509E-002	3.79903E-001	4.01604E-002	4.75432E+001	11	...........	6.70401E-002	-4.44208E-003	5.88594E-001	6.05283E-001	-2.86415E-002	-3.82035E-002	6.81022E-001	-4.26607E-002	2.55426E-003	-1.69245E-004	2.24257E-002	2.30615E-002	-1.09125E-003	-1.45557E-003	2.59472E-002	-1.62539E-003
	30	30	1.10111E+000	3.76764E-002	0.00000E+000	4.14858E-002	3.75685E-001	4.00483E-002	4.77554E+001	11	...........	6.68785E-002	-4.40514E-003	5.88549E-001	6.05237E-001	-2.86421E-002	-3.81354E-002	6.81059E-001	-4.26606E-002	2.51974E-003	-1.65970E-004	2.21744E-002	2.28032E-002	-1.07913E-003	-1.43681E-003	2.56599E-002	-1.60730E-003
	31	31	1.10100E+000	3.77148E-002	0.00000E+000	4.15242E-002	3.76066E-001	4.02093E-002	4.64782E+001	11	...........	6.71294E-002	-4.41042E-003	5.88607E-001	6.05278E-001	-2.84872E-002	-3.81340E-002	6.80943E-001	-4.26347E-002	2.53177E-003	-1.66338E-004	2.21992E-002	2.28279E-002	-1.07439E-003	-1.43822E-003	2.56816E-002	-1.60796E-003
	32	32	1.10106E+000	3.77562E-002	0.00000E+000	4.15717E-002	3.76477E-001	3.97870E-002	4.44082E+001	11	...........	6.64075E-002	-4.32556E-003	5.88670E-001	6.05087E-001	-2.82767E-002	-3.81758E-002	6.80929E-001	-4.26426E-002	2.50729E-003	-1.63316E-004	2.22259E-002	2.28458E-002	-1.06762E-003	-1.44137E-003	2.57092E-002	-1.61002E-003
	33	33	1.10111E+000	3.74278E-002	0.00000E+000	4.12121E-002	3.73209E-001	4.02820E-002	4.72849E+001	11	...........	6.72385E-002	-4.15681E-003	5.88736E-001	6.04722E-001	-2.84449E-002	-3.82310E-002	6.80886E-001	-4.26607E-002	2.51659E-003	-1.55580E-004	2.20351E-002	2.26334E-002	-1.06463E-003	-1.43090E-003	2.54840E-002	-1.59669E-003
	34	34	1.10100E+000	3.74012E-002	0.00000E+000	4.11788E-002	3.72952E-001	3.99942E-002	4.64726E+001	11	...........	6.67528E-002	-4.29333E-003	5.88784E-001	6.04312E-001	-2.86079E-002	-3.82439E-002	6.80827E-001	-4.26487E-002	2.49663E-003	-1.60576E-004	2.20212E-002	2.26020E-002	-1.06997E-003	-1.43037E-003	2.54638E-002	-1.59511E-003
	35	35	1.10106E+000	3.75182E-002	0.00000E+000	4.13097E-002	3.74117E-001	4.01440E-002	4.60752E+001	11	...........	6.70337E-002	-4.18917E-003	5.88794E-001	6.04568E-001	-2.86586E-002	-3.82131E-002	6.80798E-001	-4.26628E-002	2.51499E-003	-1.57170E-004	2.20905E-002	2.26823E-002	-1.07522E-003	-1.43369E-003	2.55424E-002	-1.60063E-003
	36	36	1.10111E+000	3.70948E-002	0.00000E+000	4.08456E-002	3.69906E-001	3.97594E-002	4.73076E+001	11	...........	6.63931E-002	-4.22458E-003	5.88807E-001	6.04600E-001	-2.86382E-002	-3.81951E-002	6.80862E-001	-4.26599E-002	2.46284E-003	-1.56710E-004	2.18417E-002	2.24275E-002	-1.06233E-003	-1.41684E-003	2.52564E-002	-1.58246E-003
	37	37	1.10100E+000	3.71780E-002	0.00000E+000	4.09331E-002	3.70728E-001	4.02397E-002	4.69545E+001	11	...........	6.71768E-002	-4.40417E-003	5.88793E-001	6.04844E-001	-2.85499E-002	-3.81876E-002	6.80830E-001	-4.26563E-002	2.49750E-003	-1.63738E-004	2.18901E-002	2.24869E-002	-1.06143E-003	-1.41974E-003	2.53119E-002	-1.58587E-003
	38	38	1.10105E+000	3.71807E-002	0.00000E+000	4.09380E-002	3.70758E-001	3.97919E-002	4.71928E+001	11	...........	6.64468E-002	-4.31778E-003	5.88759E-001	6.04648E-001	-2.83919E-002	-3.81976E-002	6.80911E-001	-4.26636E-002	2.47054E-003	-1.60538E-004	2.18905E-002	2.24812E-002	-1.05563E-003	-1.42021E-003	2.53167E-002	-1.58626E-003
	39	39	1.10112E+000	3.67842E-002	0.00000E+000	4.05036E-002	3.66815E-001	4.00622E-002	4.46454E+001	11	...........	6.68814E-002	-4.32833E-003	5.88882E-001	6.04838E-001	-2.82600E-002	-3.82115E-002	6.80933E-001	-4.26632E-002	2.46018E-003	-1.59214E-004	2.16615E-002	2.22485E-002	-1.03952E-003	-1.40558E-003	2.50476E-002	-1.56933E-003
	40	40	1.10100E+000	3.68713E-002	0.00000E+000	4.05954E-002	3.67683E-001	3.98307E-002	4.63769E+001	11	...........	6.64999E-002	-4.31625E-003	5.88808E-001	6.04955E-001	-2.82847E-002	-3.82299E-002	6.80969E-001	-4.26539E-002	2.45194E-003	-1.59146E-004	2.17101E-002	2.23055E-002	-1.04289E-003	-1.40958E-003	2.51082E-002	-1.57270E-003
	41	41	1.10105E+000	3.69422E-002	0.00000E+000	4.06753E-002	3.68388E-001	3.99215E-002	4.67827E+001	11	...........	6.66518E-002	-4.40181E-003	5.88777E-001	6.04385E-001	-2.83628E-002	-3.82419E-002	6.80982E-001	-4.26646E-002	2.46227E-003	-1.62612E-004	2.17507E-002	2.23273E-002	-1.04778E-003	-1.41274E-003	2.51570E-002	-1.57612E-003
	42	42	1.10112E+000	3.65854E-002	0.00000E+000	4.02849E-002	3.64843E-001	3.99065E-002	4.64184E+001	11	...........	6.66496E-002	-4.25028E-003	5.88598E-001	6.04461E-001	-2.84410E-002	-3.82637E-002	6.80891E-001	-4.26482E-002	2.43840E-003	-1.55498E-004	2.15341E-002	2.21145E-002	-1.04053E-003	-1.39990E-003	2.49107E-002	-1.56030E-003
	43	43	1.10100E+000	3.65404E-002	0.00000E+000	4.02312E-002	3.64394E-001	3.98608E-002	4.75469E+001	11	...........	6.65662E-002	-4.19917E-003	5.88684E-001	6.04230E-001	-2.85189E-002	-3.82657E-002	6.80860E-001	-4.26390E-002	2.43236E-003	-1.53439E-004	2.15108E-002	2.20788E-002	-1.04209E-003	-1.39825E-003	2.48789E-002	-1.55805E-003
	44	44	1.10105E+000	3.66502E-002	0.00000E+000	4.03537E-002	3.65483E-001	3.99924E-002	4.80958E+001	11	...........	6.67764E-002	-4.35389E-003	5.88775E-001	6.04300E-001	-2.85800E-002	-3.82528E-002	6.80824E-001	-4.26460E-002	2.44737E-003	-1.59571E-004	2.15788E-002	2.21477E-002	-1.04746E-003	-1.40197E-003	2.49524E-002	-1.56298E-003
	45	45	1.10112E+000	3.62844E-002	0.00000E+000	3.99535E-002	3.61842E-001	3.97923E-002	4.39278E+001	11	...........	6.64376E-002	-4.30667E-003	5.88799E-001	6.04366E-001	-2.86081E-002	-3.82414E-002	6.80704E-001	-4.26637E-002	2.41065E-003	-1.56265E-004	2.13642E-002	2.19290E-002	-1.03802E-003	-1.38756E-003	2.46989E-002	-1.54803E-003
	46	46	1.10100E+000	3.62819E-002	0.00000E+000	3.99464E-002	3.61825E-001	3.96642E-002	4.67364E+001	11	...........	6.62206E-002	-4.26083E-003	5.88672E-001	6.04440E-001	-2.85993E-002	-3.82339E-002	6.80702E-001	-4.26644E-002	2.40261E-003	-1.54591E-004	2.13582E-002	2.19302E-002	-1.03764E-003	-1.38720E-003	2.46972E-002	-1.54795E-003
	47	47	1.10105E+000	3.64060E-002	0.00000E+000	4.00848E-002	3.63056E-001	4.00366E-002	4.66538E+001	11	...........	6.68422E-002	-4.28542E-003	5.88603E-001	6.04407E-001	-2.86107E-002	-3.82672E-002	6.80853E-001	-4.26711E-002	2.43346E-003	-1.56015E-004	2.14287E-002	2.20041E-002	-1.04160E-003	-1.39316E-003	2.47872E-002	-1.55349E-003
	48	48	1.10112E+000	3.60343E-002	0.00000E+000	3.96781E-002	3.59360E-001	3.96157E-002	4.75795E+001	11	...........	6.62392E-002	-4.21458E-003	5.88576E-001	6.04256E-001	-2.85910E-002	-3.82504E-002	6.80832E-001	-4.26667E-002	2.38688E-003	-1.51870E-004	2.12089E-002	2.17740E-002	-1.03026E-003	-1.37833E-003	2.45333E-002	-1.53746E-003
	49	49	1.10100E+000	3.60129E-002	0.00000E+000	3.96503E-002	3.59147E-001	3.98202E-002	4.75706E+001	11	...........	6.64804E-002	-4.27597E-003	5.88610E-001	6.04246E-001	-2.86096E-002	-3.82206E-002	6.80862E-001	-4.26651E-002	2.39415E-003	-1.53990E-004	2.11975E-002	2.17606E-002	-1.03031E-003	-1.37643E-003	2.45198E-002	-1.53649E-003
	50	50	1.10105E+000	3.61030E-002	0.00000E+000	3.97511E-002	3.60043E-001	3.96858E-002	4.43928E+001	11	...........	6.62722E-002	-4.45667E-003	5.88727E-001	6.04466E-001	-2.86069E-002	-3.82125E-002	6.80831E-001	-4.26668E-002	2.39262E-003	-1.60899E-004	2.12548E-002	2.18230E-002	-1.03280E-003	-1.37958E-003	2.45800E-002	-1.54040E-003
	51	51	1.10112E+000	3.58079E-002	0.00000E+000	3.94287E-002	3.57108E-001	3.96477E-002	4.69995E+001	11	...........	6.62137E-002	-4.42694E-003	5.88793E-001	6.04693E-001	-2.85736E-002	-3.82201E-002	6.80674E-001	-4.26760E-002	2.37097E-003	-1.58519E-004	2.10834E-002	2.16528E-002	-1.02316E-003	-1.36858E-003	2.43735E-002	-1.52814E-003
	52	52	1.10101E+000	3.58040E-002	0.00000E+000	3.94204E-002	3.57069E-001	3.98960E-002	4.71782E+001	11	...........	6.66328E-002	-4.43806E-003	5.88949E-001	6.04547E-001	-2.85249E-002	-3.82081E-002	6.80783E-001	-4.26743E-002	2.38572E-003	-1.58900E-004	2.10867E-002	2.16452E-002	-1.02130E-003	-1.36800E-003	2.43747E-002	-1.52791E-003
	53	53	1.10104E+000	3.58548E-002	0.00000E+000	3.94778E-002	3.57577E-001	3.96704E-002	4.71137E+001	11	...........	6.62240E-002	-4.43375E-003	5.88887E-001	6.04890E-001	-2.84796E-002	-3.81954E-002	6.80803E-001	-4.26729E-002	2.37445E-003	-1.58971E-004	2.11144E-002	2.16882E-002	-1.02113E-003	-1.36949E-003	2.44101E-002	-1.53003E-003
	54	54	1.10112E+000	3.55355E-002	0.00000E+000	3.91289E-002	3.54401E-001	3.95187E-002	4.66065E+001	11	...........	6.60033E-002	-4.34375E-003	5.88789E-001	6.04428E-001	-2.84110E-002	-3.82014E-002	6.80828E-001	-4.26692E-002	2.34546E-003	-1.54357E-004	2.09229E-002	2.14787E-002	-1.00960E-003	-1.35750E-003	2.41935E-002	-1.51627E-003
	55	55	1.10100E+000	3.54968E-002	0.00000E+000	3.90821E-002	3.54014E-001	3.99029E-002	4.66744E+001	11	...........	6.66321E-002	-4.46500E-003	5.89105E-001	6.04460E-001	-2.83265E-002	-3.81982E-002	6.80925E-001	-4.26628E-002	2.36522E-003	-1.58493E-004	2.09113E-002	2.14564E-002	-1.00550E-003	-1.35591E-003	2.41706E-002	-1.51439E-003
	56	56	1.10104E+000	3.56235E-002	0.00000E+000	3.92231E-002	3.55274E-001	3.92322E-002	4.50337E+001	11	...........	6.55060E-002	-4.41639E-003	5.89060E-001	6.04456E-001	-2.82904E-002	-3.82128E-002	6.80791E-001	-4.26599E-002	2.33355E-003	-1.57327E-004	2.09844E-002	2.15329E-002	-1.00780E-003	-1.36127E-003	2.42522E-002	-1.51969E-003
	57	57	1.10112E+000	3.53533E-002	0.00000E+000	3.89283E-002	3.52588E-001	4.00122E-002	4.78444E+001	11	...........	6.68107E-002	-4.47931E-003	5.88912E-001	6.04554E-001	-2.82424E-002	-3.82135E-002	6.80708E-001	-4.26604E-002	2.36198E-003	-1.58358E-004	2.08200E-002	2.13730E-002	-9.98461E-004	-1.35097E-003	2.40653E-002	-1.50819E-003
	58	58	1.10101E+000	3.52249E-002	0.00000E+000	3.87829E-002	3.51306E-001	3.96075E-002	4.53151E+001	11	...........	6.61307E-002	-4.50889E-003	5.88751E-001	6.04646E-001	-2.82236E-002	-3.82335E-002	6.80629E-001	-4.26422E-002	2.32945E-003	-1.58825E-004	2.07387E-002	2.12986E-002	-9.94173E-004	-1.34677E-003	2.39751E-002	-1.50207E-003
	59	59	1.10104E+000	3.53745E-002	0.00000E+000	3.89487E-002	3.52799E-001	3.95743E-002	4.73104E+001	11	...........	6.60751E-002	-4.47778E-003	5.88627E-001	6.04875E-001	-2.82672E-002	-3.82542E-002	6.80566E-001	-4.26593E-002	2.33737E-003	-1.58399E-004	2.08224E-002	2.13972E-002	-9.99938E-004	-1.35322E-003	2.40747E-002	-1.50905E-003
	60	60	1.10112E+000	3.50682E-002	0.00000E+000	3.86144E-002	3.49749E-001	3.96718E-002	4.60500E+001	11	...........	6.62583E-002	-4.46194E-003	5.88622E-001	6.05118E-001	-2.82714E-002	-3.82864E-002	6.80684E-001	-4.26596E-002	2.32356E-003	-1.56472E-004	2.06419E-002	2.12204E-002	-9.91426E-004	-1.34263E-003	2.38703E-002	-1.49599E-003
	61	61	1.10100E+000	3.49399E-002	0.00000E+000	3.84690E-002	3.48474E-001	3.92250E-002	4.56893E+001	11	...........	6.54881E-002	-4.36819E-003	5.88561E-001	6.05125E-001	-2.83200E-002	-3.82737E-002	6.80671E-001	-4.26594E-002	2.28815E-003	-1.52624E-004	2.05643E-002	2.11430E-002	-9.89498E-004	-1.33728E-003	2.37826E-002	-1.49052E-003
	62	62	1.10104E+000	3.51569E-002	0.00000E+000	3.87092E-002	3.50635E-001	3.97634E-002	4.72131E+001	11	...........	6.64035E-002	-4.35444E-003	5.88630E-001	6.05143E-001	-2.84376E-002	-3.82842E-002	6.80799E-001	-4.26607E-002	2.33454E-003	-1.53089E-004	2.06944E-002	2.12749E-002	-9.99779E-004	-1.34595E-003	2.39348E-002	-1.49982E-003
	63	63	1.10112E+000	3.48508E-002	0.00000E+000	3.83751E-002	3.47591E-001	3.94277E-002	4.70315E+001	11	...........	6.58081E-002	-4.35486E-003	5.88582E-001	6.05140E-001	-2.84939E-002	-3.82825E-002	6.80840E-001	-4.26597E-002	2.29347E-003	-1.51771E-004	2.05126E-002	2.10896E-002	-9.93036E-004	-1.33418E-003	2.37278E-002	-1.48673E-003
	64	64	1.10101E+000	3.47359E-002	0.00000E+000	3.82445E-002	3.46450E-001	3.96474E-002	4.74691E+001	11	...........	6.61960E-002	-4.37306E-003	5.88659E-001	6.05286E-001	-2.85525E-002	-3.83042E-002	6.80832E-001	-4.26592E-002	2.29937E-003	-1.51902E-004	2.04476E-002	2.10251E-002	-9.91795E-004	-1.33053E-003	2.36493E-002	-1.48180E-003
	65	65	1.10104E+000	3.48506E-002	0.00000E+000	3.83720E-002	3.47595E-001	3.93847E-002	4.43492E+001	11	...........	6.57630E-002	-4.32486E-003	5.88759E-001	6.05206E-001	-2.85882E-002	-3.82642E-002	6.80763E-001	-4.26212E-002	2.29188E-003	-1.50724E-004	2.05186E-002	2.10918E-002	-9.96316E-004	-1.33353E-003	2.37250E-002	-1.48538E-003
	66	66	1.10112E+000	3.45947E-002	0.00000E+000	3.80929E-002	3.45047E-001	3.95503E-002	4.61512E+001	11	...........	6.60553E-002	-4.27403E-003	5.88707E-001	6.05271E-001	-2.86225E-002	-3.82701E-002	6.80793E-001	-4.26525E-002	2.28516E-003	-1.47859E-004	2.03661E-002	2.09392E-002	-9.90187E-004	-1.32394E-003	2.35518E-002	-1.47555E-003
	67	67	1.10101E+000	3.44856E-002	0.00000E+000	3.79690E-002	3.43964E-001	3.94829E-002	4.78421E+001	11	...........	6.59475E-002	-4.37653E-003	5.88587E-001	6.05211E-001	-2.86090E-002	-3.82643E-002	6.80737E-001	-4.26774E-002	2.27424E-003	-1.50927E-004	2.02978E-002	2.08711E-002	-9.86600E-004	-1.31957E-003	2.34757E-002	-1.47176E-003
	68	68	1.10104E+000	3.46045E-002	0.00000E+000	3.81009E-002	3.45147E-001	3.94109E-002	4.58256E+001	11	...........	6.58060E-002	-4.39236E-003	5.88626E-001	6.05267E-001	-2.86178E-002	-3.82531E-002	6.80809E-001	-4.26881E-002	2.27718E-003	-1.51995E-004	2.03691E-002	2.09449E-002	-9.90303E-004	-1.32373E-003	2.35590E-002	-1.47720E-003
	69	69	1.10112E+000	3.43888E-002	0.00000E+000	3.78662E-002	3.43002E-001	3.95479E-002	4.75194E+001	11	...........	6.60510E-002	-4.41500E-003	5.88727E-001	6.05230E-001	-2.86133E-002	-3.82410E-002	6.80828E-001	-4.26821E-002	2.27141E-003	-1.51827E-004	2.02456E-002	2.08131E-002	-9.83979E-004	-1.31506E-003	2.34129E-002	-1.46779E-003
	70	70	1.10101E+000	3.42235E-002	0.00000E+000	3.76805E-002	3.41358E-001	3.93399E-002	4.52521E+001	11	...........	6.56865E-002	-4.44208E-003	5.88757E-001	6.05006E-001	-2.86000E-002	-3.82460E-002	6.80866E-001	-4.26774E-002	2.24803E-003	-1.52024E-004	2.01493E-002	2.07054E-002	-9.78793E-004	-1.30891E-003	2.33016E-002	-1.46057E-003
	71	71	1.10104E+000	3.43932E-002	0.00000E+000	3.78683E-002	3.43045E-001	3.94618E-002	4.58408E+001	11	...........	6.58997E-002	-4.50431E-003	5.88629E-001	6.04886E-001	-2.86181E-002	-3.82511E-002	6.80840E-001	-4.26711E-002	2.26650E-003	-1.54917E-004	2.02448E-002	2.08040E-002	-9.84266E-004	-1.31558E-003	2.34163E-002	-1.46760E-003
	72	72	1.10112E+000	3.41655E-002	0.00000E+000	3.76203E-002	3.40782E-001	3.93671E-002	4.78528E+001	11	...........	6.57399E-002	-4.55889E-003	5.88557E-001	6.04952E-001	-2.86386E-002	-3.82789E-002	6.80818E-001	-4.26597E-002	2.24603E-003	-1.55757E-004	2.01083E-002	2.06685E-002	-9.78452E-004	-1.30782E-003	2.32605E-002	-1.45749E-003
	73	73	1.10101E+000	3.40049E-002	0.00000E+000	3.74398E-002	3.39184E-001	3.93935E-002	4.66789E+001	11	...........	6.57806E-002	-4.50431E-003	5.88551E-001	6.04969E-001	-2.86299E-002	-3.82374E-002	6.80845E-001	-4.26692E-002	2.23686E-003	-1.53168E-004	2.00136E-002	2.05719E-002	-9.73555E-004	-1.30026E-003	2.31521E-002	-1.45096E-003
	74	74	1.10104E+000	3.41117E-002	0.00000E+000	3.75583E-002	3.40242E-001	3.92127E-002	4.76022E+001	11	...........	6.54671E-002	-4.48722E-003	5.88557E-001	6.04847E-001	-2.86429E-002	-3.82390E-002	6.80909E-001	-4.26642E-002	2.23319E-003	-1.53067E-004	2.00767E-002	2.06324E-002	-9.77058E-004	-1.30440E-003	2.32270E-002	-1.45535E-003
	75	75	1.10112E+000	3.38837E-002	0.00000E+000	3.73100E-002	3.37982E-001	3.94562E-002	4.56674E+001	11	...........	6.58947E-002	-4.50444E-003	5.88594E-001	6.04732E-001	-2.86550E-002	-3.82511E-002	6.80787E-001	-4.26699E-002	2.23276E-003	-1.52627E-004	1.99438E-002	2.04906E-002	-9.70938E-004	-1.29609E-003	2.30676E-002	-1.44581E-003
	76	76	1.10101E+000	3.37833E-002	0.00000E+000	3.71958E-002	3.36980E-001	3.93755E-002	4.62126E+001	11	...........	6.57399E-002	-4.47292E-003	5.88566E-001	6.04805E-001	-2.86811E-002	-3.82325E-002	6.80777E-001	-4.26636E-002	2.22091E-003	-1.51110E-004	1.98837E-002	2.04323E-002	-9.68941E-004	-1.29162E-003	2.29989E-002	-1.44132E-003
	77	77	1.10104E+000	3.39242E-002	0.00000E+000	3.73518E-002	3.38379E-001	3.92551E-002	4.75720E+001	11	...........	6.55446E-002	-4.49042E-003	5.88556E-001	6.05080E-001	-2.86849E-002	-3.82299E-002	6.80756E-001	-4.26600E-002	2.22355E-003	-1.52334E-004	1.99663E-002	2.05269E-002	-9.73112E-004	-1.29692E-003	2.30941E-002	-1.44721E-003
	78	78	1.10112E+000	3.37067E-002	0.00000E+000	3.71151E-002	3.36218E-001	3.93656E-002	4.74320E+001	11	...........	6.57486E-002	-4.36972E-003	5.88501E-001	6.05046E-001	-2.86803E-002	-3.82504E-002	6.80877E-001	-4.26642E-002	2.21617E-003	-1.47289E-004	1.98364E-002	2.03941E-002	-9.66718E-004	-1.28930E-003	2.29501E-002	-1.43807E-003
	79	79	1.10102E+000	3.34953E-002	0.00000E+000	3.68788E-002	3.34115E-001	3.90868E-002	4.58267E+001	11	...........	6.52560E-002	-4.22069E-003	5.88497E-001	6.05074E-001	-2.86967E-002	-3.82601E-002	6.80703E-001	-4.26646E-002	2.18577E-003	-1.41373E-004	1.97118E-002	2.02671E-002	-9.61202E-004	-1.28153E-003	2.28003E-002	-1.42906E-003
	80	80	1.10104E+000	3.36710E-002	0.00000E+000	3.70730E-002	3.35859E-001	3.93341E-002	4.62983E+001	11	...........	6.56579E-002	-4.28472E-003	5.88399E-001	6.05029E-001	-2.86864E-002	-3.82565E-002	6.80715E-001	-4.26625E-002	2.21077E-003	-1.44271E-004	1.98120E-002	2.03719E-002	-9.65899E-004	-1.28813E-003	2.29204E-002	-1.43649E-003
	81	81	1.10112E+000	3.34920E-002	0.00000E+000	3.68786E-002	3.34082E-001	3.93471E-002	4.69949E+001	11	...........	6.57011E-002	-4.26014E-003	5.88108E-001	6.04901E-001	-2.86528E-002	-3.82693E-002	6.80918E-001	-4.26632E-002	2.20046E-003	-1.42681E-004	1.96969E-002	2.02594E-002	-9.59640E-004	-1.28172E-003	2.28053E-002	-1.42888E-003
	82	82	1.10102E+000	3.32844E-002	0.00000E+000	3.66467E-002	3.32017E-001	3.91618E-002	4.68975E+001	11	...........	6.53649E-002	-4.22681E-003	5.88161E-001	6.04876E-001	-2.85983E-002	-3.82621E-002	6.81075E-001	-4.26643E-002	2.17563E-003	-1.40687E-004	1.95766E-002	2.01329E-002	-9.51877E-004	-1.27353E-003	2.26692E-002	-1.42005E-003
	83	83	1.10104E+000	3.34562E-002	0.00000E+000	3.68366E-002	3.33724E-001	3.93118E-002	4.80309E+001	11	...........	6.56501E-002	-4.28097E-003	5.88327E-001	6.04497E-001	-2.85550E-002	-3.82612E-002	6.81016E-001	-4.26626E-002	2.19641E-003	-1.43225E-004	1.96832E-002	2.02242E-002	-9.55343E-004	-1.28008E-003	2.27842E-002	-1.42733E-003
	84	84	1.10111E+000	3.32541E-002	0.00000E+000	3.66165E-002	3.31717E-001	3.91732E-002	4.55137E+001	11	...........	6.54160E-002	-4.36444E-003	5.88375E-001	6.04369E-001	-2.85475E-002	-3.82356E-002	6.80920E-001	-4.26649E-002	2.17535E-003	-1.45136E-004	1.95659E-002	2.00977E-002	-9.49321E-004	-1.27149E-003	2.26434E-002	-1.41878E-003
	85	85	1.10102E+000	3.30256E-002	0.00000E+000	3.63618E-002	3.29446E-001	3.89341E-002	4.63719E+001	11	...........	6.50090E-002	-4.31056E-003	5.88163E-001	6.04139E-001	-2.85187E-002	-3.82356E-002	6.81113E-001	-4.26599E-002	2.14696E-003	-1.42359E-004	1.94244E-002	1.99520E-002	-9.41848E-004	-1.26275E-003	2.24942E-002	-1.40887E-003
	86	86	1.10104E+000	3.32703E-002	0.00000E+000	3.66319E-002	3.31880E-001	3.94156E-002	4.68589E+001	11	...........	6.58286E-002	-4.30403E-003	5.88356E-001	6.04186E-001	-2.85172E-002	-3.82415E-002	6.81010E-001	-4.26683E-002	2.19014E-003	-1.43196E-004	1.95748E-002	2.01015E-002	-9.48777E-004	-1.27231E-003	2.26574E-002	-1.41959E-003
	87	87	1.10111E+000	3.30200E-002	0.00000E+000	3.63588E-002	3.29392E-001	3.89502E-002	4.72251E+001	11	...........	6.50387E-002	-4.13306E-003	5.88291E-001	6.04129E-001	-2.85106E-002	-3.82272E-002	6.80807E-001	-4.26735E-002	2.14758E-003	-1.36474E-004	1.94254E-002	1.99484E-002	-9.41420E-004	-1.26226E-003	2.24803E-002	-1.40908E-003
	88	88	1.10102E+000	3.28265E-002	0.00000E+000	3.61427E-002	3.27463E-001	3.93080E-002	4.69033E+001	11	...........	6.56428E-002	-4.09750E-003	5.88396E-001	6.03968E-001	-2.85204E-002	-3.82458E-002	6.80884E-001	-4.26706E-002	2.15482E-003	-1.34506E-004	1.93150E-002	1.98261E-002	-9.36224E-004	-1.25548E-003	2.23510E-002	-1.40072E-003
	89	89	1.10104E+000	3.29841E-002	0.00000E+000	3.63167E-002	3.29035E-001	3.89067E-002	4.54473E+001	11	...........	6.49826E-002	-4.13069E-003	5.88377E-001	6.04038E-001	-2.85292E-002	-3.82460E-002	6.81017E-001	-4.26681E-002	2.14339E-003	-1.36247E-004	1.94071E-002	1.99236E-002	-9.41008E-004	-1.26151E-003	2.24627E-002	-1.40737E-003
	90	90	1.10111E+000	3.28255E-002	0.00000E+000	3.61445E-002	3.27457E-001	3.92994E-002	4.65195E+001	11	...........	6.56186E-002	-4.25903E-003	5.88280E-001	6.04045E-001	-2.85561E-002	-3.82446E-002	6.81172E-001	-4.26731E-002	2.15396E-003	-1.39805E-004	1.93106E-002	1.98281E-002	-9.37368E-004	-1.25540E-003	2.23598E-002	-1.40076E-003
	91	91	1.10102E+000	3.26179E-002	0.00000E+000	3.59130E-002	3.25395E-001	3.90602E-002	4.67656E+001	11	...........	6.52287E-002	-4.26556E-003	5.88081E-001	6.04183E-001	-2.86079E-002	-3.82474E-002	6.81118E-001	-4.26835E-002	2.12762E-003	-1.39133E-004	1.91819E-002	1.97072E-002	-9.33129E-004	-1.24755E-003	2.22166E-002	-1.39224E-003
	92	92	1.10104E+000	3.27641E-002	0.00000E+000	3.60745E-002	3.26848E-001	3.88732E-002	4.72237E+001	11	...........	6.49211E-002	-4.33944E-003	5.87898E-001	6.04321E-001	-2.86382E-002	-3.82444E-002	6.81075E-001	-4.27407E-002	2.12708E-003	-1.42178E-004	1.92620E-002	1.98000E-002	-9.38306E-004	-1.25305E-003	2.23148E-002	-1.40036E-003
	93	93	1.10111E+000	3.25707E-002	0.00000E+000	3.58640E-002	3.24927E-001	3.92924E-002	4.77647E+001	11	...........	6.56342E-002	-4.42583E-003	5.88026E-001	6.04551E-001	-2.86519E-002	-3.82464E-002	6.80933E-001	-4.27375E-002	2.13775E-003	-1.44153E-004	1.91524E-002	1.96907E-002	-9.33215E-004	-1.24571E-003	2.21785E-002	-1.39199E-003
	94	94	1.10103E+000	3.23491E-002	0.00000E+000	3.56173E-002	3.22723E-001	3.89891E-002	4.57002E+001	11	...........	6.50818E-002	-4.44403E-003	5.88171E-001	6.04541E-001	-2.86439E-002	-3.82160E-002	6.80927E-001	-4.27069E-002	2.10534E-003	-1.43760E-004	1.90268E-002	1.95564E-002	-9.26605E-004	-1.23625E-003	2.20274E-002	-1.38153E-003
	95	95	1.10103E+000	3.25611E-002	0.00000E+000	3.58509E-002	3.24832E-001	3.90527E-002	4.60677E+001	11	...........	6.52031E-002	-4.36722E-003	5.88176E-001	6.04243E-001	-2.86582E-002	-3.81914E-002	6.80920E-001	-4.26685E-002	2.12308E-003	-1.42202E-004	1.91517E-002	1.96748E-002	-9.33142E-004	-1.24355E-003	2.21715E-002	-1.38933E-003
	96	96	1.10111E+000	3.23843E-002	0.00000E+000	3.56586E-002	3.23071E-001	3.90337E-002	4.78803E+001	11	...........	6.51853E-002	-4.47861E-003	5.88167E-001	6.04321E-001	-2.86544E-002	-3.82222E-002	6.80919E-001	-4.26754E-002	2.11098E-003	-1.45036E-004	1.90474E-002	1.95705E-002	-9.27953E-004	-1.23780E-003	2.20511E-002	-1.38201E-003
	97	97	1.10103E+000	3.21440E-002	0.00000E+000	3.53914E-002	3.20686E-001	3.90209E-002	4.78933E+001	11	...........	6.51744E-002	-4.37278E-003	5.88204E-001	6.04491E-001	-2.86514E-002	-3.82149E-002	6.80896E-001	-4.26661E-002	2.09497E-003	-1.40558E-004	1.89072E-002	1.94307E-002	-9.20969E-004	-1.22838E-003	2.18867E-002	-1.37146E-003
	98	98	1.10103E+000	3.22981E-002	0.00000E+000	3.55613E-002	3.22211E-001	3.89492E-002	4.55958E+001	11	...........	6.50365E-002	-4.42639E-003	5.88117E-001	6.04508E-001	-2.86082E-002	-3.82232E-002	6.80956E-001	-4.26629E-002	2.10056E-003	-1.42964E-004	1.89951E-002	1.95245E-002	-9.23991E-004	-1.23454E-003	2.19936E-002	-1.37793E-003
	99	99	1.10111E+000	3.21274E-002	0.00000E+000	3.53757E-002	3.20520E-001	3.88350E-002	4.54770E+001	11	...........	6.48496E-002	-4.39208E-003	5.88101E-001	6.04354E-001	-2.85235E-002	-3.82367E-002	6.81026E-001	-4.26519E-002	2.08345E-003	-1.41106E-004	1.88941E-002	1.94163E-002	-9.16384E-004	-1.22844E-003	2.18796E-002	-1.37029E-003
	100	100	1.10103E+000	3.19314E-002	0.00000E+000	3.51574E-002	3.18572E-001	3.90326E-002	4.64909E+001	11	...........	6.51450E-002	-4.37944E-003	5.88212E-001	6.04670E-001	-2.84021E-002	-3.82479E-002	6.81103E-001	-4.26942E-002	2.08017E-003	-1.39842E-004	1.87824E-002	1.93079E-002	-9.06917E-004	-1.22131E-003	2.17486E-002	-1.36328E-003
	101	101	1.10103E+000	3.20879E-002	0.00000E+000	3.53299E-002	3.20130E-001	3.90192E-002	4.73291E+001	11	...........	6.51543E-002	-4.38125E-003	5.88255E-001	6.05127E-001	-2.83232E-002	-3.82461E-002	6.81070E-001	-4.26792E-002	2.09067E-003	-1.40585E-004	1.88759E-002	1.94173E-002	-9.08833E-004	-1.22724E-003	2.18541E-002	-1.36949E-003
	102	102	1.10110E+000	3.19487E-002	0.00000E+000	3.51788E-002	3.18743E-001	3.89942E-002	4.68898E+001	11	...........	6.50933E-002	-4.17792E-003	5.88231E-001	6.05147E-001	-2.84153E-002	-3.82799E-002	6.80968E-001	-4.26703E-002	2.07965E-003	-1.33479E-004	1.87932E-002	1.93336E-002	-9.07830E-004	-1.22299E-003	2.17560E-002	-1.36326E-003
	103	103	1.10103E+000	3.16787E-002	0.00000E+000	3.48794E-002	3.16061E-001	3.88461E-002	4.42548E+001	11	...........	6.48574E-002	-4.20403E-003	5.88172E-001	6.05213E-001	-2.85847E-002	-3.82887E-002	6.81088E-001	-4.26754E-002	2.05460E-003	-1.33178E-004	1.86325E-002	1.91724E-002	-9.05528E-004	-1.21294E-003	2.15760E-002	-1.35190E-003
	104	104	1.10103E+000	3.18903E-002	0.00000E+000	3.51123E-002	3.18160E-001	3.90264E-002	4.71282E+001	11	...........	6.51758E-002	-4.18403E-003	5.88241E-001	6.05285E-001	-2.87044E-002	-3.82996E-002	6.81081E-001	-4.26733E-002	2.07848E-003	-1.33430E-004	1.87592E-002	1.93027E-002	-9.15394E-004	-1.22139E-003	2.17199E-002	-1.36087E-003
	105	105	1.10111E+000	3.17553E-002	0.00000E+000	3.49659E-002	3.16822E-001	3.89617E-002	4.58598E+001	11	...........	6.50703E-002	-4.29958E-003	5.88430E-001	6.05288E-001	-2.87794E-002	-3.82665E-002	6.81184E-001	-4.26754E-002	2.06632E-003	-1.36534E-004	1.86857E-002	1.92211E-002	-9.13899E-004	-1.21516E-003	2.16312E-002	-1.35517E-003
	106	106	1.10104E+000	3.14828E-002	0.00000E+000	3.46637E-002	3.14111E-001	3.88695E-002	4.69991E+001	11	...........	6.49064E-002	-4.32194E-003	5.88355E-001	6.05275E-001	-2.87546E-002	-3.82307E-002	6.81164E-001	-4.26657E-002	2.04343E-003	-1.36067E-004	1.85230E-002	1.90557E-002	-9.05274E-004	-1.20361E-003	2.14449E-002	-1.34323E-003
	107	107	1.10103E+000	3.16625E-002	0.00000E+000	3.48614E-002	3.15892E-001	3.90311E-002	4.62910E+001	11	...........	6.51801E-002	-4.40500E-003	5.88250E-001	6.05201E-001	-2.86700E-002	-3.82378E-002	6.81135E-001	-4.26628E-002	2.06376E-003	-1.39473E-004	1.86254E-002	1.91622E-002	-9.07763E-004	-1.21070E-003	2.15664E-002	-1.35081E-003
	108	108	1.10110E+000	3.15203E-002	0.00000E+000	3.47071E-002	3.14480E-001	3.88550E-002	4.53151E+001	11	...........	6.48587E-002	-4.29083E-003	5.88126E-001	6.04972E-001	-2.85594E-002	-3.82619E-002	6.81134E-001	-4.26682E-002	2.04437E-003	-1.35248E-004	1.85379E-002	1.90689E-002	-9.00203E-004	-1.20603E-003	2.14696E-002	-1.34492E-003
	109	109	1.10104E+000	3.12510E-002	0.00000E+000	3.44085E-002	3.11805E-001	3.86696E-002	4.61469E+001	11	...........	6.45674E-002	-4.22319E-003	5.88121E-001	6.05200E-001	-2.84214E-002	-3.82904E-002	6.81007E-001	-4.26618E-002	2.01779E-003	-1.31979E-004	1.83793E-002	1.89131E-002	-8.88196E-004	-1.19661E-003	2.12821E-002	-1.33322E-003
	110	110	1.10103E+000	3.14706E-002	0.00000E+000	3.46502E-002	3.13986E-001	3.91395E-002	4.73711E+001	11	...........	6.53482E-002	-4.36125E-003	5.88273E-001	6.05169E-001	-2.83450E-002	-3.83290E-002	6.81072E-001	-4.26558E-002	2.05655E-003	-1.37251E-004	1.85133E-002	1.90450E-002	-8.92035E-004	-1.20624E-003	2.14337E-002	-1.34241E-003
	111	111	1.10110E+000	3.13184E-002	0.00000E+000	3.44847E-002	3.12470E-001	3.86409E-002	4.62279E+001	11	...........	6.45212E-002	-4.35306E-003	5.88266E-001	6.04898E-001	-2.82886E-002	-3.83251E-002	6.81085E-001	-4.26675E-002	2.02070E-003	-1.36331E-004	1.84235E-002	1.89444E-002	-8.85954E-004	-1.20028E-003	2.13305E-002	-1.33628E-003
	112	112	1.10104E+000	3.10640E-002	0.00000E+000	3.42028E-002	3.09944E-001	3.90648E-002	4.63057E+001	11	...........	6.52342E-002	-4.18292E-003	5.88422E-001	6.04725E-001	-2.83043E-002	-3.83015E-002	6.81155E-001	-4.26708E-002	2.02644E-003	-1.29938E-004	1.82788E-002	1.87852E-002	-8.79246E-004	-1.18980E-003	2.11594E-002	-1.32553E-003
	113	113	1.10103E+000	3.12172E-002	0.00000E+000	3.43711E-002	3.11466E-001	3.86995E-002	4.47412E+001	11	...........	6.46206E-002	-4.17694E-003	5.88474E-001	6.04970E-001	-2.82997E-002	-3.83025E-002	6.81216E-001	-4.26626E-002	2.01727E-003	-1.30393E-004	1.83705E-002	1.88855E-002	-8.83438E-004	-1.19570E-003	2.12656E-002	-1.33181E-003
	114	114	1.10110E+000	3.11465E-002	0.00000E+000	3.42954E-002	3.10764E-001	3.88088E-002	4.69327E+001	11	...........	6.48007E-002	-4.19806E-003	5.88137E-001	6.05237E-001	-2.83099E-002	-3.82906E-002	6.81100E-001	-4.26700E-002	2.01832E-003	-1.30755E-004	1.83184E-002	1.88510E-002	-8.81754E-004	-1.19262E-003	2.12139E-002	-1.32902E-003
	115	115	1.10105E+000	3.08623E-002	0.00000E+000	3.39808E-002	3.07942E-001	3.89463E-002	4.66950E+001	11	...........	6.50392E-002	-4.33972E-003	5.88114E-001	6.05324E-001	-2.83007E-002	-3.82650E-002	6.81178E-001	-4.26668E-002	2.00726E-003	-1.33934E-004	1.81505E-002	1.86817E-002	-8.73424E-004	-1.18095E-003	2.10227E-002	-1.31680E-003
	116	116	1.10103E+000	3.09874E-002	0.00000E+000	3.41180E-002	3.09183E-001	3.86948E-002	4.47623E+001	11	...........	6.46060E-002	-4.22319E-003	5.88085E-001	6.05328E-001	-2.83293E-002	-3.82657E-002	6.81237E-001	-4.26685E-002	2.00197E-003	-1.30866E-004	1.82232E-002	1.87575E-002	-8.77851E-004	-1.18575E-003	2.11098E-002	-1.32218E-003
	117	117	1.10109E+000	3.09602E-002	0.00000E+000	3.40901E-002	3.08919E-001	3.88144E-002	4.68581E+001	11	...........	6.48283E-002	-4.23514E-003	5.87955E-001	6.05335E-001	-2.82658E-002	-3.82565E-002	6.81197E-001	-4.26656E-002	2.00709E-003	-1.31121E-004	1.82032E-002	1.87413E-002	-8.75114E-004	-1.18443E-003	2.10900E-002	-1.32093E-003
	118	118	1.10105E+000	3.06515E-002	0.00000E+000	3.37488E-002	3.05847E-001	3.86597E-002	4.67817E+001	11	...........	6.45546E-002	-4.31972E-003	5.88113E-001	6.05318E-001	-2.82440E-002	-3.82619E-002	6.81195E-001	-4.26629E-002	1.97870E-003	-1.32406E-004	1.80266E-002	1.85539E-002	-8.65723E-004	-1.17279E-003	2.08797E-002	-1.30768E-003
	119	119	1.10103E+000	3.07929E-002	0.00000E+000	3.39038E-002	3.07249E-001	3.88565E-002	4.66812E+001	11	...........	6.48842E-002	-4.31986E-003	5.88383E-001	6.05315E-001	-2.82249E-002	-3.82854E-002	6.81118E-001	-4.26622E-002	1.99797E-003	-1.33021E-004	1.81180E-002	1.86394E-002	-8.69125E-004	-1.17892E-003	2.09736E-002	-1.31369E-003
	120	120	1.10109E+000	3.07363E-002	0.00000E+000	3.38435E-002	3.06689E-001	3.86928E-002	4.65844E+001	11	...........	6.45960E-002	-4.31361E-003	5.88408E-001	6.05283E-001	-2.82342E-002	-3.82942E-002	6.81086E-001	-4.26596E-002	1.98544E-003	-1.32584E-004	1.80855E-002	1.86041E-002	-8.67814E-004	-1.17702E-003	2.09341E-002	-1.31120E-003
	121	121	1.10105E+000	3.04386E-002	0.00000E+000	3.35145E-002	3.03728E-001	3.88435E-002	4.77855E+001	11	...........	6.48457E-002	-4.34306E-003	5.88145E-001	6.05119E-001	-2.82207E-002	-3.82860E-002	6.81054E-001	-4.26636E-002	1.97381E-003	-1.32197E-004	1.79023E-002	1.84190E-002	-8.58999E-004	-1.16537E-003	2.07303E-002	-1.29862E-003
	122	122	1.10103E+000	3.06157E-002	0.00000E+000	3.37087E-002	3.05488E-001	3.87718E-002	4.62165E+001	11	...........	6.47458E-002	-4.35708E-003	5.88087E-001	6.05265E-001	-2.82687E-002	-3.82522E-002	6.81075E-001	-4.26672E-002	1.98224E-003	-1.33395E-004	1.80047E-002	1.85306E-002	-8.65467E-004	-1.17112E-003	2.08516E-002	-1.30629E-003
	123	123	1.10109E+000	3.05136E-002	0.00000E+000	3.35982E-002	3.04472E-001	3.83866E-002	4.58747E+001	11	...........	6.41215E-002	-4.26000E-003	5.88090E-001	6.05149E-001	-2.83551E-002	-3.82181E-002	6.81139E-001	-4.26678E-002	1.95658E-003	-1.29988E-004	1.79447E-002	1.84653E-002	-8.65217E-004	-1.16617E-003	2.07840E-002	-1.30195E-003
	124	124	1.10106E+000	3.02404E-002	0.00000E+000	3.32964E-002	3.01757E-001	3.88727E-002	4.68766E+001	11	...........	6.49230E-002	-4.31639E-003	5.88019E-001	6.05085E-001	-2.84471E-002	-3.82232E-002	6.81046E-001	-4.26281E-002	1.96330E-003	-1.30529E-004	1.77819E-002	1.82980E-002	-8.60252E-004	-1.15589E-003	2.05951E-002	-1.28909E-003
	125	125	1.10102E+000	3.04097E-002	0.00000E+000	3.34818E-002	3.03436E-001	3.86622E-002	4.80974E+001	11	...........	6.45576E-002	-4.29986E-003	5.88057E-001	6.05195E-001	-2.85406E-002	-3.82065E-002	6.81037E-001	-4.26487E-002	1.96318E-003	-1.30758E-004	1.78827E-002	1.84038E-002	-8.67910E-004	-1.16185E-003	2.07101E-002	-1.29694E-003
	126	126	1.10109E+000	3.03639E-002	0.00000E+000	3.34334E-002	3.02984E-001	3.86812E-002	4.63423E+001	11	...........	6.45751E-002	-4.35583E-003	5.87990E-001	6.05241E-001	-2.85960E-002	-3.82197E-002	6.81087E-001	-4.26736E-002	1.96075E-003	-1.32260E-004	1.78537E-002	1.83775E-002	-8.68285E-004	-1.16050E-003	2.06805E-002	-1.29574E-003
	127	127	1.10106E+000	3.00052E-002	0.00000E+000	3.30374E-002	2.99420E-001	3.83725E-002	4.53541E+001	11	...........	6.40612E-002	-4.25375E-003	5.87936E-001	6.05312E-001	-2.86140E-002	-3.82168E-002	6.81016E-001	-4.26742E-002	1.92217E-003	-1.27635E-004	1.76411E-002	1.81625E-002	-8.58569E-004	-1.14670E-003	2.04340E-002	-1.28045E-003
	128	128	1.10102E+000	3.01889E-002	0.00000E+000	3.32387E-002	3.01247E-001	3.86864E-002	4.66970E+001	11	...........	6.46071E-002	-4.20611E-003	5.88026E-001	6.05321E-001	-2.86007E-002	-3.82107E-002	6.81124E-001	-4.26725E-002	1.95042E-003	-1.26978E-004	1.77519E-002	1.82740E-002	-8.63424E-004	-1.15354E-003	2.05624E-002	-1.28824E-003
	129	129	1.10109E+000	3.01371E-002	0.00000E+000	3.31836E-002	3.00738E-001	3.87252E-002	4.78177E+001	11	...........	6.46490E-002	-4.21458E-003	5.88036E-001	6.05313E-001	-2.85978E-002	-3.82443E-002	6.81076E-001	-4.26700E-002	1.94833E-003	-1.27015E-004	1.77217E-002	1.82424E-002	-8.61853E-004	-1.15257E-003	2.05256E-002	-1.28595E-003
	130	130	1.10106E+000	2.97944E-002	0.00000E+000	3.28053E-002	2.97329E-001	3.84676E-002	4.63808E+001	11	...........	6.42503E-002	-4.35806E-003	5.87994E-001	6.05311E-001	-2.85915E-002	-3.82649E-002	6.81184E-001	-4.26547E-002	1.91430E-003	-1.29846E-004	1.75189E-002	1.80349E-002	-8.51867E-004	-1.14008E-003	2.02955E-002	-1.27087E-003
	131	131	1.10103E+000	2.99642E-002	0.00000E+000	3.29914E-002	2.99016E-001	3.87487E-002	4.51858E+001	11	...........	6.46999E-002	-4.44278E-003	5.87993E-001	6.05316E-001	-2.85440E-002	-3.82632E-002	6.81172E-001	-4.26565E-002	1.93868E-003	-1.33124E-004	1.76187E-002	1.81378E-002	-8.55300E-004	-1.14653E-003	2.04108E-002	-1.27817E-003
	132	132	1.10108E+000	2.99401E-002	0.00000E+000	3.29665E-002	2.98775E-001	3.84375E-002	4.69634E+001	11	...........	6.41789E-002	-4.39903E-003	5.87827E-001	6.05318E-001	-2.84368E-002	-3.82579E-002	6.81052E-001	-4.26707E-002	1.92152E-003	-1.31707E-004	1.75996E-002	1.81233E-002	-8.51400E-004	-1.14545E-003	2.03908E-002	-1.27756E-003
	133	133	1.10106E+000	2.96401E-002	0.00000E+000	3.26356E-002	2.95798E-001	3.85695E-002	4.79049E+001	11	...........	6.43786E-002	-4.41486E-003	5.87887E-001	6.05308E-001	-2.82842E-002	-3.82833E-002	6.80980E-001	-4.26535E-002	1.90819E-003	-1.30857E-004	1.74250E-002	1.79414E-002	-8.38345E-004	-1.13472E-003	2.01843E-002	-1.26425E-003
	134	134	1.10102E+000	2.97937E-002	0.00000E+000	3.28035E-002	2.97324E-001	3.85679E-002	4.77816E+001	11	...........	6.43979E-002	-4.28611E-003	5.87736E-001	6.05311E-001	-2.81936E-002	-3.82719E-002	6.81051E-001	-4.26650E-002	1.91865E-003	-1.27699E-004	1.75108E-002	1.80344E-002	-8.39991E-004	-1.14026E-003	2.02910E-002	-1.27115E-003
	135	135	1.10108E+000	2.97163E-002	0.00000E+000	3.27202E-002	2.96557E-001	3.82618E-002	4.37605E+001	11	...........	6.38726E-002	-4.28222E-003	5.87671E-001	6.05300E-001	-2.82444E-002	-3.82379E-002	6.81045E-001	-4.26628E-002	1.89806E-003	-1.27252E-004	1.74634E-002	1.79873E-002	-8.39321E-004	-1.13629E-003	2.02382E-002	-1.26778E-003
	136	136	1.10106E+000	2.94230E-002	0.00000E+000	3.23966E-002	2.93635E-001	3.86184E-002	4.64256E+001	11	...........	6.44849E-002	-4.26875E-003	5.87669E-001	6.05269E-001	-2.84111E-002	-3.82331E-002	6.80979E-001	-4.26674E-002	1.89734E-003	-1.25599E-004	1.72910E-002	1.78088E-002	-8.35940E-004	-1.12493E-003	2.00364E-002	-1.25540E-003
	137	137	1.10102E+000	2.96266E-002	0.00000E+000	3.26195E-002	2.95658E-001	3.86427E-002	4.75189E+001	11	...........	6.45253E-002	-4.37917E-003	5.87773E-001	6.05311E-001	-2.85606E-002	-3.82239E-002	6.80973E-001	-4.26664E-002	1.91166E-003	-1.29740E-004	1.74137E-002	1.79333E-002	-8.46151E-004	-1.13244E-003	2.01749E-002	-1.26406E-003
	138	138	1.10108E+000	2.95438E-002	0.00000E+000	3.25302E-002	2.94835E-001	3.82493E-002	4.69287E+001	11	...........	6.38872E-002	-4.46625E-003	5.87820E-001	6.05291E-001	-2.86010E-002	-3.82257E-002	6.81014E-001	-4.26715E-002	1.88747E-003	-1.31950E-004	1.73664E-002	1.78826E-002	-8.44982E-004	-1.12933E-003	2.01198E-002	-1.26068E-003
	139	139	1.10107E+000	2.92116E-002	0.00000E+000	3.21639E-002	2.91532E-001	3.85725E-002	4.53498E+001	11	...........	6.44040E-002	-4.41500E-003	5.87808E-001	6.05165E-001	-2.85721E-002	-3.82526E-002	6.81165E-001	-4.26661E-002	1.88135E-003	-1.28969E-004	1.71708E-002	1.76778E-002	-8.34637E-004	-1.11742E-003	1.98979E-002	-1.24635E-003
	140	140	1.10102E+000	2.93614E-002	0.00000E+000	3.23275E-002	2.93024E-001	3.83467E-002	4.65594E+001	11	...........	6.40283E-002	-4.38611E-003	5.87638E-001	6.04771E-001	-2.85065E-002	-3.82681E-002	6.81124E-001	-4.26676E-002	1.87996E-003	-1.28782E-004	1.72539E-002	1.77569E-002	-8.36991E-004	-1.12360E-003	1.99988E-002	-1.25278E-003
	141	141	1.10108E+000	2.93872E-002	0.00000E+000	3.23576E-002	2.93280E-001	3.86020E-002	4.73241E+001	11	...........	6.44365E-002	-4.46958E-003	5.87662E-001	6.05084E-001	-2.82611E-002	-3.82440E-002	6.80966E-001	-4.26701E-002	1.89361E-003	-1.31349E-004	1.72697E-002	1.77817E-002	-8.30515E-004	-1.12388E-003	2.00117E-002	-1.25396E-003
	142	142	1.10107E+000	2.90460E-002	0.00000E+000	3.19817E-002	2.89889E-001	3.83105E-002	4.72099E+001	11	...........	6.39614E-002	-4.32542E-003	5.87518E-001	6.05278E-001	-2.81912E-002	-3.82171E-002	6.80871E-001	-4.26692E-002	1.85782E-003	-1.25636E-004	1.70650E-002	1.75809E-002	-8.18842E-004	-1.11005E-003	1.97766E-002	-1.23937E-003
	143	143	1.10102E+000	2.91818E-002	0.00000E+000	3.21299E-002	2.91240E-001	3.85415E-002	4.68936E+001	11	...........	6.43633E-002	-4.32306E-003	5.87447E-001	6.05079E-001	-2.83940E-002	-3.82071E-002	6.80901E-001	-4.26668E-002	1.87824E-003	-1.26155E-004	1.71428E-002	1.76573E-002	-8.28590E-004	-1.11495E-003	1.98699E-002	-1.24510E-003
	144	144	1.10107E+000	2.91934E-002	0.00000E+000	3.21442E-002	2.91351E-001	3.84672E-002	4.65558E+001	11	...........	6.42269E-002	-4.42333E-003	5.87351E-001	6.05167E-001	-2.85749E-002	-3.82197E-002	6.81022E-001	-4.26733E-002	1.87501E-003	-1.29132E-004	1.71468E-002	1.76669E-002	-8.34199E-004	-1.11577E-003	1.98814E-002	-1.24578E-003
	145	145	1.10108E+000	2.88556E-002	0.00000E+000	3.17722E-002	2.87996E-001	3.81784E-002	4.60114E+001	11	...........	6.37717E-002	-4.35875E-003	5.87310E-001	6.05293E-001	-2.86211E-002	-3.82624E-002	6.81120E-001	-4.26778E-002	1.84017E-003	-1.25774E-004	1.69472E-002	1.74661E-002	-8.25880E-004	-1.10408E-003	1.96542E-002	-1.23149E-003
	146	146	1.10102E+000	2.89905E-002	0.00000E+000	3.19191E-002	2.89340E-001	3.84215E-002	4.81461E+001	11	...........	6.41761E-002	-4.38167E-003	5.87392E-001	6.05294E-001	-2.85876E-002	-3.82824E-002	6.81103E-001	-4.26667E-002	1.86050E-003	-1.27027E-004	1.70288E-002	1.75478E-002	-8.28770E-004	-1.10983E-003	1.97455E-002	-1.23693E-003
	147	147	1.10108E+000	2.89885E-002	0.00000E+000	3.19185E-002	2.89316E-001	3.84390E-002	4.65766E+001	11	...........	6.41936E-002	-4.28125E-003	5.87461E-001	6.05304E-001	-2.83860E-002	-3.82612E-002	6.81106E-001	-4.26703E-002	1.86087E-003	-1.24107E-004	1.70296E-002	1.75468E-002	-8.22866E-004	-1.10914E-003	1.97442E-002	-1.23695E-003
	148	148	1.10108E+000	2.86460E-002	0.00000E+000	3.15415E-002	2.85911E-001	3.81777E-002	4.68564E+001	11	...........	6.37504E-002	-4.17472E-003	5.87384E-001	6.05290E-001	-2.82207E-002	-3.82035E-002	6.80929E-001	-4.26851E-002	1.82620E-003	-1.19589E-004	1.68262E-002	1.73392E-002	-8.08411E-004	-1.09438E-003	1.95059E-002	-1.22276E-003
	149	149	1.10102E+000	2.87908E-002	0.00000E+000	3.16992E-002	2.87345E-001	3.81399E-002	4.59373E+001	11	...........	6.36779E-002	-4.25556E-003	5.87489E-001	6.05325E-001	-2.83743E-002	-3.81710E-002	6.80929E-001	-4.26774E-002	1.83334E-003	-1.22521E-004	1.69143E-002	1.74278E-002	-8.16919E-004	-1.09897E-003	1.96045E-002	-1.22872E-003
	150	150	1.10107E+000	2.88424E-002	0.00000E+000	3.17576E-002	2.87863E-001	3.85330E-002	4.65014E+001	11	...........	6.43357E-002	-4.45069E-003	5.87551E-001	6.05366E-001	-2.85779E-002	-3.81764E-002	6.80981E-001	-4.26788E-002	1.85560E-003	-1.28369E-004	1.69464E-002	1.74602E-002	-8.24256E-004	-1.10110E-003	1.96412E-002	-1.23096E-003
	151	151	1.10108E+000	2.84870E-002	0.00000E+000	3.13664E-002	2.84333E-001	3.81927E-002	4.75163E+001	11	...........	6.37768E-002	-4.44125E-003	5.87596E-001	6.05378E-001	-2.86339E-002	-3.81776E-002	6.80983E-001	-4.26740E-002	1.81681E-003	-1.26518E-004	1.67388E-002	1.72454E-002	-8.15692E-004	-1.08756E-003	1.93991E-002	-1.21565E-003
	152	152	1.10102E+000	2.86019E-002	0.00000E+000	3.14913E-002	2.85478E-001	3.81814E-002	4.63577E+001	11	...........	6.37669E-002	-4.45194E-003	5.87709E-001	6.05383E-001	-2.86522E-002	-3.82119E-002	6.80917E-001	-4.26724E-002	1.82386E-003	-1.27334E-004	1.68096E-002	1.73151E-002	-8.19509E-004	-1.09294E-003	1.94755E-002	-1.22051E-003
	153	153	1.10107E+000	2.86006E-002	0.00000E+000	3.14912E-002	2.85467E-001	3.84102E-002	4.55856E+001	11	...........	6.41292E-002	-4.47764E-003	5.87547E-001	6.05399E-001	-2.86254E-002	-3.82325E-002	6.80934E-001	-4.26737E-002	1.83413E-003	-1.28063E-004	1.68042E-002	1.73147E-002	-8.18703E-004	-1.09347E-003	1.94751E-002	-1.22049E-003
	154	154	1.10108E+000	2.82873E-002	0.00000E+000	3.11467E-002	2.82351E-001	3.81113E-002	4.74122E+001	11	...........	6.36487E-002	-4.50417E-003	5.87549E-001	6.05436E-001	-2.85433E-002	-3.82350E-002	6.80956E-001	-4.26635E-002	1.80045E-003	-1.27411E-004	1.66202E-002	1.71262E-002	-8.07415E-004	-1.08157E-003	1.92624E-002	-1.20684E-003
	155	154.727	1.10107E+000	2.85107E-002	0.00000E+000	3.13923E-002	2.84577E-001	3.83636E-002	4.62134E+001	11	...........	6.40614E-002	-4.50688E-003	5.87615E-001	6.05362E-001	-2.84601E-002	-3.82196E-002	6.80982E-001	-4.26265E-002	1.82643E-003	-1.28494E-004	1.67533E-002	1.72593E-002	-8.11415E-004	-1.08967E-003	1.94152E-002	-1.21531E-003
STARTTIMEOFFSET	QUANT	731463.9	Start Time Offset (s)
