EXPLAIN
TAG	PWR800_CHARGE
TITLE	LABEL	PWR Charge	Test Identifier
DATE	LABEL	10/15/2022	Date
TIME	LABEL	12:50:32	Time
NOTES	NOTES	1	Notes...
	
PSTAT	PSTAT	REF3000-21114	Potentiostat
CAPACITY	QUANT	5.30000E-002	Capacity (A-hr)
CELLTYPE	SELECTOR	1	Cell Type
WORKINGCONNECTION	SELECTOR	0	Working Connection
MAXCHARGETIME	VARIABLEANDUNITS	7.20000E+003	s	2.00000E+000	hour(s)	Max Charge Time
CHARGEMODE	MULTIPARAM	0	1.00000E-001	Charge Mode	Constant Current	Amp(s)
CHARGECURRENT	QUANT	0.1	Charge Current (A)
VOLTAGEFINISH	TWOPARAM	T	2.50000E-002	7.20000E+003	Voltage Finish	I (A) <	Max Time(s)
SAMPLETIME	QUANT	1.00000E+000	Sample Period (s)
CHARGESTOPAT1	MULTIPARAM	2	1.10000E+000	Stop At 1	|Voltage| > Limit	V
CHARGESTOPAT2	MULTIPARAM	0	0.00000E+000	Stop At 2	None	N/A
AESELECTOR	AESELECTOR	0x1	T	Set Limits	AE Channels
AESBHCSELECTOR	TOGGLE	F	Save Both Half Cells
IRCOMP	TOGGLE	F	IR Measure
EOC	QUANT	0.2781992	Open Circuit (V)
SEQUENCER	TOGGLE	TRUE	Run as Sequence
PSTATMODEL	IQUANT	5	Pstat Model
PSTATSECTION	LABEL	REF3000-21114	Pstat Section
PSTATSERIALNO	LABEL	21114	Pstat Serial Number
CTRLMODE	IQUANT	0	Control Mode
ELECTROMETER	IQUANT	0	RE=0 or CS=1
IESTAB	IQUANT	0	I/E Stability
CASPEED	IQUANT	4	Control Amp Speed
CONVENTION	IQUANT	1	Current Convention
ICHRANGE	IQUANT	2	Ich Range
ICHRANGEMODE	TOGGLE	T	Ich Auto Range
ICHOFFSETENABLE	TOGGLE	F	Ich Offset Enable
ICHOFFSET	QUANT	0	Ich Offset (V)
ICHFILTER	IQUANT	1	Ich Filter
VCHRANGE	IQUANT	3	Vch Range
VCHRANGEMODE	TOGGLE	T	Vch Auto Range
VCHOFFSETENABLE	TOGGLE	F	Vch Offset Enable
VCHOFFSET	QUANT	0	Vch Offset (V)
VCHFILTER	IQUANT	1	Vch Filter
ACHRANGE	IQUANT	2	Ach Range
ACHOFFSETENABLE	TOGGLE	F	Ach Offset Enable
ACHOFFSET	QUANT	0	Ach Offset (V)
ACHFILTER	IQUANT	1	Ach Filter
IERANGELOWERLIMIT	IQUANT	9	I/E Range Lower Limit
IERANGEMODE	TOGGLE	F	I/E AutoRange
IERANGE	IQUANT	9	I/E Range
POSFEEDENABLE	TOGGLE	F	Positive Feedback IR Comp
POSFEEDRESISTANCE	QUANT	0	Positive Feedback Resistance (ohm)
ACHSELECT	IQUANT	1	Ach Select
SENSECABLEID	IQUANT	13	Sense Cable ID
PWRCABLEID	IQUANT	13	Power Cable ID
DCCALDATE	LABEL		DC Calibration Date
ACCALDATE	LABEL		AC Calibration Date
THERMOSELECT	IQUANT	1	Thermo Select
FRAMEWORKVERSION	LABEL	7.8.6	Framework Version
INSTRUMENTVERSION	LABEL	4.50	Instrument Version
COMPLIANCEVOLTAGE	IQUANT	0	Compliance Voltage
CURVE	TABLE	128
	Pt	T	Vf	Im	Vu	Pwr	Sig	Ach	Temp	IERange	Over	Vf1	Vf2	Vf3	Vf4	Vf5	Vf6	Vf7	Vf8	Pwr1	Pwr2	Pwr3	Pwr4	Pwr5	Pwr6	Pwr7	Pwr8
	#	s	V	A	V	W	V	V	deg C	#	bits	V	V	V	V	V	V	V	V	W	W	W	W	W	W	W	W
	0	1	5.63455E-001	9.98655E-002	0.00000E+000	5.62697E-002	9.94000E-001	3.93992E-002	3.86145E+001	11	...........	6.54503E-002	-3.71139E-003	5.72086E-001	6.78377E-001	-3.03211E-002	-3.85944E-002	6.54360E-001	-4.22117E-002	6.53622E-003	-3.70640E-004	5.71317E-002	6.77465E-002	-3.02803E-003	-3.85425E-003	6.53480E-002	-4.21549E-003
	1	2	7.51764E-001	9.98660E-002	0.00000E+000	7.50756E-002	9.94000E-001	3.98939E-002	4.21719E+001	11	...........	6.62542E-002	-3.76458E-003	5.72056E-001	6.78424E-001	-3.03233E-002	-3.86039E-002	6.54400E-001	-4.23022E-002	6.61654E-003	-3.75954E-004	5.71289E-002	6.77514E-002	-3.02827E-003	-3.85521E-003	6.53523E-002	-4.22455E-003
	2	2.375	1.01060E+000	9.98664E-002	0.00000E+000	1.00925E-001	9.94000E-001	4.04220E-002	4.86463E+001	11	...........	6.71437E-002	-3.85630E-003	5.72239E-001	6.78457E-001	-3.03633E-002	-3.86111E-002	6.54463E-001	-4.23452E-002	6.70540E-003	-3.85114E-004	5.71474E-002	6.77551E-002	-3.03228E-003	-3.85595E-003	6.53589E-002	-4.22886E-003
	3	3	1.10148E+000	7.02824E-002	0.00000E+000	7.74145E-002	6.99835E-001	4.05083E-002	4.89377E+001	11	...........	6.72889E-002	-3.91044E-003	5.72246E-001	6.78305E-001	-3.02920E-002	-3.86367E-002	6.54412E-001	-4.23647E-002	4.72923E-003	-2.74835E-004	4.02188E-002	4.76729E-002	-2.12899E-003	-2.71548E-003	4.59936E-002	-2.97749E-003
	4	4	1.10080E+000	5.21264E-002	0.00000E+000	5.73805E-002	5.19299E-001	3.96992E-002	4.81396E+001	11	...........	6.59385E-002	-3.91167E-003	5.72166E-001	6.78258E-001	-3.03239E-002	-3.86100E-002	6.54418E-001	-4.22706E-002	3.43713E-003	-2.03901E-004	2.98249E-002	3.53552E-002	-1.58067E-003	-2.01260E-003	3.41124E-002	-2.20341E-003
	5	5	1.10071E+000	4.61658E-002	0.00000E+000	5.08152E-002	4.60037E-001	4.02778E-002	4.70812E+001	11	...........	6.68965E-002	-3.82889E-003	5.72224E-001	6.78441E-001	-3.03276E-002	-3.86075E-002	6.54399E-001	-4.22353E-002	3.08833E-003	-1.76764E-004	2.64172E-002	3.13207E-002	-1.40010E-003	-1.78234E-003	3.02108E-002	-1.94982E-003
	6	6	1.10078E+000	4.31602E-002	0.00000E+000	4.75098E-002	4.30148E-001	3.98715E-002	4.76894E+001	11	...........	6.62322E-002	-3.73944E-003	5.72181E-001	6.78509E-001	-3.03533E-002	-3.86096E-002	6.54296E-001	-4.23612E-002	2.85860E-003	-1.61395E-004	2.46955E-002	2.92846E-002	-1.31006E-003	-1.66640E-003	2.82396E-002	-1.82832E-003
	7	7	1.10070E+000	4.11176E-002	0.00000E+000	4.52582E-002	4.09841E-001	3.98219E-002	4.61297E+001	11	...........	6.61674E-002	-3.79514E-003	5.72078E-001	6.78482E-001	-3.03368E-002	-3.85985E-002	6.54306E-001	-4.23033E-002	2.72064E-003	-1.56047E-004	2.35225E-002	2.78976E-002	-1.24738E-003	-1.58708E-003	2.69035E-002	-1.73941E-003
	8	8	1.10067E+000	4.02543E-002	0.00000E+000	4.43068E-002	4.01258E-001	4.00580E-002	4.63657E+001	11	...........	6.65500E-002	-3.68861E-003	5.72039E-001	6.78512E-001	-3.03549E-002	-3.85886E-002	6.54438E-001	-4.21556E-002	2.67892E-003	-1.48482E-004	2.30270E-002	2.73130E-002	-1.22191E-003	-1.55336E-003	2.63439E-002	-1.69694E-003
	9	9	1.10075E+000	3.94094E-002	0.00000E+000	4.33801E-002	3.92861E-001	3.99062E-002	4.75642E+001	11	...........	6.62822E-002	-3.69444E-003	5.72071E-001	6.78558E-001	-3.03683E-002	-3.85892E-002	6.54404E-001	-4.23481E-002	2.61214E-003	-1.45596E-004	2.25450E-002	2.67416E-002	-1.19680E-003	-1.52078E-003	2.57897E-002	-1.66891E-003
	10	10	1.10070E+000	3.85523E-002	0.00000E+000	4.24344E-002	3.84339E-001	3.98094E-002	4.66387E+001	11	...........	6.61154E-002	-3.60750E-003	5.72215E-001	6.78683E-001	-3.03579E-002	-3.85860E-002	6.54352E-001	-4.23346E-002	2.54890E-003	-1.39077E-004	2.20602E-002	2.61648E-002	-1.17037E-003	-1.48758E-003	2.52268E-002	-1.63210E-003
	11	11	1.10067E+000	3.83566E-002	0.00000E+000	4.22180E-002	3.82400E-001	4.00153E-002	4.48934E+001	11	...........	6.64514E-002	-3.57236E-003	5.72329E-001	6.78699E-001	-3.03700E-002	-3.85794E-002	6.54271E-001	-4.22672E-002	2.54885E-003	-1.37024E-004	2.19526E-002	2.60326E-002	-1.16489E-003	-1.47978E-003	2.50956E-002	-1.62123E-003
	12	12	1.10074E+000	3.79973E-002	0.00000E+000	4.18253E-002	3.78828E-001	3.96613E-002	4.57902E+001	11	...........	6.58622E-002	-3.49069E-003	5.72229E-001	6.78688E-001	-3.03626E-002	-3.85424E-002	6.54339E-001	-4.22331E-002	2.50259E-003	-1.32637E-004	2.17432E-002	2.57883E-002	-1.15370E-003	-1.46451E-003	2.48631E-002	-1.60474E-003
	13	13	1.10070E+000	3.74648E-002	0.00000E+000	4.12374E-002	3.73529E-001	4.00217E-002	4.67996E+001	11	...........	6.64583E-002	-3.64347E-003	5.72257E-001	6.78666E-001	-3.03729E-002	-3.85056E-002	6.54271E-001	-4.22840E-002	2.48985E-003	-1.36502E-004	2.14395E-002	2.54261E-002	-1.13792E-003	-1.44260E-003	2.45122E-002	-1.58416E-003
	14	14	1.10067E+000	3.74919E-002	0.00000E+000	4.12661E-002	3.73796E-001	3.99092E-002	4.69104E+001	11	...........	6.62565E-002	-3.51569E-003	5.72139E-001	6.78739E-001	-3.03974E-002	-3.85062E-002	6.54328E-001	-4.22542E-002	2.48408E-003	-1.31810E-004	2.14506E-002	2.54472E-002	-1.13966E-003	-1.44367E-003	2.45320E-002	-1.58419E-003
	15	15	1.10074E+000	3.72773E-002	0.00000E+000	4.10327E-002	3.71664E-001	3.98261E-002	4.57978E+001	11	...........	6.61417E-002	-3.58292E-003	5.72101E-001	6.78720E-001	-3.04104E-002	-3.85153E-002	6.54396E-001	-4.22032E-002	2.46559E-003	-1.33562E-004	2.13264E-002	2.53009E-002	-1.13362E-003	-1.43575E-003	2.43942E-002	-1.57322E-003
	16	16	1.10070E+000	3.68077E-002	0.00000E+000	4.05143E-002	3.66993E-001	3.97337E-002	4.59600E+001	11	...........	6.60042E-002	-3.61792E-003	5.72003E-001	6.78726E-001	-3.03842E-002	-3.85442E-002	6.54443E-001	-4.22094E-002	2.42946E-003	-1.33167E-004	2.10541E-002	2.49823E-002	-1.11837E-003	-1.41872E-003	2.40886E-002	-1.55363E-003
	17	17	1.10066E+000	3.69052E-002	0.00000E+000	4.06202E-002	3.67970E-001	3.97317E-002	4.66051E+001	11	...........	6.59756E-002	-3.63347E-003	5.71919E-001	6.78814E-001	-3.04022E-002	-3.85542E-002	6.54409E-001	-4.23733E-002	2.43484E-003	-1.34094E-004	2.11068E-002	2.50518E-002	-1.12200E-003	-1.42285E-003	2.41511E-002	-1.56380E-003
	18	18	1.10074E+000	3.67807E-002	0.00000E+000	4.04859E-002	3.66728E-001	3.97896E-002	4.60115E+001	11	...........	6.60754E-002	-3.65847E-003	5.71734E-001	6.78831E-001	-3.03917E-002	-3.85751E-002	6.54381E-001	-4.23540E-002	2.43030E-003	-1.34561E-004	2.10288E-002	2.49679E-002	-1.11783E-003	-1.41882E-003	2.40686E-002	-1.55781E-003
	19	19	1.10070E+000	3.63738E-002	0.00000E+000	4.00368E-002	3.62677E-001	3.97734E-002	4.59078E+001	11	...........	6.60607E-002	-3.63431E-003	5.71638E-001	6.78882E-001	-3.04046E-002	-3.85890E-002	6.54452E-001	-4.22586E-002	2.40288E-003	-1.32193E-004	2.07926E-002	2.46935E-002	-1.10593E-003	-1.40363E-003	2.38049E-002	-1.53710E-003
	20	20	1.10066E+000	3.64810E-002	0.00000E+000	4.01533E-002	3.63746E-001	3.94081E-002	4.53036E+001	11	...........	6.56703E-002	-3.54375E-003	5.71625E-001	6.78864E-001	-3.04450E-002	-3.85586E-002	6.54510E-001	-4.23212E-002	2.39572E-003	-1.29279E-004	2.08534E-002	2.47656E-002	-1.11066E-003	-1.40666E-003	2.38771E-002	-1.54392E-003
	21	21	1.10074E+000	3.63559E-002	0.00000E+000	4.00183E-002	3.62502E-001	3.94206E-002	4.59286E+001	11	...........	6.58101E-002	-3.45833E-003	5.71514E-001	6.78897E-001	-3.04592E-002	-3.85525E-002	6.54473E-001	-4.23061E-002	2.39259E-003	-1.25731E-004	2.07779E-002	2.46819E-002	-1.10737E-003	-1.40161E-003	2.37940E-002	-1.53808E-003
	22	22	1.10071E+000	3.59812E-002	0.00000E+000	3.96048E-002	3.58776E-001	3.94115E-002	4.42424E+001	11	...........	6.57786E-002	-3.55417E-003	5.71482E-001	6.78768E-001	-3.04531E-002	-3.85542E-002	6.54354E-001	-4.23315E-002	2.36679E-003	-1.27883E-004	2.05626E-002	2.44229E-002	-1.09574E-003	-1.38722E-003	2.35444E-002	-1.52314E-003
	23	23	1.10066E+000	3.60909E-002	0.00000E+000	3.97239E-002	3.59872E-001	3.95761E-002	4.56574E+001	11	...........	6.60757E-002	-3.51875E-003	5.71452E-001	6.78748E-001	-3.04339E-002	-3.85396E-002	6.54456E-001	-4.23028E-002	2.38473E-003	-1.26995E-004	2.06242E-002	2.44966E-002	-1.09839E-003	-1.39093E-003	2.36199E-002	-1.52674E-003
	24	24	1.10073E+000	3.60467E-002	0.00000E+000	3.96777E-002	3.59433E-001	3.93745E-002	4.46950E+001	11	...........	6.57264E-002	-3.47181E-003	5.71461E-001	6.78655E-001	-3.04436E-002	-3.85444E-002	6.54391E-001	-4.22242E-002	2.36922E-003	-1.25147E-004	2.05993E-002	2.44633E-002	-1.09739E-003	-1.38940E-003	2.35886E-002	-1.52204E-003
	25	25	1.10071E+000	3.56568E-002	0.00000E+000	3.92478E-002	3.55555E-001	3.95232E-002	4.58205E+001	11	...........	6.59814E-002	-3.53986E-003	5.71499E-001	6.78551E-001	-3.04568E-002	-3.85354E-002	6.54456E-001	-4.23899E-002	2.35269E-003	-1.26220E-004	2.03778E-002	2.41950E-002	-1.08599E-003	-1.37405E-003	2.33358E-002	-1.51149E-003
	26	26	1.10066E+000	3.57567E-002	0.00000E+000	3.93560E-002	3.56549E-001	3.93049E-002	4.66247E+001	11	...........	6.56236E-002	-3.70000E-003	5.71472E-001	6.78500E-001	-3.04576E-002	-3.85389E-002	6.54438E-001	-4.24218E-002	2.34648E-003	-1.32300E-004	2.04339E-002	2.42609E-002	-1.08906E-003	-1.37802E-003	2.34005E-002	-1.51686E-003
	27	27	1.10073E+000	3.57194E-002	0.00000E+000	3.93174E-002	3.56178E-001	3.93757E-002	4.55155E+001	11	...........	6.57335E-002	-3.60125E-003	5.71537E-001	6.78604E-001	-3.04458E-002	-3.85269E-002	6.54367E-001	-4.25128E-002	2.34796E-003	-1.28635E-004	2.04150E-002	2.42394E-002	-1.08751E-003	-1.37616E-003	2.33736E-002	-1.51853E-003
	28	28	1.10072E+000	3.53589E-002	0.00000E+000	3.89201E-002	3.52594E-001	3.92452E-002	4.45464E+001	11	...........	6.55105E-002	-3.49653E-003	5.71521E-001	6.78515E-001	-3.04706E-002	-3.85239E-002	6.54512E-001	-4.22357E-002	2.31638E-003	-1.23633E-004	2.02084E-002	2.39916E-002	-1.07741E-003	-1.36216E-003	2.31428E-002	-1.49341E-003
	29	29	1.10066E+000	3.55203E-002	0.00000E+000	3.90958E-002	3.54192E-001	3.94422E-002	4.65702E+001	11	...........	6.58381E-002	-3.52931E-003	5.71722E-001	6.78552E-001	-3.04940E-002	-3.85358E-002	6.54426E-001	-4.23376E-002	2.33858E-003	-1.25362E-004	2.03077E-002	2.41023E-002	-1.08316E-003	-1.36880E-003	2.32454E-002	-1.50384E-003
	30	30	1.10073E+000	3.54382E-002	0.00000E+000	3.90078E-002	3.53378E-001	3.93719E-002	4.53993E+001	11	...........	6.57189E-002	-3.66806E-003	5.71691E-001	6.78683E-001	-3.04881E-002	-3.85440E-002	6.54325E-001	-4.23372E-002	2.32896E-003	-1.29989E-004	2.02597E-002	2.40513E-002	-1.08044E-003	-1.36593E-003	2.31881E-002	-1.50036E-003
	31	31	1.10072E+000	3.50775E-002	0.00000E+000	3.86104E-002	3.49791E-001	3.93327E-002	4.44576E+001	11	...........	6.56631E-002	-3.55986E-003	5.71749E-001	6.78557E-001	-3.04982E-002	-3.85487E-002	6.54455E-001	-4.24679E-002	2.30329E-003	-1.24871E-004	2.00555E-002	2.38021E-002	-1.06980E-003	-1.35219E-003	2.29566E-002	-1.48967E-003
	32	32	1.10066E+000	3.52140E-002	0.00000E+000	3.87585E-002	3.51148E-001	3.91658E-002	4.58816E+001	11	...........	6.53857E-002	-3.51986E-003	5.71596E-001	6.78488E-001	-3.05085E-002	-3.85540E-002	6.54459E-001	-4.24881E-002	2.30249E-003	-1.23948E-004	2.01282E-002	2.38922E-002	-1.07432E-003	-1.35764E-003	2.30461E-002	-1.49617E-003
	33	33	1.10072E+000	3.52054E-002	0.00000E+000	3.87515E-002	3.51065E-001	3.93879E-002	4.66175E+001	11	...........	6.57717E-002	-3.54528E-003	5.71585E-001	6.78368E-001	-3.05021E-002	-3.85807E-002	6.54348E-001	-4.25640E-002	2.31552E-003	-1.24813E-004	2.01229E-002	2.38823E-002	-1.07384E-003	-1.35825E-003	2.30366E-002	-1.49848E-003
	34	34	1.10072E+000	3.47714E-002	0.00000E+000	3.82737E-002	3.46746E-001	3.89665E-002	4.50306E+001	11	...........	6.50653E-002	-3.49389E-003	5.71614E-001	6.78221E-001	-3.05150E-002	-3.85710E-002	6.54343E-001	-4.25464E-002	2.26241E-003	-1.21487E-004	1.98758E-002	2.35827E-002	-1.06105E-003	-1.34117E-003	2.27524E-002	-1.47940E-003
	35	35	1.10066E+000	3.49608E-002	0.00000E+000	3.84799E-002	3.48630E-001	3.93695E-002	4.63359E+001	11	...........	6.57178E-002	-3.54833E-003	5.71666E-001	6.78230E-001	-3.05178E-002	-3.85901E-002	6.54324E-001	-4.25149E-002	2.29755E-003	-1.24053E-004	1.99859E-002	2.37115E-002	-1.06693E-003	-1.34914E-003	2.28757E-002	-1.48635E-003
	36	36	1.10072E+000	3.49177E-002	0.00000E+000	3.84347E-002	3.48203E-001	3.92736E-002	4.53195E+001	11	...........	6.55740E-002	-3.61500E-003	5.71572E-001	6.78163E-001	-3.05026E-002	-3.86011E-002	6.54199E-001	-4.24762E-002	2.28969E-003	-1.26228E-004	1.99580E-002	2.36799E-002	-1.06508E-003	-1.34786E-003	2.28431E-002	-1.48317E-003
	37	37	1.10072E+000	3.45127E-002	0.00000E+000	3.79890E-002	3.44177E-001	3.89517E-002	4.42749E+001	11	...........	6.50239E-002	-3.56861E-003	5.71533E-001	6.78052E-001	-3.04799E-002	-3.86007E-002	6.54105E-001	-4.24069E-002	2.24415E-003	-1.23162E-004	1.97252E-002	2.34014E-002	-1.05194E-003	-1.33221E-003	2.25749E-002	-1.46358E-003
	38	38	1.10066E+000	3.46924E-002	0.00000E+000	3.81844E-002	3.45963E-001	3.92360E-002	4.63180E+001	11	...........	6.54994E-002	-3.53778E-003	5.71647E-001	6.78042E-001	-3.04531E-002	-3.86082E-002	6.54233E-001	-4.24172E-002	2.27233E-003	-1.22734E-004	1.98318E-002	2.35229E-002	-1.05649E-003	-1.33941E-003	2.26969E-002	-1.47155E-003
	39	39	1.10072E+000	3.46719E-002	0.00000E+000	3.81640E-002	3.45763E-001	3.90466E-002	4.55913E+001	11	...........	6.51936E-002	-3.56528E-003	5.71698E-001	6.77998E-001	-3.04329E-002	-3.86021E-002	6.54316E-001	-4.24361E-002	2.26039E-003	-1.23615E-004	1.98219E-002	2.35075E-002	-1.05517E-003	-1.33841E-003	2.26864E-002	-1.47134E-003
	40	40	1.10073E+000	3.42949E-002	0.00000E+000	3.77494E-002	3.42011E-001	3.93055E-002	4.63402E+001	11	...........	6.56110E-002	-3.62375E-003	5.71668E-001	6.77967E-001	-3.04185E-002	-3.85867E-002	6.54361E-001	-4.24925E-002	2.25012E-003	-1.24276E-004	1.96053E-002	2.32508E-002	-1.04320E-003	-1.32333E-003	2.24413E-002	-1.45728E-003
	41	41	1.10066E+000	3.43973E-002	0.00000E+000	3.78597E-002	3.43031E-001	3.90118E-002	4.39947E+001	11	...........	6.51293E-002	-3.55014E-003	5.71640E-001	6.77902E-001	-3.04361E-002	-3.85579E-002	6.54327E-001	-4.24450E-002	2.24027E-003	-1.22115E-004	1.96629E-002	2.33180E-002	-1.04692E-003	-1.32629E-003	2.25071E-002	-1.46000E-003
	42	42	1.10071E+000	3.44246E-002	0.00000E+000	3.78916E-002	3.43303E-001	3.91716E-002	4.53837E+001	11	...........	6.53956E-002	-3.46806E-003	5.71751E-001	6.77907E-001	-3.04408E-002	-3.85665E-002	6.54351E-001	-4.23636E-002	2.25122E-003	-1.19387E-004	1.96823E-002	2.33367E-002	-1.04791E-003	-1.32764E-003	2.25258E-002	-1.45835E-003
	43	43	1.10073E+000	3.40399E-002	0.00000E+000	3.74688E-002	3.39480E-001	3.89388E-002	4.56014E+001	11	...........	6.50110E-002	-3.60472E-003	5.71756E-001	6.77958E-001	-3.04092E-002	-3.85871E-002	6.54254E-001	-4.24483E-002	2.21296E-003	-1.22704E-004	1.94625E-002	2.30776E-002	-1.03512E-003	-1.31350E-003	2.22707E-002	-1.44494E-003
	44	44	1.10066E+000	3.41279E-002	0.00000E+000	3.75630E-002	3.40349E-001	3.88722E-002	4.48863E+001	11	...........	6.48922E-002	-3.52306E-003	5.71893E-001	6.77970E-001	-3.04031E-002	-3.85778E-002	6.54263E-001	-4.24376E-002	2.21463E-003	-1.20234E-004	1.95175E-002	2.31377E-002	-1.03759E-003	-1.31658E-003	2.23286E-002	-1.44831E-003
	45	45	1.10071E+000	3.42045E-002	0.00000E+000	3.76493E-002	3.41115E-001	3.93502E-002	4.48832E+001	11	...........	6.56914E-002	-3.61500E-003	5.71958E-001	6.78004E-001	-3.03782E-002	-3.85906E-002	6.54293E-001	-4.24887E-002	2.24694E-003	-1.23649E-004	1.95636E-002	2.31908E-002	-1.03907E-003	-1.31997E-003	2.23798E-002	-1.45331E-003
	46	46	1.10074E+000	3.37878E-002	0.00000E+000	3.71916E-002	3.36973E-001	3.89534E-002	4.62667E+001	11	...........	6.50331E-002	-3.53861E-003	5.72032E-001	6.78040E-001	-3.03635E-002	-3.85933E-002	6.54281E-001	-4.24254E-002	2.19732E-003	-1.19562E-004	1.93277E-002	2.29095E-002	-1.02592E-003	-1.30398E-003	2.21067E-002	-1.43346E-003
	47	47	1.10066E+000	3.38600E-002	0.00000E+000	3.72682E-002	3.37689E-001	3.89207E-002	4.36010E+001	11	...........	6.49753E-002	-3.64944E-003	5.71951E-001	6.78118E-001	-3.03728E-002	-3.86151E-002	6.54298E-001	-4.23178E-002	2.20006E-003	-1.23570E-004	1.93663E-002	2.29611E-002	-1.02842E-003	-1.30751E-003	2.21545E-002	-1.43288E-003
	48	48	1.10071E+000	3.39278E-002	0.00000E+000	3.73445E-002	3.38361E-001	3.90933E-002	4.49015E+001	11	...........	6.52364E-002	-3.65556E-003	5.71889E-001	6.78114E-001	-3.04036E-002	-3.86150E-002	6.54340E-001	-4.21801E-002	2.21332E-003	-1.24025E-004	1.94029E-002	2.30069E-002	-1.03153E-003	-1.31012E-003	2.22003E-002	-1.43108E-003
	49	49	1.10074E+000	3.35662E-002	0.00000E+000	3.69476E-002	3.34763E-001	3.89834E-002	4.65709E+001	11	...........	6.50806E-002	-3.55847E-003	5.71838E-001	6.78228E-001	-3.04289E-002	-3.86128E-002	6.54288E-001	-4.21949E-002	2.18451E-003	-1.19444E-004	1.91944E-002	2.27656E-002	-1.02138E-003	-1.29608E-003	2.19620E-002	-1.41632E-003
	50	50	1.10065E+000	3.36608E-002	0.00000E+000	3.70489E-002	3.35705E-001	3.88423E-002	4.55143E+001	11	...........	6.48537E-002	-3.58333E-003	5.71891E-001	6.78285E-001	-3.04624E-002	-3.86344E-002	6.54284E-001	-4.23368E-002	2.18303E-003	-1.20618E-004	1.92503E-002	2.28316E-002	-1.02539E-003	-1.30047E-003	2.20237E-002	-1.42509E-003
	51	51	1.10071E+000	3.36479E-002	0.00000E+000	3.70365E-002	3.35577E-001	3.88842E-002	4.59938E+001	11	...........	6.49174E-002	-3.52139E-003	5.71859E-001	6.78298E-001	-3.04457E-002	-3.86142E-002	6.54234E-001	-4.22656E-002	2.18433E-003	-1.18487E-004	1.92419E-002	2.28233E-002	-1.02443E-003	-1.29929E-003	2.20136E-002	-1.42215E-003
	52	52	1.10074E+000	3.33133E-002	0.00000E+000	3.66694E-002	3.32253E-001	3.89547E-002	4.44811E+001	11	...........	6.50324E-002	-3.52667E-003	5.71703E-001	6.78428E-001	-3.04269E-002	-3.86028E-002	6.54025E-001	-4.23096E-002	2.16645E-003	-1.17485E-004	1.90453E-002	2.26007E-002	-1.01362E-003	-1.28599E-003	2.17877E-002	-1.40947E-003
	53	53	1.10065E+000	3.34411E-002	0.00000E+000	3.68070E-002	3.33522E-001	3.88925E-002	4.62579E+001	11	...........	6.49408E-002	-3.59083E-003	5.71791E-001	6.78502E-001	-3.04496E-002	-3.86026E-002	6.54069E-001	-4.23129E-002	2.17169E-003	-1.20081E-004	1.91213E-002	2.26898E-002	-1.01827E-003	-1.29091E-003	2.18728E-002	-1.41499E-003
	54	54	1.10070E+000	3.34418E-002	0.00000E+000	3.68096E-002	3.33528E-001	3.88673E-002	4.63126E+001	11	...........	6.48855E-002	-3.55556E-003	5.71783E-001	6.78502E-001	-3.04658E-002	-3.86065E-002	6.54063E-001	-4.22531E-002	2.16989E-003	-1.18904E-004	1.91215E-002	2.26903E-002	-1.01883E-003	-1.29107E-003	2.18730E-002	-1.41302E-003
	55	55	1.10075E+000	3.31028E-002	0.00000E+000	3.64378E-002	3.30160E-001	3.89573E-002	4.52996E+001	11	...........	6.50407E-002	-3.52722E-003	5.71789E-001	6.78406E-001	-3.04586E-002	-3.85975E-002	6.54160E-001	-4.22811E-002	2.15303E-003	-1.16761E-004	1.89278E-002	2.24571E-002	-1.00827E-003	-1.27768E-003	2.16545E-002	-1.39962E-003
	56	56	1.10065E+000	3.31441E-002	0.00000E+000	3.64802E-002	3.30574E-001	3.85972E-002	4.38354E+001	11	...........	6.44486E-002	-3.56778E-003	5.71636E-001	6.78306E-001	-3.04774E-002	-3.86024E-002	6.54145E-001	-4.23201E-002	2.13609E-003	-1.18251E-004	1.89464E-002	2.24818E-002	-1.01015E-003	-1.27944E-003	2.16811E-002	-1.40266E-003
	57	57	1.10070E+000	3.32327E-002	0.00000E+000	3.65793E-002	3.31453E-001	3.89112E-002	4.57828E+001	11	...........	6.49739E-002	-3.61556E-003	5.71878E-001	6.78090E-001	-3.04589E-002	-3.85990E-002	6.54181E-001	-4.23626E-002	2.15925E-003	-1.20155E-004	1.90050E-002	2.25347E-002	-1.01223E-003	-1.28275E-003	2.17402E-002	-1.40782E-003
	58	58	1.10075E+000	3.28882E-002	0.00000E+000	3.62017E-002	3.28030E-001	3.90068E-002	4.59809E+001	11	...........	6.51303E-002	-3.68319E-003	5.71959E-001	6.78160E-001	-3.04803E-002	-3.86197E-002	6.54061E-001	-4.23975E-002	2.14202E-003	-1.21134E-004	1.88107E-002	2.23035E-002	-1.00244E-003	-1.27013E-003	2.15109E-002	-1.39438E-003
	59	59	1.10065E+000	3.29424E-002	0.00000E+000	3.62581E-002	3.28564E-001	3.86518E-002	4.49092E+001	11	...........	6.45117E-002	-3.59431E-003	5.71802E-001	6.78194E-001	-3.04908E-002	-3.86065E-002	6.54076E-001	-4.24061E-002	2.12517E-003	-1.18405E-004	1.88365E-002	2.23414E-002	-1.00444E-003	-1.27179E-003	2.15469E-002	-1.39696E-003
	60	60	1.10070E+000	3.29715E-002	0.00000E+000	3.62918E-002	3.28855E-001	3.89237E-002	4.46206E+001	11	...........	6.49767E-002	-3.61958E-003	5.71694E-001	6.78185E-001	-3.04857E-002	-3.85762E-002	6.54127E-001	-4.23464E-002	2.14238E-003	-1.19343E-004	1.88496E-002	2.23608E-002	-1.00516E-003	-1.27192E-003	2.15676E-002	-1.39622E-003
	61	61	1.10075E+000	3.26433E-002	0.00000E+000	3.59321E-002	3.25592E-001	3.86886E-002	4.49539E+001	11	...........	6.45874E-002	-3.60181E-003	5.71510E-001	6.78359E-001	-3.04856E-002	-3.85733E-002	6.54062E-001	-4.24185E-002	2.10834E-003	-1.17575E-004	1.86560E-002	2.21439E-002	-9.95149E-004	-1.25916E-003	2.13507E-002	-1.38468E-003
	62	62	1.10065E+000	3.27152E-002	0.00000E+000	3.60081E-002	3.26307E-001	3.88872E-002	4.57788E+001	11	...........	6.49208E-002	-3.50917E-003	5.71335E-001	6.78484E-001	-3.04710E-002	-3.86149E-002	6.54120E-001	-4.24451E-002	2.12390E-003	-1.14803E-004	1.86913E-002	2.21967E-002	-9.96865E-004	-1.26329E-003	2.13997E-002	-1.38860E-003
	63	63	1.10070E+000	3.27588E-002	0.00000E+000	3.60575E-002	3.26739E-001	3.88354E-002	4.56352E+001	11	...........	6.48576E-002	-3.59083E-003	5.71236E-001	6.78505E-001	-3.04397E-002	-3.86318E-002	6.54067E-001	-4.24050E-002	2.12466E-003	-1.17631E-004	1.87130E-002	2.22270E-002	-9.97167E-004	-1.26553E-003	2.14264E-002	-1.38913E-003
	64	64	1.10075E+000	3.24182E-002	0.00000E+000	3.56844E-002	3.23356E-001	3.86863E-002	4.49037E+001	11	...........	6.45800E-002	-3.57819E-003	5.71087E-001	6.78559E-001	-3.04274E-002	-3.86344E-002	6.54086E-001	-4.22126E-002	2.09357E-003	-1.15999E-004	1.85136E-002	2.19976E-002	-9.86399E-004	-1.25246E-003	2.12043E-002	-1.36846E-003
	65	65	1.10065E+000	3.24436E-002	0.00000E+000	3.57091E-002	3.23606E-001	3.84756E-002	4.31531E+001	11	...........	6.42187E-002	-3.38042E-003	5.71101E-001	6.78638E-001	-3.04200E-002	-3.86233E-002	6.53988E-001	-4.21637E-002	2.08349E-003	-1.09673E-004	1.85286E-002	2.20175E-002	-9.86934E-004	-1.25308E-003	2.12177E-002	-1.36794E-003
	66	66	1.10070E+000	3.25676E-002	0.00000E+000	3.58470E-002	3.24840E-001	3.89686E-002	4.63162E+001	11	...........	6.50426E-002	-3.57486E-003	5.71126E-001	6.78565E-001	-3.04146E-002	-3.86308E-002	6.53913E-001	-4.21249E-002	2.11828E-003	-1.16425E-004	1.86002E-002	2.20992E-002	-9.90529E-004	-1.25811E-003	2.12964E-002	-1.37190E-003
	67	67	1.10075E+000	3.22368E-002	0.00000E+000	3.54847E-002	3.21552E-001	3.86203E-002	4.47174E+001	11	...........	6.44818E-002	-3.58083E-003	5.70954E-001	6.78804E-001	-3.04157E-002	-3.86172E-002	6.53954E-001	-4.21467E-002	2.07868E-003	-1.15434E-004	1.84057E-002	2.18824E-002	-9.80503E-004	-1.24489E-003	2.10814E-002	-1.35867E-003
	68	68	1.10065E+000	3.22388E-002	0.00000E+000	3.54837E-002	3.21573E-001	3.86414E-002	4.55849E+001	11	...........	6.45112E-002	-3.47042E-003	5.70830E-001	6.79114E-001	-3.04350E-002	-3.86287E-002	6.54022E-001	-4.22800E-002	2.07976E-003	-1.11882E-004	1.84029E-002	2.18938E-002	-9.81187E-004	-1.24534E-003	2.10849E-002	-1.36306E-003
	69	69	1.10070E+000	3.22892E-002	0.00000E+000	3.55406E-002	3.22073E-001	3.87518E-002	4.65237E+001	11	...........	6.46940E-002	-3.52222E-003	5.70777E-001	6.79305E-001	-3.04518E-002	-3.86653E-002	6.54157E-001	-4.22736E-002	2.08892E-003	-1.13730E-004	1.84300E-002	2.19342E-002	-9.83265E-004	-1.24847E-003	2.11222E-002	-1.36498E-003
	70	70	1.10075E+000	3.19750E-002	0.00000E+000	3.51966E-002	3.18944E-001	3.85411E-002	4.34183E+001	11	...........	6.43324E-002	-3.55181E-003	5.70691E-001	6.79416E-001	-3.04625E-002	-3.87003E-002	6.54193E-001	-4.22492E-002	2.05702E-003	-1.13569E-004	1.82478E-002	2.17243E-002	-9.74037E-004	-1.23744E-003	2.09178E-002	-1.35092E-003
	71	71	1.10065E+000	3.20179E-002	0.00000E+000	3.52406E-002	3.19376E-001	3.87164E-002	4.59439E+001	11	...........	6.46371E-002	-3.30750E-003	5.70763E-001	6.79439E-001	-3.04779E-002	-3.86990E-002	6.54092E-001	-4.22012E-002	2.06955E-003	-1.05899E-004	1.82747E-002	2.17542E-002	-9.75840E-004	-1.23906E-003	2.09427E-002	-1.35120E-003
	72	72	1.10070E+000	3.21038E-002	0.00000E+000	3.53366E-002	3.20230E-001	3.87986E-002	4.60041E+001	11	...........	6.47667E-002	-3.38069E-003	5.70904E-001	6.79458E-001	-3.04811E-002	-3.86876E-002	6.54141E-001	-4.21411E-002	2.07926E-003	-1.08533E-004	1.83282E-002	2.18132E-002	-9.78560E-004	-1.24202E-003	2.10004E-002	-1.35289E-003
	73	73	1.10076E+000	3.17990E-002	0.00000E+000	3.50030E-002	3.17201E-001	3.84842E-002	4.54290E+001	11	...........	6.42426E-002	-3.40556E-003	5.70839E-001	6.79452E-001	-3.04822E-002	-3.86675E-002	6.54002E-001	-4.22839E-002	2.04285E-003	-1.08293E-004	1.81521E-002	2.16059E-002	-9.69305E-004	-1.22959E-003	2.07966E-002	-1.34459E-003
	74	74	1.10065E+000	3.17819E-002	0.00000E+000	3.49808E-002	3.17029E-001	3.86391E-002	4.44291E+001	11	...........	6.44974E-002	-3.57375E-003	5.70741E-001	6.79389E-001	-3.04746E-002	-3.86499E-002	6.54121E-001	-4.23236E-002	2.04985E-003	-1.13581E-004	1.81393E-002	2.15923E-002	-9.68542E-004	-1.22837E-003	2.07892E-002	-1.34513E-003
	75	75	1.10069E+000	3.18483E-002	0.00000E+000	3.50552E-002	3.17688E-001	3.82583E-002	4.39066E+001	11	...........	6.38589E-002	-3.50750E-003	5.70765E-001	6.79300E-001	-3.04929E-002	-3.86258E-002	6.54151E-001	-4.21935E-002	2.03380E-003	-1.11708E-004	1.81779E-002	2.16346E-002	-9.71149E-004	-1.23017E-003	2.08336E-002	-1.34379E-003
	76	76	1.10076E+000	3.16144E-002	0.00000E+000	3.47998E-002	3.15365E-001	3.86611E-002	4.63258E+001	11	...........	6.45451E-002	-3.49264E-003	5.70818E-001	6.79428E-001	-3.05062E-002	-3.86192E-002	6.54166E-001	-4.22778E-002	2.04056E-003	-1.10418E-004	1.80461E-002	2.14797E-002	-9.64438E-004	-1.22092E-003	2.06811E-002	-1.33659E-003
	77	77	1.10065E+000	3.15758E-002	0.00000E+000	3.47540E-002	3.14978E-001	3.87015E-002	4.56268E+001	11	...........	6.46146E-002	-3.52083E-003	5.70828E-001	6.79528E-001	-3.05064E-002	-3.86074E-002	6.54127E-001	-4.23412E-002	2.04026E-003	-1.11173E-004	1.80243E-002	2.14566E-002	-9.63263E-004	-1.21906E-003	2.06546E-002	-1.33696E-003
	78	78	1.10069E+000	3.16666E-002	0.00000E+000	3.48551E-002	3.15880E-001	3.85518E-002	4.56515E+001	11	...........	6.43562E-002	-3.49250E-003	5.70784E-001	6.79754E-001	-3.04914E-002	-3.86142E-002	6.54078E-001	-4.22557E-002	2.03794E-003	-1.10595E-004	1.80748E-002	2.15255E-002	-9.65557E-004	-1.22278E-003	2.07124E-002	-1.33809E-003
	79	79	1.10076E+000	3.13771E-002	0.00000E+000	3.45386E-002	3.13003E-001	3.82939E-002	4.49866E+001	11	...........	6.39258E-002	-3.58944E-003	5.70782E-001	6.79850E-001	-3.04840E-002	-3.86036E-002	6.54111E-001	-4.22133E-002	2.00581E-003	-1.12626E-004	1.79095E-002	2.13317E-002	-9.56501E-004	-1.21127E-003	2.05241E-002	-1.32453E-003
	80	80	1.10065E+000	3.13567E-002	0.00000E+000	3.45128E-002	3.12800E-001	3.84940E-002	4.52272E+001	11	...........	6.42685E-002	-3.68764E-003	5.70760E-001	6.79819E-001	-3.04846E-002	-3.86101E-002	6.54058E-001	-4.22014E-002	2.01525E-003	-1.15632E-004	1.78972E-002	2.13169E-002	-9.55896E-004	-1.21069E-003	2.05091E-002	-1.32330E-003
	81	81	1.10069E+000	3.14543E-002	0.00000E+000	3.46215E-002	3.13772E-001	3.87242E-002	4.64493E+001	11	...........	6.46501E-002	-3.75514E-003	5.70826E-001	6.79791E-001	-3.04911E-002	-3.86282E-002	6.54032E-001	-4.23361E-002	2.03352E-003	-1.18115E-004	1.79549E-002	2.13823E-002	-9.59076E-004	-1.21502E-003	2.05721E-002	-1.33165E-003
	82	82	1.10076E+000	3.11697E-002	0.00000E+000	3.43103E-002	3.10940E-001	3.84356E-002	4.50630E+001	11	...........	6.41582E-002	-3.69750E-003	5.70797E-001	6.79852E-001	-3.05099E-002	-3.86318E-002	6.54062E-001	-4.23156E-002	1.99979E-003	-1.15250E-004	1.77916E-002	2.11908E-002	-9.50983E-004	-1.20414E-003	2.03869E-002	-1.31896E-003
	83	83	1.10065E+000	3.11462E-002	0.00000E+000	3.42812E-002	3.10708E-001	3.84882E-002	4.63882E+001	11	...........	6.42371E-002	-3.59306E-003	5.70877E-001	6.79782E-001	-3.05047E-002	-3.86460E-002	6.54115E-001	-4.23133E-002	2.00074E-003	-1.11910E-004	1.77807E-002	2.11726E-002	-9.50107E-004	-1.20368E-003	2.03732E-002	-1.31790E-003
	84	84	1.10069E+000	3.12135E-002	0.00000E+000	3.43564E-002	3.11378E-001	3.82957E-002	4.36498E+001	11	...........	6.39439E-002	-3.61444E-003	5.71039E-001	6.79633E-001	-3.04883E-002	-3.86576E-002	6.54039E-001	-4.23310E-002	1.99591E-003	-1.12819E-004	1.78241E-002	2.12137E-002	-9.51648E-004	-1.20664E-003	2.04148E-002	-1.32130E-003
	85	85	1.10076E+000	3.09911E-002	0.00000E+000	3.41137E-002	3.09167E-001	3.86382E-002	4.49938E+001	11	...........	6.45053E-002	-3.55806E-003	5.71116E-001	6.79532E-001	-3.04622E-002	-3.86535E-002	6.54100E-001	-4.23137E-002	1.99909E-003	-1.10268E-004	1.76995E-002	2.10594E-002	-9.44057E-004	-1.19791E-003	2.02713E-002	-1.31135E-003
	86	86	1.10065E+000	3.09331E-002	0.00000E+000	3.40466E-002	3.08593E-001	3.84406E-002	4.70629E+001	11	...........	6.42046E-002	-3.55653E-003	5.70942E-001	6.79689E-001	-3.04717E-002	-3.86403E-002	6.54183E-001	-4.24090E-002	1.98604E-003	-1.10014E-004	1.76610E-002	2.10248E-002	-9.42582E-004	-1.19526E-003	2.02359E-002	-1.31184E-003
	87	87	1.10069E+000	3.10296E-002	0.00000E+000	3.41540E-002	3.09550E-001	3.84338E-002	4.52901E+001	11	...........	6.41707E-002	-3.52708E-003	5.70890E-001	6.79662E-001	-3.04747E-002	-3.86146E-002	6.53930E-001	-4.23135E-002	1.99119E-003	-1.09444E-004	1.77145E-002	2.10897E-002	-9.45619E-004	-1.19820E-003	2.02912E-002	-1.31297E-003
	88	88	1.10076E+000	3.07703E-002	0.00000E+000	3.38706E-002	3.06969E-001	3.82425E-002	4.47052E+001	11	...........	6.38485E-002	-3.51597E-003	5.70910E-001	6.79631E-001	-3.04494E-002	-3.86093E-002	6.53865E-001	-4.21878E-002	1.96464E-003	-1.08188E-004	1.75671E-002	2.09124E-002	-9.36939E-004	-1.18802E-003	2.01196E-002	-1.29813E-003
	89	89	1.10066E+000	3.07391E-002	0.00000E+000	3.38332E-002	3.06661E-001	3.84691E-002	4.53175E+001	11	...........	6.42214E-002	-3.49319E-003	5.70970E-001	6.79592E-001	-3.04532E-002	-3.86076E-002	6.53892E-001	-4.22199E-002	1.97411E-003	-1.07378E-004	1.75511E-002	2.08900E-002	-9.36103E-004	-1.18676E-003	2.01000E-002	-1.29780E-003
	90	90	1.10069E+000	3.08191E-002	0.00000E+000	3.39222E-002	3.07454E-001	3.84362E-002	4.68270E+001	11	...........	6.41792E-002	-3.52194E-003	5.70975E-001	6.79679E-001	-3.04568E-002	-3.86100E-002	6.53868E-001	-4.23308E-002	1.97794E-003	-1.08543E-004	1.75969E-002	2.09471E-002	-9.38651E-004	-1.18992E-003	2.01516E-002	-1.30460E-003
	91	91	1.10076E+000	3.05704E-002	0.00000E+000	3.36505E-002	3.04983E-001	3.83062E-002	4.57103E+001	11	...........	6.39572E-002	-3.55069E-003	5.71091E-001	6.79691E-001	-3.04590E-002	-3.85982E-002	6.53938E-001	-4.22415E-002	1.95519E-003	-1.08546E-004	1.74584E-002	2.07784E-002	-9.31143E-004	-1.17996E-003	1.99911E-002	-1.29134E-003
	92	92	1.10066E+000	3.04930E-002	0.00000E+000	3.35624E-002	3.04211E-001	3.83578E-002	4.35370E+001	11	...........	6.40200E-002	-3.62153E-003	5.71051E-001	6.79641E-001	-3.04579E-002	-3.85906E-002	6.53869E-001	-4.22386E-002	1.95216E-003	-1.10431E-004	1.74131E-002	2.07243E-002	-9.28753E-004	-1.17674E-003	1.99384E-002	-1.28798E-003
	93	93	1.10069E+000	3.06157E-002	0.00000E+000	3.36983E-002	3.05428E-001	3.82659E-002	4.42500E+001	11	...........	6.38815E-002	-3.61417E-003	5.70773E-001	6.79589E-001	-3.04460E-002	-3.85956E-002	6.53936E-001	-4.22965E-002	1.95578E-003	-1.10650E-004	1.74746E-002	2.08061E-002	-9.32125E-004	-1.18163E-003	2.00207E-002	-1.29494E-003
	94	94	1.10076E+000	3.03932E-002	0.00000E+000	3.34555E-002	3.03218E-001	3.81867E-002	4.48353E+001	11	...........	6.37642E-002	-3.71264E-003	5.70808E-001	6.79636E-001	-3.04422E-002	-3.85894E-002	6.53925E-001	-4.23562E-002	1.93800E-003	-1.12839E-004	1.73487E-002	2.06563E-002	-9.25237E-004	-1.17286E-003	1.98749E-002	-1.28734E-003
	95	95	1.10066E+000	3.02884E-002	0.00000E+000	3.33372E-002	3.02178E-001	3.84405E-002	4.49823E+001	11	...........	6.41857E-002	-3.59417E-003	5.70813E-001	6.79783E-001	-3.04436E-002	-3.85779E-002	6.53951E-001	-4.23306E-002	1.94408E-003	-1.08862E-004	1.72890E-002	2.05896E-002	-9.22089E-004	-1.16846E-003	1.98072E-002	-1.28213E-003
	96	96	1.10069E+000	3.04336E-002	0.00000E+000	3.34979E-002	3.03617E-001	3.84249E-002	4.53973E+001	11	...........	6.41500E-002	-3.59972E-003	5.70847E-001	6.79912E-001	-3.04553E-002	-3.85617E-002	6.54016E-001	-4.22253E-002	1.95232E-003	-1.09553E-004	1.73730E-002	2.06922E-002	-9.26865E-004	-1.17357E-003	1.99041E-002	-1.28507E-003
	97	97	1.10076E+000	3.01867E-002	0.00000E+000	3.32281E-002	3.01165E-001	3.80277E-002	4.45106E+001	11	...........	6.34912E-002	-3.58167E-003	5.70730E-001	6.80090E-001	-3.04900E-002	-3.85900E-002	6.54052E-001	-4.21404E-002	1.91659E-003	-1.08119E-004	1.72284E-002	2.05297E-002	-9.20392E-004	-1.16490E-003	1.97437E-002	-1.27208E-003
	98	98	1.10066E+000	3.00889E-002	0.00000E+000	3.31177E-002	3.00196E-001	3.83373E-002	4.57631E+001	11	...........	6.40097E-002	-3.48042E-003	5.70747E-001	6.80352E-001	-3.04883E-002	-3.85731E-002	6.54037E-001	-4.22493E-002	1.92598E-003	-1.04722E-004	1.71732E-002	2.04711E-002	-9.17362E-004	-1.16062E-003	1.96793E-002	-1.27124E-003
	99	99	1.10069E+000	3.01895E-002	0.00000E+000	3.32291E-002	3.01196E-001	3.83461E-002	4.39413E+001	11	...........	6.40165E-002	-3.63861E-003	5.70928E-001	6.80387E-001	-3.04774E-002	-3.85678E-002	6.54079E-001	-4.22451E-002	1.93262E-003	-1.09848E-004	1.72360E-002	2.05405E-002	-9.20095E-004	-1.16434E-003	1.97463E-002	-1.27536E-003
	100	100	1.10075E+000	3.00130E-002	0.00000E+000	3.30369E-002	2.99442E-001	3.83009E-002	4.59151E+001	11	...........	6.39422E-002	-3.63792E-003	5.70903E-001	6.80430E-001	-3.04771E-002	-3.85768E-002	6.53956E-001	-4.22449E-002	1.91910E-003	-1.09185E-004	1.71345E-002	2.04218E-002	-9.14710E-004	-1.15781E-003	1.96272E-002	-1.26790E-003
	101	101	1.10066E+000	2.98749E-002	0.00000E+000	3.28821E-002	2.98065E-001	3.79022E-002	4.49112E+001	11	...........	6.32571E-002	-3.62028E-003	5.70909E-001	6.80312E-001	-3.04907E-002	-3.85726E-002	6.53883E-001	-4.22849E-002	1.88980E-003	-1.08155E-004	1.70558E-002	2.03242E-002	-9.10905E-004	-1.15235E-003	1.95347E-002	-1.26325E-003
	102	102	1.10069E+000	3.00150E-002	0.00000E+000	3.30371E-002	2.99458E-001	3.85525E-002	4.50298E+001	11	...........	6.43417E-002	-3.61292E-003	5.70864E-001	6.80161E-001	-3.05018E-002	-3.85739E-002	6.54005E-001	-4.23468E-002	1.93122E-003	-1.08442E-004	1.71345E-002	2.04150E-002	-9.15512E-004	-1.15780E-003	1.96300E-002	-1.27104E-003
	103	103	1.10075E+000	2.97941E-002	0.00000E+000	3.27960E-002	2.97263E-001	3.81074E-002	4.56132E+001	11	...........	6.36400E-002	-3.43917E-003	5.70691E-001	6.80109E-001	-3.05178E-002	-3.85901E-002	6.54030E-001	-4.24142E-002	1.89610E-003	-1.02467E-004	1.70032E-002	2.02632E-002	-9.09250E-004	-1.14976E-003	1.94862E-002	-1.26369E-003
	104	104	1.10066E+000	2.96572E-002	0.00000E+000	3.26426E-002	2.95906E-001	3.80215E-002	4.55223E+001	11	...........	6.34811E-002	-3.39778E-003	5.70696E-001	6.80073E-001	-3.05079E-002	-3.86061E-002	6.54000E-001	-4.24475E-002	1.88267E-003	-1.00768E-004	1.69252E-002	2.01690E-002	-9.04778E-004	-1.14495E-003	1.93958E-002	-1.25887E-003
	105	105	1.10068E+000	2.98008E-002	0.00000E+000	3.28012E-002	2.97332E-001	3.81073E-002	4.36900E+001	11	...........	6.36217E-002	-3.47222E-003	5.70902E-001	6.80032E-001	-3.05246E-002	-3.86186E-002	6.54026E-001	-4.23372E-002	1.89597E-003	-1.03475E-004	1.70133E-002	2.02655E-002	-9.09656E-004	-1.15086E-003	1.94905E-002	-1.26168E-003
	106	106	1.10075E+000	2.96525E-002	0.00000E+000	3.26401E-002	2.95858E-001	3.83758E-002	4.66959E+001	11	...........	6.40712E-002	-3.56972E-003	5.71025E-001	6.80102E-001	-3.05385E-002	-3.86357E-002	6.54028E-001	-4.23507E-002	1.89988E-003	-1.05851E-004	1.69323E-002	2.01667E-002	-9.05543E-004	-1.14565E-003	1.93936E-002	-1.25581E-003
	107	107	1.10067E+000	2.94926E-002	0.00000E+000	3.24615E-002	2.94268E-001	3.81038E-002	4.50940E+001	11	...........	6.36086E-002	-3.55125E-003	5.71090E-001	6.80335E-001	-3.05367E-002	-3.86322E-002	6.54087E-001	-4.22981E-002	1.87599E-003	-1.04736E-004	1.68430E-002	2.00649E-002	-9.00607E-004	-1.13937E-003	1.92908E-002	-1.24748E-003
	108	108	1.10068E+000	2.96298E-002	0.00000E+000	3.26131E-002	2.95633E-001	3.81968E-002	4.62298E+001	11	...........	6.37794E-002	-3.48528E-003	5.70919E-001	6.80215E-001	-3.05310E-002	-3.86389E-002	6.53983E-001	-4.23789E-002	1.88977E-003	-1.03268E-004	1.69162E-002	2.01547E-002	-9.04627E-004	-1.14486E-003	1.93774E-002	-1.25568E-003
	109	109	1.10075E+000	2.94309E-002	0.00000E+000	3.23961E-002	2.93657E-001	3.81267E-002	4.49762E+001	11	...........	6.36367E-002	-3.45722E-003	5.70891E-001	6.80135E-001	-3.04943E-002	-3.86197E-002	6.53923E-001	-4.23367E-002	1.87289E-003	-1.01749E-004	1.68018E-002	2.00170E-002	-8.97475E-004	-1.13661E-003	1.92456E-002	-1.24601E-003
	110	110	1.10067E+000	2.92776E-002	0.00000E+000	3.22250E-002	2.92133E-001	3.79938E-002	4.43786E+001	11	...........	6.34229E-002	-3.45306E-003	5.70841E-001	6.80137E-001	-3.05090E-002	-3.86079E-002	6.53868E-001	-4.21999E-002	1.85687E-003	-1.01097E-004	1.67129E-002	1.99128E-002	-8.93232E-004	-1.13035E-003	1.91437E-002	-1.23551E-003
	111	111	1.10068E+000	2.94247E-002	0.00000E+000	3.23872E-002	2.93596E-001	3.82236E-002	4.52637E+001	11	...........	6.38025E-002	-3.50611E-003	5.70887E-001	6.80183E-001	-3.04961E-002	-3.86200E-002	6.54011E-001	-4.21592E-002	1.87737E-003	-1.03166E-004	1.67982E-002	2.00142E-002	-8.97338E-004	-1.13638E-003	1.92441E-002	-1.24052E-003
	112	112	1.10075E+000	2.92586E-002	0.00000E+000	3.22064E-002	2.91943E-001	3.81773E-002	4.49188E+001	11	...........	6.37278E-002	-3.55514E-003	5.70936E-001	6.80189E-001	-3.04722E-002	-3.86494E-002	6.53905E-001	-4.21804E-002	1.86459E-003	-1.04018E-004	1.67048E-002	1.99014E-002	-8.91575E-004	-1.13083E-003	1.91324E-002	-1.23414E-003
	113	113	1.10067E+000	2.91006E-002	0.00000E+000	3.20303E-002	2.90373E-001	3.80811E-002	4.57007E+001	11	...........	6.35914E-002	-3.57653E-003	5.70915E-001	6.80092E-001	-3.04269E-002	-3.86753E-002	6.53909E-001	-4.22882E-002	1.85055E-003	-1.04079E-004	1.66140E-002	1.97911E-002	-8.85444E-004	-1.12548E-003	1.90292E-002	-1.23061E-003
	114	114	1.10068E+000	2.91955E-002	0.00000E+000	3.21350E-002	2.91319E-001	3.80844E-002	4.46713E+001	11	...........	6.35889E-002	-3.61806E-003	5.70894E-001	6.79986E-001	-3.04032E-002	-3.86762E-002	6.53972E-001	-4.23771E-002	1.85651E-003	-1.05631E-004	1.66675E-002	1.98525E-002	-8.87635E-004	-1.12917E-003	1.90930E-002	-1.23722E-003
	115	115	1.10075E+000	2.90723E-002	0.00000E+000	3.20012E-002	2.90092E-001	3.79985E-002	4.56613E+001	11	...........	6.34507E-002	-3.60347E-003	5.70816E-001	6.80052E-001	-3.03731E-002	-3.86579E-002	6.53828E-001	-4.23206E-002	1.84466E-003	-1.04761E-004	1.65950E-002	1.97707E-002	-8.83015E-004	-1.12388E-003	1.90083E-002	-1.23036E-003
	116	116	1.10067E+000	2.89198E-002	0.00000E+000	3.18312E-002	2.88575E-001	3.80493E-002	4.60167E+001	11	...........	6.35225E-002	-3.72486E-003	5.70958E-001	6.79955E-001	-3.03757E-002	-3.86497E-002	6.53771E-001	-4.22519E-002	1.83706E-003	-1.07722E-004	1.65120E-002	1.96641E-002	-8.78458E-004	-1.11774E-003	1.89069E-002	-1.22192E-003
	117	117	1.10068E+000	2.90398E-002	0.00000E+000	3.19636E-002	2.89771E-001	3.81437E-002	4.47057E+001	11	...........	6.36617E-002	-3.65028E-003	5.70904E-001	6.80002E-001	-3.03779E-002	-3.86397E-002	6.53875E-001	-4.23108E-002	1.84872E-003	-1.06003E-004	1.65789E-002	1.97471E-002	-8.82167E-004	-1.12209E-003	1.89884E-002	-1.22870E-003
	118	118	1.10074E+000	2.88857E-002	0.00000E+000	3.17958E-002	2.88239E-001	3.77898E-002	4.41736E+001	11	...........	6.30736E-002	-3.54792E-003	5.70773E-001	6.80064E-001	-3.03750E-002	-3.86406E-002	6.53818E-001	-4.23789E-002	1.82192E-003	-1.02484E-004	1.64872E-002	1.96441E-002	-8.77403E-004	-1.11616E-003	1.88860E-002	-1.22414E-003
	119	119	1.10068E+000	2.87173E-002	0.00000E+000	3.16085E-002	2.86567E-001	3.81488E-002	4.71626E+001	11	...........	6.36976E-002	-3.72250E-003	5.70807E-001	6.80176E-001	-3.03633E-002	-3.86308E-002	6.53803E-001	-4.24585E-002	1.82922E-003	-1.06900E-004	1.63920E-002	1.95328E-002	-8.71953E-004	-1.10937E-003	1.87755E-002	-1.21929E-003
	120	120	1.10068E+000	2.88575E-002	0.00000E+000	3.17629E-002	2.87959E-001	3.79823E-002	4.51035E+001	11	...........	6.33950E-002	-3.83431E-003	5.70936E-001	6.80405E-001	-3.03572E-002	-3.86254E-002	6.53890E-001	-4.24046E-002	1.82942E-003	-1.10649E-004	1.64758E-002	1.96348E-002	-8.76034E-004	-1.11463E-003	1.88696E-002	-1.22369E-003
	121	121	1.10074E+000	2.87266E-002	0.00000E+000	3.16206E-002	2.86658E-001	3.79049E-002	4.51338E+001	11	...........	6.32653E-002	-3.70972E-003	5.70920E-001	6.80709E-001	-3.03636E-002	-3.86154E-002	6.53927E-001	-4.23137E-002	1.81739E-003	-1.06568E-004	1.64006E-002	1.95544E-002	-8.72243E-004	-1.10929E-003	1.87851E-002	-1.21553E-003
	122	122	1.10068E+000	2.85314E-002	0.00000E+000	3.14038E-002	2.84723E-001	3.80391E-002	4.61195E+001	11	...........	6.35135E-002	-3.63875E-003	5.71014E-001	6.80657E-001	-3.03728E-002	-3.86087E-002	6.54050E-001	-4.22787E-002	1.81213E-003	-1.03819E-004	1.62918E-002	1.94201E-002	-8.66577E-004	-1.10156E-003	1.86609E-002	-1.20627E-003
	123	123	1.10068E+000	2.86228E-002	0.00000E+000	3.15046E-002	2.85631E-001	3.78301E-002	4.46478E+001	11	...........	6.31612E-002	-3.49833E-003	5.71042E-001	6.80547E-001	-3.03728E-002	-3.86254E-002	6.54046E-001	-4.22958E-002	1.80785E-003	-1.00132E-004	1.63449E-002	1.94792E-002	-8.69355E-004	-1.10557E-003	1.87206E-002	-1.21063E-003
	124	124	1.10074E+000	2.85401E-002	0.00000E+000	3.14153E-002	2.84808E-001	3.80237E-002	4.54136E+001	11	...........	6.34794E-002	-3.51028E-003	5.70935E-001	6.80608E-001	-3.03774E-002	-3.86129E-002	6.53875E-001	-4.21617E-002	1.81171E-003	-1.00184E-004	1.62945E-002	1.94246E-002	-8.66972E-004	-1.10201E-003	1.86616E-002	-1.20330E-003
	125	125	1.10068E+000	2.83584E-002	0.00000E+000	3.12135E-002	2.83001E-001	3.80072E-002	4.63902E+001	11	...........	6.34686E-002	-3.60069E-003	5.70852E-001	6.80477E-001	-3.03642E-002	-3.85924E-002	6.53736E-001	-4.20712E-002	1.79987E-003	-1.02110E-004	1.61885E-002	1.92972E-002	-8.61079E-004	-1.09442E-003	1.85389E-002	-1.19307E-003
	126	126	1.10068E+000	2.84613E-002	0.00000E+000	3.13268E-002	2.84023E-001	3.77706E-002	4.62002E+001	11	...........	6.30651E-002	-3.48458E-003	5.70820E-001	6.80302E-001	-3.03639E-002	-3.86267E-002	6.53666E-001	-4.21787E-002	1.79492E-003	-9.91759E-005	1.62463E-002	1.93623E-002	-8.64197E-004	-1.09937E-003	1.86042E-002	-1.20046E-003
	127	126.077	1.10143E+000	2.81461E-002	0.00000E+000	3.10010E-002	2.80883E-001	3.79250E-002	4.23623E+001	11	...........	6.33333E-002	-3.41848E-003	5.70806E-001	6.80402E-001	-3.00399E-002	-3.87065E-002	6.53795E-001	-4.21938E-002	1.78259E-003	-9.62168E-005	1.60660E-002	1.91507E-002	-8.45504E-004	-1.08944E-003	1.84018E-002	-1.18759E-003
STARTTIMEOFFSET	QUANT	751175.3	Start Time Offset (s)
