EXPLAIN
TAG	PWR800_CHARGE
TITLE	LABEL	PWR Charge	Test Identifier
DATE	LABEL	10/17/2022	Date
TIME	LABEL	19:04:11	Time
NOTES	NOTES	1	Notes...
	
PSTAT	PSTAT	REF3000-21114	Potentiostat
CAPACITY	QUANT	5.30000E-002	Capacity (A-hr)
CELLTYPE	SELECTOR	1	Cell Type
WORKINGCONNECTION	SELECTOR	0	Working Connection
MAXCHARGETIME	VARIABLEANDUNITS	7.20000E+003	s	2.00000E+000	hour(s)	Max Charge Time
CHARGEMODE	MULTIPARAM	0	1.00000E-001	Charge Mode	Constant Current	Amp(s)
CHARGECURRENT	QUANT	0.1	Charge Current (A)
VOLTAGEFINISH	TWOPARAM	T	2.50000E-002	7.20000E+003	Voltage Finish	I (A) <	Max Time(s)
SAMPLETIME	QUANT	1.00000E+000	Sample Period (s)
CHARGESTOPAT1	MULTIPARAM	2	1.10000E+000	Stop At 1	|Voltage| > Limit	V
CHARGESTOPAT2	MULTIPARAM	0	0.00000E+000	Stop At 2	None	N/A
AESELECTOR	AESELECTOR	0x1	T	Set Limits	AE Channels
AESBHCSELECTOR	TOGGLE	F	Save Both Half Cells
IRCOMP	TOGGLE	F	IR Measure
EOC	QUANT	0.2606232	Open Circuit (V)
SEQUENCER	TOGGLE	TRUE	Run as Sequence
PSTATMODEL	IQUANT	5	Pstat Model
PSTATSECTION	LABEL	REF3000-21114	Pstat Section
PSTATSERIALNO	LABEL	21114	Pstat Serial Number
CTRLMODE	IQUANT	0	Control Mode
ELECTROMETER	IQUANT	0	RE=0 or CS=1
IESTAB	IQUANT	0	I/E Stability
CASPEED	IQUANT	4	Control Amp Speed
CONVENTION	IQUANT	1	Current Convention
ICHRANGE	IQUANT	2	Ich Range
ICHRANGEMODE	TOGGLE	T	Ich Auto Range
ICHOFFSETENABLE	TOGGLE	F	Ich Offset Enable
ICHOFFSET	QUANT	0	Ich Offset (V)
ICHFILTER	IQUANT	1	Ich Filter
VCHRANGE	IQUANT	3	Vch Range
VCHRANGEMODE	TOGGLE	T	Vch Auto Range
VCHOFFSETENABLE	TOGGLE	F	Vch Offset Enable
VCHOFFSET	QUANT	0	Vch Offset (V)
VCHFILTER	IQUANT	1	Vch Filter
ACHRANGE	IQUANT	2	Ach Range
ACHOFFSETENABLE	TOGGLE	F	Ach Offset Enable
ACHOFFSET	QUANT	0	Ach Offset (V)
ACHFILTER	IQUANT	1	Ach Filter
IERANGELOWERLIMIT	IQUANT	9	I/E Range Lower Limit
IERANGEMODE	TOGGLE	F	I/E AutoRange
IERANGE	IQUANT	9	I/E Range
POSFEEDENABLE	TOGGLE	F	Positive Feedback IR Comp
POSFEEDRESISTANCE	QUANT	0	Positive Feedback Resistance (ohm)
ACHSELECT	IQUANT	1	Ach Select
SENSECABLEID	IQUANT	13	Sense Cable ID
PWRCABLEID	IQUANT	13	Power Cable ID
DCCALDATE	LABEL		DC Calibration Date
ACCALDATE	LABEL		AC Calibration Date
THERMOSELECT	IQUANT	1	Thermo Select
FRAMEWORKVERSION	LABEL	7.8.6	Framework Version
INSTRUMENTVERSION	LABEL	4.50	Instrument Version
COMPLIANCEVOLTAGE	IQUANT	0	Compliance Voltage
CURVE	TABLE	51
	Pt	T	Vf	Im	Vu	Pwr	Sig	Ach	Temp	IERange	Over	Vf1	Vf2	Vf3	Vf4	Vf5	Vf6	Vf7	Vf8	Pwr1	Pwr2	Pwr3	Pwr4	Pwr5	Pwr6	Pwr7	Pwr8
	#	s	V	A	V	W	V	V	deg C	#	bits	V	V	V	V	V	V	V	V	W	W	W	W	W	W	W	W
	0	1	5.58285E-001	9.98398E-002	0.00000E+000	5.57391E-002	9.94000E-001	3.72946E-002	3.94238E+001	11	...........	6.19007E-002	-5.23903E-003	5.97787E-001	5.42833E-001	-2.74743E-002	-3.86976E-002	6.95018E-001	-4.39461E-002	6.18015E-003	-5.23064E-004	5.96829E-002	5.41964E-002	-2.74303E-003	-3.86357E-003	6.93905E-002	-4.38757E-003
	1	2	8.04240E-001	9.98404E-002	0.00000E+000	8.02956E-002	9.94000E-001	3.80824E-002	4.27090E+001	11	...........	6.32343E-002	-5.16333E-003	5.97727E-001	5.42877E-001	-2.74479E-002	-3.87157E-002	6.94982E-001	-4.40401E-002	6.31334E-003	-5.15509E-004	5.96773E-002	5.42011E-002	-2.74041E-003	-3.86539E-003	6.93873E-002	-4.39698E-003
	2	2.14	1.06693E+000	9.98408E-002	0.00000E+000	1.06523E-001	9.94000E-001	3.90137E-002	4.55271E+001	11	...........	6.46756E-002	-5.26984E-003	5.97850E-001	5.42786E-001	-2.74633E-002	-3.87292E-002	6.94983E-001	-4.40020E-002	6.45726E-003	-5.26145E-004	5.96898E-002	5.41922E-002	-2.74196E-003	-3.86675E-003	6.93877E-002	-4.39319E-003
	3	3	1.10146E+000	6.43615E-002	0.00000E+000	7.08918E-002	6.41189E-001	3.80212E-002	4.64740E+001	11	...........	6.30987E-002	-5.23369E-003	5.97888E-001	5.42863E-001	-2.74764E-002	-3.86912E-002	6.94884E-001	-4.41804E-002	4.06112E-003	-3.36848E-004	3.84810E-002	3.49394E-002	-1.76842E-003	-2.49022E-003	4.47238E-002	-2.84352E-003
	4	4	1.10087E+000	4.64459E-002	0.00000E+000	5.11310E-002	4.63040E-001	3.81086E-002	4.66758E+001	11	...........	6.32518E-002	-5.18208E-003	5.97873E-001	5.42841E-001	-2.74847E-002	-3.86801E-002	6.94806E-001	-4.40647E-002	2.93779E-003	-2.40687E-004	2.77688E-002	2.52128E-002	-1.27655E-003	-1.79654E-003	3.22709E-002	-2.04663E-003
	5	5	1.10088E+000	4.09001E-002	0.00000E+000	4.50259E-002	4.07893E-001	3.81014E-002	4.57413E+001	11	...........	6.32599E-002	-5.24028E-003	5.97778E-001	5.42666E-001	-2.74762E-002	-3.86743E-002	6.94814E-001	-4.40493E-002	2.58733E-003	-2.14328E-004	2.44492E-002	2.21951E-002	-1.12378E-003	-1.58178E-003	2.84180E-002	-1.80162E-003
	6	6	1.10083E+000	3.77696E-002	0.00000E+000	4.15777E-002	3.76771E-001	3.80297E-002	4.61647E+001	11	...........	6.31186E-002	-5.17889E-003	5.97789E-001	5.42599E-001	-2.74806E-002	-3.86719E-002	6.94894E-001	-4.41651E-002	2.38396E-003	-1.95604E-004	2.25782E-002	2.04937E-002	-1.03793E-003	-1.46062E-003	2.62458E-002	-1.66810E-003
	7	7	1.10079E+000	3.60283E-002	0.00000E+000	3.96596E-002	3.59455E-001	3.80099E-002	4.59544E+001	11	...........	6.31056E-002	-5.18458E-003	5.97718E-001	5.42657E-001	-2.74550E-002	-3.86611E-002	6.94997E-001	-4.40697E-002	2.27359E-003	-1.86792E-004	2.15348E-002	1.95510E-002	-9.89157E-004	-1.39289E-003	2.50396E-002	-1.58776E-003
	8	8	1.10084E+000	3.46226E-002	0.00000E+000	3.81140E-002	3.45471E-001	3.78627E-002	4.38038E+001	11	...........	6.28603E-002	-5.22639E-003	5.97748E-001	5.42789E-001	-2.74814E-002	-3.86422E-002	6.95015E-001	-4.39586E-002	2.17638E-003	-1.80951E-004	2.06956E-002	1.87928E-002	-9.51476E-004	-1.33789E-003	2.40632E-002	-1.52196E-003
	9	9	1.10081E+000	3.34297E-002	0.00000E+000	3.67998E-002	3.33609E-001	3.80847E-002	4.57854E+001	11	...........	6.32331E-002	-5.22819E-003	5.97815E-001	5.42821E-001	-2.74987E-002	-3.86511E-002	6.94890E-001	-4.38926E-002	2.11386E-003	-1.74777E-004	1.99848E-002	1.81464E-002	-9.19275E-004	-1.29210E-003	2.32300E-002	-1.46732E-003
	10	10	1.10078E+000	3.27777E-002	0.00000E+000	3.60810E-002	3.27131E-001	3.81008E-002	4.47232E+001	11	...........	6.32546E-002	-5.18889E-003	5.97750E-001	5.42825E-001	-2.75142E-002	-3.86504E-002	6.94849E-001	-4.39326E-002	2.07334E-003	-1.70080E-004	1.95929E-002	1.77925E-002	-9.01851E-004	-1.26687E-003	2.27755E-002	-1.44001E-003
	11	11	1.10083E+000	3.21771E-002	0.00000E+000	3.54215E-002	3.21158E-001	3.79228E-002	4.46971E+001	11	...........	6.29689E-002	-5.04792E-003	5.97685E-001	5.42856E-001	-2.75489E-002	-3.86332E-002	6.94863E-001	-4.39872E-002	2.02616E-003	-1.62427E-004	1.92318E-002	1.74675E-002	-8.86443E-004	-1.24310E-003	2.23587E-002	-1.41538E-003
	12	12	1.10081E+000	3.14864E-002	0.00000E+000	3.46606E-002	3.14290E-001	3.79755E-002	4.46551E+001	11	...........	6.30496E-002	-5.16292E-003	5.97738E-001	5.42824E-001	-2.75442E-002	-3.86442E-002	6.94887E-001	-4.39674E-002	1.98520E-003	-1.62562E-004	1.88206E-002	1.70916E-002	-8.67267E-004	-1.21677E-003	2.18795E-002	-1.38437E-003
	13	13	1.10078E+000	3.12368E-002	0.00000E+000	3.43847E-002	3.11809E-001	3.79042E-002	4.32517E+001	11	...........	6.29118E-002	-5.16111E-003	5.97684E-001	5.42782E-001	-2.75526E-002	-3.86540E-002	6.94899E-001	-4.41193E-002	1.96516E-003	-1.61217E-004	1.86697E-002	1.69548E-002	-8.60656E-004	-1.20743E-003	2.17064E-002	-1.37815E-003
	14	14	1.10082E+000	3.09781E-002	0.00000E+000	3.41014E-002	3.09235E-001	3.79098E-002	4.39193E+001	11	...........	6.29135E-002	-5.08931E-003	5.97562E-001	5.42905E-001	-2.75628E-002	-3.86621E-002	6.94995E-001	-4.39792E-002	1.94894E-003	-1.57657E-004	1.85113E-002	1.68182E-002	-8.53841E-004	-1.19768E-003	2.15296E-002	-1.36239E-003
	15	15	1.10081E+000	3.05538E-002	0.00000E+000	3.36340E-002	3.05016E-001	3.80327E-002	4.48581E+001	11	...........	6.31585E-002	-5.17264E-003	5.97466E-001	5.42860E-001	-2.75900E-002	-3.86404E-002	6.94929E-001	-4.40014E-002	1.92973E-003	-1.58044E-004	1.82549E-002	1.65865E-002	-8.42980E-004	-1.18061E-003	2.12327E-002	-1.34441E-003
	16	16	1.10077E+000	3.04698E-002	0.00000E+000	3.35403E-002	3.04189E-001	3.78707E-002	4.32733E+001	11	...........	6.28858E-002	-5.10181E-003	5.97518E-001	5.42759E-001	-2.75843E-002	-3.86612E-002	6.94884E-001	-4.39682E-002	1.91612E-003	-1.55451E-004	1.82062E-002	1.65378E-002	-8.40488E-004	-1.17800E-003	2.11730E-002	-1.33970E-003
	17	17	1.10082E+000	3.03104E-002	0.00000E+000	3.33662E-002	3.02599E-001	3.79008E-002	4.36370E+001	11	...........	6.29360E-002	-5.11083E-003	5.97495E-001	5.42839E-001	-2.75594E-002	-3.86854E-002	6.94915E-001	-4.39729E-002	1.90761E-003	-1.54911E-004	1.81103E-002	1.64536E-002	-8.35337E-004	-1.17257E-003	2.10631E-002	-1.33283E-003
	18	18	1.10081E+000	2.99624E-002	0.00000E+000	3.29830E-002	2.99143E-001	3.77531E-002	4.26879E+001	11	...........	6.26854E-002	-5.06583E-003	5.97465E-001	5.42878E-001	-2.75603E-002	-3.86764E-002	6.94873E-001	-4.40019E-002	1.87820E-003	-1.51784E-004	1.79015E-002	1.62659E-002	-8.25771E-004	-1.15884E-003	2.08201E-002	-1.31840E-003
	19	19	1.10077E+000	2.99804E-002	0.00000E+000	3.30015E-002	2.99319E-001	3.80046E-002	4.37785E+001	11	...........	6.30872E-002	-5.19806E-003	5.97469E-001	5.42696E-001	-2.75529E-002	-3.86703E-002	6.94921E-001	-4.40086E-002	1.89138E-003	-1.55840E-004	1.79123E-002	1.62702E-002	-8.26046E-004	-1.15935E-003	2.08340E-002	-1.31939E-003
	20	20	1.10082E+000	2.98938E-002	0.00000E+000	3.29076E-002	2.98463E-001	3.77405E-002	4.40387E+001	11	...........	6.28583E-002	-5.02486E-003	5.97462E-001	5.42622E-001	-2.75672E-002	-3.86717E-002	6.94874E-001	-4.39508E-002	1.87908E-003	-1.50212E-004	1.78604E-002	1.62211E-002	-8.24090E-004	-1.15604E-003	2.07725E-002	-1.31386E-003
	21	21	1.10082E+000	2.95928E-002	0.00000E+000	3.25763E-002	2.95469E-001	3.76262E-002	4.42437E+001	11	...........	6.28275E-002	-5.05944E-003	5.97441E-001	5.42440E-001	-2.75808E-002	-3.86824E-002	6.94831E-001	-4.39650E-002	1.85924E-003	-1.49723E-004	1.76800E-002	1.60523E-002	-8.16195E-004	-1.14472E-003	2.05620E-002	-1.30105E-003
	22	22	1.10077E+000	2.96124E-002	0.00000E+000	3.25964E-002	2.95665E-001	3.75686E-002	4.42843E+001	11	...........	6.27110E-002	-5.13778E-003	5.97469E-001	5.42471E-001	-2.75922E-002	-3.86694E-002	6.95000E-001	-4.39622E-002	1.85702E-003	-1.52142E-004	1.76925E-002	1.60639E-002	-8.17072E-004	-1.14510E-003	2.05806E-002	-1.30183E-003
	23	23	1.10082E+000	2.95600E-002	0.00000E+000	3.25401E-002	2.95145E-001	3.76283E-002	4.30872E+001	11	...........	6.28014E-002	-5.05528E-003	5.97412E-001	5.42392E-001	-2.75887E-002	-3.86650E-002	6.95055E-001	-4.40064E-002	1.85641E-003	-1.49434E-004	1.76595E-002	1.60331E-002	-8.15524E-004	-1.14294E-003	2.05458E-002	-1.30083E-003
	24	24	1.10082E+000	2.93033E-002	0.00000E+000	3.22576E-002	2.92594E-001	3.75953E-002	4.34712E+001	11	...........	6.27694E-002	-5.08347E-003	5.97422E-001	5.42351E-001	-2.75639E-002	-3.86497E-002	6.94958E-001	-4.39543E-002	1.83935E-003	-1.48962E-004	1.75064E-002	1.58927E-002	-8.07713E-004	-1.13256E-003	2.03646E-002	-1.28801E-003
	25	25	1.10077E+000	2.93385E-002	0.00000E+000	3.22950E-002	2.92949E-001	3.75250E-002	4.41136E+001	11	...........	6.26583E-002	-5.16944E-003	5.97565E-001	5.42243E-001	-2.75596E-002	-3.86425E-002	6.94933E-001	-4.40604E-002	1.83830E-003	-1.51664E-004	1.75317E-002	1.59086E-002	-8.08558E-004	-1.13371E-003	2.03883E-002	-1.29267E-003
	26	26	1.10081E+000	2.92671E-002	0.00000E+000	3.22176E-002	2.92243E-001	3.75131E-002	4.33166E+001	11	...........	6.26262E-002	-5.21083E-003	5.97586E-001	5.42301E-001	-2.75675E-002	-3.86571E-002	6.94992E-001	-4.39822E-002	1.83289E-003	-1.52506E-004	1.74896E-002	1.58716E-002	-8.06822E-004	-1.13138E-003	2.03404E-002	-1.28723E-003
	27	27	1.10082E+000	2.90092E-002	0.00000E+000	3.19339E-002	2.89675E-001	3.74946E-002	4.38978E+001	11	...........	6.25860E-002	-5.16708E-003	5.97612E-001	5.42581E-001	-2.75704E-002	-3.86681E-002	6.95069E-001	-4.38933E-002	1.81557E-003	-1.49893E-004	1.73363E-002	1.57398E-002	-7.99796E-004	-1.12173E-003	2.01634E-002	-1.27331E-003
	28	28	1.10077E+000	2.90838E-002	0.00000E+000	3.20146E-002	2.90423E-001	3.76443E-002	4.32828E+001	11	...........	6.28428E-002	-5.16069E-003	5.97541E-001	5.42584E-001	-2.75775E-002	-3.86622E-002	6.94996E-001	-4.40436E-002	1.82771E-003	-1.50093E-004	1.73788E-002	1.57804E-002	-8.02059E-004	-1.12445E-003	2.02131E-002	-1.28096E-003
	29	29	1.10081E+000	2.90468E-002	0.00000E+000	3.19750E-002	2.90056E-001	3.73634E-002	4.35151E+001	11	...........	6.23710E-002	-5.21153E-003	5.97557E-001	5.42481E-001	-2.75785E-002	-3.86643E-002	6.94973E-001	-4.40304E-002	1.81168E-003	-1.51378E-004	1.73571E-002	1.57573E-002	-8.01066E-004	-1.12307E-003	2.01867E-002	-1.27894E-003
	30	30	1.10082E+000	2.87993E-002	0.00000E+000	3.17029E-002	2.87593E-001	3.75518E-002	4.38946E+001	11	...........	6.26796E-002	-5.29944E-003	5.97645E-001	5.42468E-001	-2.75496E-002	-3.86700E-002	6.94927E-001	-4.39861E-002	1.80513E-003	-1.52620E-004	1.72117E-002	1.56227E-002	-7.93408E-004	-1.11367E-003	2.00134E-002	-1.26677E-003
	31	31	1.10077E+000	2.88262E-002	0.00000E+000	3.17310E-002	2.87864E-001	3.72754E-002	4.32318E+001	11	...........	6.22228E-002	-5.24333E-003	5.97591E-001	5.42516E-001	-2.75231E-002	-3.86679E-002	6.94940E-001	-4.40050E-002	1.79365E-003	-1.51146E-004	1.72263E-002	1.56387E-002	-7.93386E-004	-1.11465E-003	2.00325E-002	-1.26850E-003
	32	32	1.10081E+000	2.88176E-002	0.00000E+000	3.17226E-002	2.87776E-001	3.75143E-002	4.31163E+001	11	...........	6.26222E-002	-5.22389E-003	5.97692E-001	5.42598E-001	-2.74864E-002	-3.86604E-002	6.94864E-001	-4.39642E-002	1.80462E-003	-1.50540E-004	1.72241E-002	1.56364E-002	-7.92092E-004	-1.11410E-003	2.00243E-002	-1.26694E-003
	33	33	1.10083E+000	2.85872E-002	0.00000E+000	3.14696E-002	2.85482E-001	3.75044E-002	4.42200E+001	11	...........	6.26019E-002	-5.28097E-003	5.97664E-001	5.42514E-001	-2.74800E-002	-3.86733E-002	6.94784E-001	-4.40176E-002	1.78962E-003	-1.50968E-004	1.70856E-002	1.55090E-002	-7.85577E-004	-1.10556E-003	1.98619E-002	-1.25834E-003
	34	34	1.10077E+000	2.86225E-002	0.00000E+000	3.15067E-002	2.85832E-001	3.73577E-002	4.38791E+001	11	...........	6.23633E-002	-5.24375E-003	5.97613E-001	5.42497E-001	-2.74971E-002	-3.86882E-002	6.94892E-001	-4.39903E-002	1.78500E-003	-1.50089E-004	1.71052E-002	1.55276E-002	-7.87036E-004	-1.10735E-003	1.98896E-002	-1.25911E-003
	35	35	1.10081E+000	2.86186E-002	0.00000E+000	3.15035E-002	2.85795E-001	3.75263E-002	4.33193E+001	11	...........	6.26454E-002	-5.23528E-003	5.97529E-001	5.42427E-001	-2.74978E-002	-3.87007E-002	6.94975E-001	-4.40351E-002	1.79282E-003	-1.49826E-004	1.71004E-002	1.55235E-002	-7.86947E-004	-1.10756E-003	1.98892E-002	-1.26022E-003
	36	36	1.10083E+000	2.83533E-002	0.00000E+000	3.12121E-002	2.83157E-001	3.73357E-002	4.28448E+001	11	...........	6.23222E-002	-5.17833E-003	5.97452E-001	5.42269E-001	-2.75029E-002	-3.86813E-002	6.95043E-001	-4.40643E-002	1.76704E-003	-1.46823E-004	1.69397E-002	1.53751E-002	-7.79799E-004	-1.09674E-003	1.97068E-002	-1.24937E-003
	37	37	1.10077E+000	2.84195E-002	0.00000E+000	3.12833E-002	2.83818E-001	3.73193E-002	4.27743E+001	11	...........	6.22981E-002	-5.20403E-003	5.97475E-001	5.42271E-001	-2.74890E-002	-3.86565E-002	6.94983E-001	-4.41571E-002	1.77048E-003	-1.47896E-004	1.69800E-002	1.54111E-002	-7.81225E-004	-1.09860E-003	1.97511E-002	-1.25492E-003
	38	38	1.10080E+000	2.84201E-002	0.00000E+000	3.12849E-002	2.83823E-001	3.75386E-002	4.43881E+001	11	...........	6.26732E-002	-5.23806E-003	5.97380E-001	5.42237E-001	-2.74799E-002	-3.86586E-002	6.94995E-001	-4.42347E-002	1.78118E-003	-1.48866E-004	1.69776E-002	1.54104E-002	-7.80979E-004	-1.09868E-003	1.97518E-002	-1.25715E-003
	39	39	1.10083E+000	2.81561E-002	0.00000E+000	3.09951E-002	2.81198E-001	3.72837E-002	4.32425E+001	11	...........	6.22446E-002	-5.14597E-003	5.97234E-001	5.42286E-001	-2.75004E-002	-3.86758E-002	6.95096E-001	-4.41872E-002	1.75257E-003	-1.44891E-004	1.68158E-002	1.52687E-002	-7.74305E-004	-1.08896E-003	1.95712E-002	-1.24414E-003
	40	40	1.10077E+000	2.82111E-002	0.00000E+000	3.10539E-002	2.81742E-001	3.73577E-002	4.38308E+001	11	...........	6.23606E-002	-5.20847E-003	5.97182E-001	5.42276E-001	-2.75142E-002	-3.86986E-002	6.95051E-001	-4.42418E-002	1.75926E-003	-1.46937E-004	1.68472E-002	1.52982E-002	-7.76205E-004	-1.09173E-003	1.96082E-002	-1.24811E-003
	41	41	1.10080E+000	2.82302E-002	0.00000E+000	3.10759E-002	2.81934E-001	3.74126E-002	4.30844E+001	11	...........	6.24612E-002	-5.14153E-003	5.97133E-001	5.42289E-001	-2.75281E-002	-3.86986E-002	6.94962E-001	-4.42053E-002	1.76329E-003	-1.45146E-004	1.68572E-002	1.53089E-002	-7.77123E-004	-1.09247E-003	1.96189E-002	-1.24792E-003
	42	42	1.10083E+000	2.79825E-002	0.00000E+000	3.08041E-002	2.79471E-001	3.71737E-002	4.34940E+001	11	...........	6.20587E-002	-5.18667E-003	5.97066E-001	5.42409E-001	-2.75308E-002	-3.87031E-002	6.95053E-001	-4.41201E-002	1.73656E-003	-1.45136E-004	1.67074E-002	1.51780E-002	-7.70382E-004	-1.08301E-003	1.94493E-002	-1.23459E-003
	43	43	1.10077E+000	2.80148E-002	0.00000E+000	3.08378E-002	2.79791E-001	3.73935E-002	4.34590E+001	11	...........	6.24250E-002	-5.21264E-003	5.97132E-001	5.42370E-001	-2.75453E-002	-3.87135E-002	6.95092E-001	-4.41836E-002	1.74882E-003	-1.46031E-004	1.67285E-002	1.51944E-002	-7.71675E-004	-1.08455E-003	1.94729E-002	-1.23779E-003
	44	44	1.10080E+000	2.80474E-002	0.00000E+000	3.08746E-002	2.80114E-001	3.73423E-002	4.42502E+001	11	...........	6.23294E-002	-5.26472E-003	5.97047E-001	5.42325E-001	-2.75360E-002	-3.87067E-002	6.95109E-001	-4.41964E-002	1.74818E-003	-1.47662E-004	1.67456E-002	1.52108E-002	-7.72313E-004	-1.08562E-003	1.94960E-002	-1.23959E-003
	45	45	1.10083E+000	2.78053E-002	0.00000E+000	3.06090E-002	2.77707E-001	3.71848E-002	4.32328E+001	11	...........	6.20767E-002	-5.31750E-003	5.96938E-001	5.42374E-001	-2.75328E-002	-3.87294E-002	6.94959E-001	-4.42064E-002	1.72606E-003	-1.47855E-004	1.65980E-002	1.50809E-002	-7.65556E-004	-1.07688E-003	1.93235E-002	-1.22917E-003
	46	46	1.10077E+000	2.78101E-002	0.00000E+000	3.06125E-002	2.77755E-001	3.72537E-002	4.25642E+001	11	...........	6.21893E-002	-5.25917E-003	5.96917E-001	5.42479E-001	-2.75165E-002	-3.87312E-002	6.94948E-001	-4.41824E-002	1.72949E-003	-1.46258E-004	1.66003E-002	1.50864E-002	-7.65237E-004	-1.07712E-003	1.93266E-002	-1.22872E-003
	47	47	1.10080E+000	2.78317E-002	0.00000E+000	3.06370E-002	2.77969E-001	3.72157E-002	4.43450E+001	11	...........	6.21265E-002	-5.19708E-003	5.96981E-001	5.42633E-001	-2.75187E-002	-3.87621E-002	6.94971E-001	-4.40821E-002	1.72908E-003	-1.44643E-004	1.66150E-002	1.51024E-002	-7.65893E-004	-1.07881E-003	1.93422E-002	-1.22688E-003
	48	48	1.10084E+000	2.76196E-002	0.00000E+000	3.04047E-002	2.75859E-001	3.73292E-002	4.38462E+001	11	...........	6.23253E-002	-5.27278E-003	5.96961E-001	5.42737E-001	-2.75387E-002	-3.87690E-002	6.95069E-001	-4.41171E-002	1.72140E-003	-1.45632E-004	1.64878E-002	1.49902E-002	-7.60610E-004	-1.07079E-003	1.91975E-002	-1.21850E-003
	49	49	1.10077E+000	2.76600E-002	0.00000E+000	3.04472E-002	2.76261E-001	3.72127E-002	4.38034E+001	11	...........	6.21381E-002	-5.29111E-003	5.97021E-001	5.42728E-001	-2.75518E-002	-3.87569E-002	6.95067E-001	-4.41026E-002	1.71874E-003	-1.46352E-004	1.65136E-002	1.50118E-002	-7.62082E-004	-1.07202E-003	1.92255E-002	-1.21988E-003
	50	49.1083	1.10114E+000	2.79165E-002	0.00000E+000	3.07400E-002	2.78812E-001	3.72300E-002	4.37813E+001	11	...........	6.21308E-002	-5.33590E-003	5.97114E-001	5.42728E-001	-2.77000E-002	-3.87038E-002	6.94887E-001	-4.41962E-002	1.73447E-003	-1.48959E-004	1.66693E-002	1.51511E-002	-7.73286E-004	-1.08047E-003	1.93988E-002	-1.23380E-003
STARTTIMEOFFSET	QUANT	946347.8	Start Time Offset (s)
