EXPLAIN
TAG	PWR800_CHARGE
TITLE	LABEL	PWR Charge	Test Identifier
DATE	LABEL	10/15/2022	Date
TIME	LABEL	6:15:43	Time
NOTES	NOTES	1	Notes...
	
PSTAT	PSTAT	REF3000-21114	Potentiostat
CAPACITY	QUANT	5.30000E-002	Capacity (A-hr)
CELLTYPE	SELECTOR	1	Cell Type
WORKINGCONNECTION	SELECTOR	0	Working Connection
MAXCHARGETIME	VARIABLEANDUNITS	7.20000E+003	s	2.00000E+000	hour(s)	Max Charge Time
CHARGEMODE	MULTIPARAM	0	1.00000E-001	Charge Mode	Constant Current	Amp(s)
CHARGECURRENT	QUANT	0.1	Charge Current (A)
VOLTAGEFINISH	TWOPARAM	T	2.50000E-002	7.20000E+003	Voltage Finish	I (A) <	Max Time(s)
SAMPLETIME	QUANT	1.00000E+000	Sample Period (s)
CHARGESTOPAT1	MULTIPARAM	2	1.10000E+000	Stop At 1	|Voltage| > Limit	V
CHARGESTOPAT2	MULTIPARAM	0	0.00000E+000	Stop At 2	None	N/A
AESELECTOR	AESELECTOR	0x1	T	Set Limits	AE Channels
AESBHCSELECTOR	TOGGLE	F	Save Both Half Cells
IRCOMP	TOGGLE	F	IR Measure
EOC	QUANT	0.2738509	Open Circuit (V)
SEQUENCER	TOGGLE	TRUE	Run as Sequence
PSTATMODEL	IQUANT	5	Pstat Model
PSTATSECTION	LABEL	REF3000-21114	Pstat Section
PSTATSERIALNO	LABEL	21114	Pstat Serial Number
CTRLMODE	IQUANT	0	Control Mode
ELECTROMETER	IQUANT	0	RE=0 or CS=1
IESTAB	IQUANT	0	I/E Stability
CASPEED	IQUANT	4	Control Amp Speed
CONVENTION	IQUANT	1	Current Convention
ICHRANGE	IQUANT	2	Ich Range
ICHRANGEMODE	TOGGLE	T	Ich Auto Range
ICHOFFSETENABLE	TOGGLE	F	Ich Offset Enable
ICHOFFSET	QUANT	0	Ich Offset (V)
ICHFILTER	IQUANT	1	Ich Filter
VCHRANGE	IQUANT	3	Vch Range
VCHRANGEMODE	TOGGLE	T	Vch Auto Range
VCHOFFSETENABLE	TOGGLE	F	Vch Offset Enable
VCHOFFSET	QUANT	0	Vch Offset (V)
VCHFILTER	IQUANT	1	Vch Filter
ACHRANGE	IQUANT	2	Ach Range
ACHOFFSETENABLE	TOGGLE	F	Ach Offset Enable
ACHOFFSET	QUANT	0	Ach Offset (V)
ACHFILTER	IQUANT	1	Ach Filter
IERANGELOWERLIMIT	IQUANT	9	I/E Range Lower Limit
IERANGEMODE	TOGGLE	F	I/E AutoRange
IERANGE	IQUANT	9	I/E Range
POSFEEDENABLE	TOGGLE	F	Positive Feedback IR Comp
POSFEEDRESISTANCE	QUANT	0	Positive Feedback Resistance (ohm)
ACHSELECT	IQUANT	1	Ach Select
SENSECABLEID	IQUANT	13	Sense Cable ID
PWRCABLEID	IQUANT	13	Power Cable ID
DCCALDATE	LABEL		DC Calibration Date
ACCALDATE	LABEL		AC Calibration Date
THERMOSELECT	IQUANT	1	Thermo Select
FRAMEWORKVERSION	LABEL	7.8.6	Framework Version
INSTRUMENTVERSION	LABEL	4.50	Instrument Version
COMPLIANCEVOLTAGE	IQUANT	0	Compliance Voltage
CURVE	TABLE	159
	Pt	T	Vf	Im	Vu	Pwr	Sig	Ach	Temp	IERange	Over	Vf1	Vf2	Vf3	Vf4	Vf5	Vf6	Vf7	Vf8	Pwr1	Pwr2	Pwr3	Pwr4	Pwr5	Pwr6	Pwr7	Pwr8
	#	s	V	A	V	W	V	V	deg C	#	bits	V	V	V	V	V	V	V	V	W	W	W	W	W	W	W	W
	0	1	5.49790E-001	9.98643E-002	0.00000E+000	5.49044E-002	9.94000E-001	4.05289E-002	4.24248E+001	11	...........	6.73311E-002	-4.52861E-003	5.91620E-001	5.94690E-001	-2.84326E-002	-3.82011E-002	6.84572E-001	-4.29253E-002	6.72398E-003	-4.52247E-004	5.90817E-002	5.93883E-002	-2.83941E-003	-3.81493E-003	6.83643E-002	-4.28670E-003
	1	2	7.14108E-001	9.98653E-002	0.00000E+000	7.13146E-002	9.94000E-001	4.06097E-002	4.26626E+001	11	...........	6.74576E-002	-4.61181E-003	5.91629E-001	5.94456E-001	-2.84231E-002	-3.82079E-002	6.84763E-001	-4.28271E-002	6.73668E-003	-4.60559E-004	5.90832E-002	5.93656E-002	-2.83848E-003	-3.81565E-003	6.83841E-002	-4.27694E-003
	2	2.58667	9.67532E-001	9.98655E-002	0.00000E+000	9.66230E-002	9.94000E-001	4.06486E-002	4.57831E+001	11	...........	6.74785E-002	-4.68300E-003	5.91636E-001	5.94353E-001	-2.84162E-002	-3.81723E-002	6.84760E-001	-4.28253E-002	6.73877E-003	-4.67670E-004	5.90840E-002	5.93554E-002	-2.83780E-003	-3.81210E-003	6.83839E-002	-4.27677E-003
	3	3	1.10097E+000	7.63298E-002	0.00000E+000	8.40368E-002	7.59973E-001	4.13986E-002	5.00728E+001	11	...........	6.87655E-002	-4.79032E-003	5.91792E-001	5.94302E-001	-2.83948E-002	-3.81831E-002	6.84830E-001	-4.29677E-002	5.24885E-003	-3.65644E-004	4.51713E-002	4.53630E-002	-2.16737E-003	-2.91451E-003	5.22729E-002	-3.27972E-003
	4	4	1.10038E+000	5.71485E-002	0.00000E+000	6.28849E-002	5.69241E-001	4.09951E-002	5.06752E+001	11	...........	6.80733E-002	-4.82694E-003	5.91843E-001	5.94329E-001	-2.84161E-002	-3.81932E-002	6.84789E-001	-4.29346E-002	3.89029E-003	-2.75853E-004	3.38229E-002	3.39651E-002	-1.62394E-003	-2.18269E-003	3.91347E-002	-2.45365E-003
	5	5	1.10013E+000	4.95086E-002	0.00000E+000	5.44659E-002	4.93278E-001	4.09092E-002	5.09906E+001	11	...........	6.79399E-002	-4.66542E-003	5.92096E-001	5.94453E-001	-2.84215E-002	-3.82085E-002	6.84786E-001	-4.29182E-002	3.36361E-003	-2.30978E-004	2.93138E-002	2.94305E-002	-1.40711E-003	-1.89165E-003	3.39028E-002	-2.12482E-003
	6	6	1.10016E+000	4.64456E-002	0.00000E+000	5.10977E-002	4.62826E-001	4.07750E-002	4.80432E+001	11	...........	6.77410E-002	-4.64306E-003	5.91980E-001	5.94450E-001	-2.84321E-002	-3.82157E-002	6.84756E-001	-4.29235E-002	3.14627E-003	-2.15649E-004	2.74948E-002	2.76096E-002	-1.32054E-003	-1.77495E-003	3.18039E-002	-1.99360E-003
	7	7	1.10025E+000	4.43180E-002	0.00000E+000	4.87608E-002	4.41669E-001	4.08765E-002	4.80114E+001	11	...........	6.79137E-002	-4.49958E-003	5.92116E-001	5.94322E-001	-2.84215E-002	-3.82103E-002	6.84852E-001	-4.29385E-002	3.00980E-003	-1.99412E-004	2.62414E-002	2.63391E-002	-1.25959E-003	-1.69340E-003	3.03513E-002	-1.90295E-003
	8	8	1.10009E+000	4.32005E-002	0.00000E+000	4.75247E-002	4.30556E-001	4.07831E-002	4.95061E+001	11	...........	6.77278E-002	-4.49167E-003	5.92063E-001	5.94286E-001	-2.84014E-002	-3.81899E-002	6.84636E-001	-4.29385E-002	2.92588E-003	-1.94042E-004	2.55774E-002	2.56735E-002	-1.22696E-003	-1.64982E-003	2.95767E-002	-1.85496E-003
	9	9	1.10014E+000	4.26161E-002	0.00000E+000	4.68838E-002	4.24750E-001	4.09423E-002	4.85586E+001	11	...........	6.80042E-002	-4.58417E-003	5.92110E-001	5.94287E-001	-2.84208E-002	-3.81668E-002	6.84656E-001	-4.27932E-002	2.89807E-003	-1.95359E-004	2.52334E-002	2.53262E-002	-1.21118E-003	-1.62652E-003	2.91773E-002	-1.82368E-003
	10	10	1.10023E+000	4.17813E-002	0.00000E+000	4.59691E-002	4.16450E-001	4.08104E-002	4.82255E+001	11	...........	6.77862E-002	-4.61375E-003	5.91989E-001	5.94297E-001	-2.83967E-002	-3.82000E-002	6.84631E-001	-4.28392E-002	2.83220E-003	-1.92769E-004	2.47341E-002	2.48305E-002	-1.18645E-003	-1.59605E-003	2.86048E-002	-1.78988E-003
	11	11	1.10009E+000	4.13155E-002	0.00000E+000	4.54508E-002	4.11818E-001	4.06275E-002	4.81377E+001	11	...........	6.74580E-002	-4.58708E-003	5.91835E-001	5.94268E-001	-2.83753E-002	-3.82342E-002	6.84644E-001	-4.29650E-002	2.78706E-003	-1.89518E-004	2.44520E-002	2.45525E-002	-1.17234E-003	-1.57966E-003	2.82864E-002	-1.77512E-003
	12	12	1.10014E+000	4.12373E-002	0.00000E+000	4.53667E-002	4.11041E-001	4.10167E-002	4.85737E+001	11	...........	6.81253E-002	-4.64736E-003	5.91888E-001	5.94298E-001	-2.83618E-002	-3.82237E-002	6.84704E-001	-4.30517E-002	2.80930E-003	-1.91644E-004	2.44078E-002	2.45072E-002	-1.16956E-003	-1.57624E-003	2.82353E-002	-1.77533E-003
	13	13	1.10023E+000	4.06814E-002	0.00000E+000	4.47588E-002	4.05509E-001	4.04159E-002	4.68055E+001	11	...........	6.71186E-002	-4.52736E-003	5.91867E-001	5.94292E-001	-2.83692E-002	-3.82007E-002	6.84806E-001	-4.29069E-002	2.73048E-003	-1.84179E-004	2.40780E-002	2.41766E-002	-1.15410E-003	-1.55406E-003	2.78589E-002	-1.74551E-003
	14	14	1.10010E+000	4.04283E-002	0.00000E+000	4.44751E-002	4.02995E-001	4.10086E-002	4.77561E+001	11	...........	6.81086E-002	-4.51569E-003	5.91933E-001	5.94181E-001	-2.83993E-002	-3.81989E-002	6.84945E-001	-4.30407E-002	2.75352E-003	-1.82562E-004	2.39309E-002	2.40218E-002	-1.14814E-003	-1.54432E-003	2.76912E-002	-1.74006E-003
	15	15	1.10013E+000	4.04438E-002	0.00000E+000	4.44935E-002	4.03151E-001	4.06374E-002	4.89571E+001	11	...........	6.74919E-002	-4.50667E-003	5.92057E-001	5.94138E-001	-2.84290E-002	-3.82024E-002	6.84912E-001	-4.30246E-002	2.72963E-003	-1.82267E-004	2.39450E-002	2.40292E-002	-1.14978E-003	-1.54505E-003	2.77004E-002	-1.74008E-003
	16	16	1.10023E+000	4.00639E-002	0.00000E+000	4.40793E-002	3.99376E-001	4.07392E-002	4.87236E+001	11	...........	6.76782E-002	-4.57278E-003	5.92116E-001	5.94091E-001	-2.84526E-002	-3.81862E-002	6.84948E-001	-4.30311E-002	2.71145E-003	-1.83203E-004	2.37225E-002	2.38016E-002	-1.13992E-003	-1.52989E-003	2.74417E-002	-1.72399E-003
	17	17	1.10010E+000	3.98250E-002	0.00000E+000	4.38115E-002	3.96997E-001	4.05638E-002	4.79381E+001	11	...........	6.73806E-002	-4.54083E-003	5.92053E-001	5.94132E-001	-2.84579E-002	-3.81706E-002	6.84906E-001	-4.30299E-002	2.68343E-003	-1.80839E-004	2.35785E-002	2.36613E-002	-1.13334E-003	-1.52014E-003	2.72764E-002	-1.71366E-003
	18	18	1.10013E+000	3.99209E-002	0.00000E+000	4.39183E-002	3.97950E-001	4.07693E-002	4.71022E+001	11	...........	6.77200E-002	-4.46861E-003	5.92039E-001	5.94063E-001	-2.84314E-002	-3.81644E-002	6.84887E-001	-4.30369E-002	2.70344E-003	-1.78391E-004	2.36347E-002	2.37155E-002	-1.13501E-003	-1.52356E-003	2.73413E-002	-1.71807E-003
	19	19	1.10022E+000	3.96392E-002	0.00000E+000	4.36119E-002	3.95151E-001	4.05602E-002	4.82333E+001	11	...........	6.73832E-002	-4.41500E-003	5.91963E-001	5.94040E-001	-2.84278E-002	-3.81829E-002	6.85019E-001	-4.30411E-002	2.67102E-003	-1.75007E-004	2.34649E-002	2.35473E-002	-1.12685E-003	-1.51354E-003	2.71536E-002	-1.70612E-003
	20	20	1.10010E+000	3.93614E-002	0.00000E+000	4.33014E-002	3.92393E-001	4.03524E-002	4.76118E+001	11	...........	6.72432E-002	-4.49653E-003	5.92131E-001	5.94111E-001	-2.84354E-002	-3.81726E-002	6.84982E-001	-4.31176E-002	2.64678E-003	-1.76989E-004	2.33071E-002	2.33850E-002	-1.11926E-003	-1.50253E-003	2.69618E-002	-1.69717E-003
	21	21	1.10013E+000	3.95432E-002	0.00000E+000	4.35027E-002	3.94203E-001	4.05129E-002	4.89158E+001	11	...........	6.76310E-002	-4.50347E-003	5.92117E-001	5.94306E-001	-2.84412E-002	-3.81311E-002	6.85035E-001	-4.31781E-002	2.67435E-003	-1.78082E-004	2.34142E-002	2.35008E-002	-1.12466E-003	-1.50783E-003	2.70885E-002	-1.70740E-003
	22	22	1.10022E+000	3.92080E-002	0.00000E+000	4.31375E-002	3.90868E-001	4.03142E-002	4.88729E+001	11	...........	6.73090E-002	-4.49486E-003	5.92194E-001	5.94476E-001	-2.84246E-002	-3.81292E-002	6.85081E-001	-4.31389E-002	2.63905E-003	-1.76235E-004	2.32188E-002	2.33082E-002	-1.11447E-003	-1.49497E-003	2.68607E-002	-1.69139E-003
	23	23	1.10010E+000	3.89607E-002	0.00000E+000	4.28608E-002	3.88413E-001	4.01539E-002	4.70351E+001	11	...........	6.70336E-002	-4.42889E-003	5.92134E-001	5.94626E-001	-2.84428E-002	-3.81511E-002	6.85039E-001	-4.31408E-002	2.61168E-003	-1.72553E-004	2.30700E-002	2.31671E-002	-1.10815E-003	-1.48639E-003	2.66896E-002	-1.68080E-003
	24	24	1.10013E+000	3.90886E-002	0.00000E+000	4.30027E-002	3.89679E-001	4.03046E-002	4.58116E+001	11	...........	6.72917E-002	-4.43083E-003	5.92075E-001	5.94741E-001	-2.84260E-002	-3.81489E-002	6.85000E-001	-4.30743E-002	2.63034E-003	-1.73195E-004	2.31434E-002	2.32476E-002	-1.11113E-003	-1.49119E-003	2.67757E-002	-1.68372E-003
	25	25	1.10022E+000	3.88991E-002	0.00000E+000	4.27975E-002	3.87798E-001	4.03963E-002	4.90680E+001	11	...........	6.74529E-002	-4.44750E-003	5.92113E-001	5.94711E-001	-2.84303E-002	-3.81250E-002	6.84946E-001	-4.31069E-002	2.62386E-003	-1.73004E-004	2.30327E-002	2.31338E-002	-1.10591E-003	-1.48303E-003	2.66438E-002	-1.67682E-003
	26	26	1.10011E+000	3.86498E-002	0.00000E+000	4.25188E-002	3.85317E-001	4.02688E-002	4.76626E+001	11	...........	6.72346E-002	-4.46611E-003	5.92111E-001	5.94614E-001	-2.84137E-002	-3.81514E-002	6.84955E-001	-4.31132E-002	2.59860E-003	-1.72614E-004	2.28850E-002	2.29817E-002	-1.09819E-003	-1.47454E-003	2.64734E-002	-1.66632E-003
	27	27	1.10013E+000	3.87736E-002	0.00000E+000	4.26559E-002	3.86550E-001	4.00129E-002	4.80063E+001	11	...........	6.68182E-002	-4.51333E-003	5.91986E-001	5.94581E-001	-2.84289E-002	-3.81635E-002	6.84808E-001	-4.31468E-002	2.59078E-003	-1.74998E-004	2.29534E-002	2.30540E-002	-1.10229E-003	-1.47973E-003	2.65524E-002	-1.67295E-003
	28	28	1.10022E+000	3.85640E-002	0.00000E+000	4.24288E-002	3.84466E-001	4.03798E-002	4.91939E+001	11	...........	6.74132E-002	-4.53833E-003	5.92034E-001	5.94471E-001	-2.84258E-002	-3.81614E-002	6.84810E-001	-4.31186E-002	2.59972E-003	-1.75016E-004	2.28312E-002	2.29252E-002	-1.09621E-003	-1.47166E-003	2.64090E-002	-1.66283E-003
	29	29	1.10011E+000	3.83165E-002	0.00000E+000	4.21523E-002	3.82009E-001	4.01287E-002	4.64097E+001	11	...........	6.70003E-002	-4.51667E-003	5.91952E-001	5.94484E-001	-2.84153E-002	-3.81593E-002	6.84921E-001	-4.30601E-002	2.56721E-003	-1.73063E-004	2.26815E-002	2.27785E-002	-1.08877E-003	-1.46213E-003	2.62438E-002	-1.64991E-003
	30	30	1.10013E+000	3.84759E-002	0.00000E+000	4.23284E-002	3.83592E-001	4.01368E-002	4.73461E+001	11	...........	6.70169E-002	-4.46625E-003	5.91922E-001	5.94489E-001	-2.84343E-002	-3.81751E-002	6.85081E-001	-4.30106E-002	2.57854E-003	-1.71843E-004	2.27747E-002	2.28735E-002	-1.09403E-003	-1.46882E-003	2.63591E-002	-1.65487E-003
	31	31	1.10021E+000	3.82891E-002	0.00000E+000	4.21262E-002	3.81731E-001	4.01915E-002	4.91697E+001	11	...........	6.71174E-002	-4.53347E-003	5.91863E-001	5.94483E-001	-2.84303E-002	-3.81611E-002	6.85143E-001	-4.30361E-002	2.56986E-003	-1.73582E-004	2.26619E-002	2.27622E-002	-1.08857E-003	-1.46115E-003	2.62335E-002	-1.64781E-003
	32	32	1.10011E+000	3.79910E-002	0.00000E+000	4.17944E-002	3.78772E-001	4.01171E-002	4.73387E+001	11	...........	6.69742E-002	-4.60083E-003	5.91953E-001	5.94449E-001	-2.84296E-002	-3.81399E-002	6.85074E-001	-4.29828E-002	2.54441E-003	-1.74790E-004	2.24889E-002	2.25837E-002	-1.08007E-003	-1.44897E-003	2.60266E-002	-1.63296E-003
	33	33	1.10012E+000	3.81688E-002	0.00000E+000	4.19904E-002	3.80545E-001	4.00661E-002	4.84838E+001	11	...........	6.69089E-002	-4.45500E-003	5.91914E-001	5.94346E-001	-2.84432E-002	-3.81561E-002	6.85011E-001	-4.30453E-002	2.55383E-003	-1.70042E-004	2.25926E-002	2.26855E-002	-1.08564E-003	-1.45637E-003	2.61460E-002	-1.64299E-003
	34	34	1.10021E+000	3.79631E-002	0.00000E+000	4.17675E-002	3.78498E-001	4.01212E-002	4.78214E+001	11	...........	6.69978E-002	-4.41681E-003	5.91826E-001	5.94298E-001	-2.84417E-002	-3.81718E-002	6.85043E-001	-4.30972E-002	2.54344E-003	-1.67676E-004	2.24675E-002	2.25614E-002	-1.07973E-003	-1.44912E-003	2.60063E-002	-1.63610E-003
	35	35	1.10011E+000	3.77033E-002	0.00000E+000	4.14779E-002	3.75913E-001	3.97519E-002	4.75051E+001	11	...........	6.63671E-002	-4.36097E-003	5.91637E-001	5.94323E-001	-2.84512E-002	-3.81378E-002	6.85098E-001	-4.31551E-002	2.50226E-003	-1.64423E-004	2.23066E-002	2.24079E-002	-1.07270E-003	-1.43792E-003	2.58304E-002	-1.62709E-003
	36	36	1.10013E+000	3.78974E-002	0.00000E+000	4.16918E-002	3.77839E-001	4.02557E-002	4.84543E+001	11	...........	6.72185E-002	-4.50861E-003	5.91535E-001	5.94332E-001	-2.84581E-002	-3.81811E-002	6.85131E-001	-4.31094E-002	2.54740E-003	-1.70864E-004	2.24176E-002	2.25236E-002	-1.07849E-003	-1.44696E-003	2.59647E-002	-1.63373E-003
	37	37	1.10021E+000	3.76550E-002	0.00000E+000	4.14285E-002	3.75431E-001	3.98968E-002	4.78170E+001	11	...........	6.66211E-002	-4.55931E-003	5.91398E-001	5.94401E-001	-2.84597E-002	-3.81762E-002	6.85164E-001	-4.31365E-002	2.50862E-003	-1.71681E-004	2.22691E-002	2.23822E-002	-1.07165E-003	-1.43753E-003	2.57999E-002	-1.62431E-003
	38	38	1.10012E+000	3.74478E-002	0.00000E+000	4.11969E-002	3.73368E-001	4.01078E-002	4.86187E+001	11	...........	6.69600E-002	-4.51875E-003	5.91348E-001	5.94274E-001	-2.84503E-002	-3.81735E-002	6.85170E-001	-4.30322E-002	2.50750E-003	-1.69217E-004	2.21447E-002	2.22543E-002	-1.06540E-003	-1.42951E-003	2.56581E-002	-1.61146E-003
	39	39	1.10013E+000	3.75501E-002	0.00000E+000	4.13098E-002	3.74386E-001	3.98381E-002	4.63813E+001	11	...........	6.65125E-002	-4.52097E-003	5.91371E-001	5.94169E-001	-2.84599E-002	-3.81440E-002	6.84986E-001	-4.29635E-002	2.49755E-003	-1.69763E-004	2.22060E-002	2.23111E-002	-1.06867E-003	-1.43231E-003	2.57213E-002	-1.61328E-003
	40	40	1.10021E+000	3.74191E-002	0.00000E+000	4.11688E-002	3.73081E-001	4.00605E-002	4.73547E+001	11	...........	6.68847E-002	-4.50736E-003	5.91328E-001	5.94263E-001	-2.84618E-002	-3.81512E-002	6.85085E-001	-4.29349E-002	2.50276E-003	-1.68661E-004	2.21269E-002	2.22367E-002	-1.06501E-003	-1.42758E-003	2.56353E-002	-1.60658E-003
	41	41	1.10012E+000	3.71606E-002	0.00000E+000	4.08810E-002	3.70514E-001	3.97599E-002	4.85448E+001	11	...........	6.63947E-002	-4.47792E-003	5.91290E-001	5.94460E-001	-2.84553E-002	-3.81262E-002	6.85051E-001	-4.30574E-002	2.46727E-003	-1.66402E-004	2.19727E-002	2.20905E-002	-1.05741E-003	-1.41679E-003	2.54569E-002	-1.60004E-003
	42	42	1.10013E+000	3.73121E-002	0.00000E+000	4.10480E-002	3.72019E-001	3.99866E-002	4.88435E+001	11	...........	6.67660E-002	-4.53333E-003	5.91391E-001	5.94471E-001	-2.84408E-002	-3.81122E-002	6.85067E-001	-4.31371E-002	2.49118E-003	-1.69148E-004	2.20660E-002	2.21810E-002	-1.06119E-003	-1.42205E-003	2.55613E-002	-1.60953E-003
	43	43	1.10021E+000	3.71456E-002	0.00000E+000	4.08678E-002	3.70362E-001	4.00523E-002	4.82330E+001	11	...........	6.68790E-002	-4.60806E-003	5.91582E-001	5.94454E-001	-2.84079E-002	-3.81207E-002	6.85032E-001	-4.30482E-002	2.48426E-003	-1.71169E-004	2.19747E-002	2.20813E-002	-1.05523E-003	-1.41601E-003	2.54459E-002	-1.59905E-003
	44	44	1.10012E+000	3.68139E-002	0.00000E+000	4.04998E-002	3.67065E-001	3.95426E-002	4.66199E+001	11	...........	6.60218E-002	-4.47708E-003	5.91713E-001	5.94563E-001	-2.84135E-002	-3.81079E-002	6.84920E-001	-4.30335E-002	2.43052E-003	-1.64819E-004	2.17832E-002	2.18882E-002	-1.04601E-003	-1.40290E-003	2.52146E-002	-1.58423E-003
	45	45	1.10012E+000	3.70528E-002	0.00000E+000	4.07626E-002	3.69441E-001	4.00293E-002	4.87901E+001	11	...........	6.68335E-002	-4.53694E-003	5.91741E-001	5.94491E-001	-2.84083E-002	-3.81219E-002	6.85011E-001	-4.30674E-002	2.47637E-003	-1.68106E-004	2.19257E-002	2.20275E-002	-1.05261E-003	-1.41252E-003	2.53816E-002	-1.59577E-003
	46	46	1.10021E+000	3.68824E-002	0.00000E+000	4.05782E-002	3.67745E-001	3.99070E-002	4.78583E+001	11	...........	6.66232E-002	-4.58236E-003	5.91733E-001	5.94501E-001	-2.84061E-002	-3.81061E-002	6.85078E-001	-4.30619E-002	2.45722E-003	-1.69008E-004	2.18245E-002	2.19266E-002	-1.04769E-003	-1.40544E-003	2.52673E-002	-1.58823E-003
	47	47	1.10013E+000	3.65410E-002	0.00000E+000	4.01997E-002	3.64350E-001	3.95513E-002	4.75259E+001	11	...........	6.60361E-002	-4.49750E-003	5.91585E-001	5.94553E-001	-2.84064E-002	-3.81115E-002	6.85067E-001	-4.28689E-002	2.41303E-003	-1.64343E-004	2.16171E-002	2.17256E-002	-1.03800E-003	-1.39264E-003	2.50331E-002	-1.56647E-003
	48	48	1.10012E+000	3.67385E-002	0.00000E+000	4.04168E-002	3.66313E-001	3.99268E-002	4.86346E+001	11	...........	6.66771E-002	-4.58764E-003	5.91604E-001	5.94491E-001	-2.84443E-002	-3.81124E-002	6.84975E-001	-4.28899E-002	2.44961E-003	-1.68543E-004	2.17346E-002	2.18407E-002	-1.04500E-003	-1.40019E-003	2.51649E-002	-1.57571E-003
	49	49	1.10020E+000	3.65363E-002	0.00000E+000	4.01974E-002	3.64306E-001	3.97168E-002	4.48035E+001	11	...........	6.62940E-002	-4.60111E-003	5.91485E-001	5.94508E-001	-2.84417E-002	-3.81129E-002	6.84975E-001	-4.29693E-002	2.42214E-003	-1.68108E-004	2.16107E-002	2.17211E-002	-1.03915E-003	-1.39251E-003	2.50265E-002	-1.56994E-003
	50	50	1.10013E+000	3.63027E-002	0.00000E+000	3.99375E-002	3.61981E-001	3.97104E-002	4.71122E+001	11	...........	6.63003E-002	-4.60597E-003	5.91430E-001	5.94408E-001	-2.83981E-002	-3.81221E-002	6.85079E-001	-4.29586E-002	2.40688E-003	-1.67209E-004	2.14705E-002	2.15786E-002	-1.03093E-003	-1.38393E-003	2.48702E-002	-1.55951E-003
	51	51	1.10012E+000	3.65217E-002	0.00000E+000	4.01784E-002	3.64158E-001	3.98206E-002	4.74174E+001	11	...........	6.64874E-002	-4.62250E-003	5.91582E-001	5.94403E-001	-2.84140E-002	-3.80961E-002	6.84953E-001	-4.30024E-002	2.42823E-003	-1.68822E-004	2.16056E-002	2.17086E-002	-1.03773E-003	-1.39133E-003	2.50157E-002	-1.57052E-003
	52	52	1.10020E+000	3.63453E-002	0.00000E+000	3.99871E-002	3.62403E-001	3.98169E-002	4.83501E+001	11	...........	6.64658E-002	-4.57792E-003	5.91477E-001	5.94585E-001	-2.84114E-002	-3.81035E-002	6.85069E-001	-4.30565E-002	2.41572E-003	-1.66386E-004	2.14974E-002	2.16103E-002	-1.03262E-003	-1.38488E-003	2.48990E-002	-1.56490E-003
	53	53	1.10013E+000	3.60489E-002	0.00000E+000	3.96585E-002	3.59458E-001	3.98008E-002	4.73184E+001	11	...........	6.64471E-002	-4.56264E-003	5.91359E-001	5.94674E-001	-2.84226E-002	-3.81092E-002	6.85117E-001	-4.31508E-002	2.39534E-003	-1.64478E-004	2.13178E-002	2.14373E-002	-1.02460E-003	-1.37379E-003	2.46977E-002	-1.55554E-003
	54	54	1.10012E+000	3.61761E-002	0.00000E+000	3.97981E-002	3.60719E-001	3.95550E-002	4.74225E+001	11	...........	6.60294E-002	-4.51514E-003	5.91285E-001	5.94697E-001	-2.84433E-002	-3.81028E-002	6.85022E-001	-4.30306E-002	2.38869E-003	-1.63340E-004	2.13904E-002	2.15138E-002	-1.02897E-003	-1.37841E-003	2.47814E-002	-1.55668E-003
	55	55	1.10020E+000	3.61162E-002	0.00000E+000	3.97350E-002	3.60127E-001	3.98009E-002	4.78660E+001	11	...........	6.64567E-002	-4.50903E-003	5.91171E-001	5.94678E-001	-2.84240E-002	-3.80799E-002	6.84948E-001	-4.29386E-002	2.40016E-003	-1.62849E-004	2.13509E-002	2.14775E-002	-1.02657E-003	-1.37530E-003	2.47377E-002	-1.55078E-003
	56	56	1.10013E+000	3.57867E-002	0.00000E+000	3.93701E-002	3.56847E-001	3.95395E-002	4.77397E+001	11	...........	6.60131E-002	-4.51500E-003	5.91150E-001	5.94728E-001	-2.84200E-002	-3.80657E-002	6.84968E-001	-4.29671E-002	2.36239E-003	-1.61577E-004	2.11553E-002	2.12833E-002	-1.01706E-003	-1.36224E-003	2.45127E-002	-1.53765E-003
	57	57	1.10012E+000	3.59699E-002	0.00000E+000	3.95712E-002	3.58669E-001	3.98390E-002	4.82353E+001	11	...........	6.65296E-002	-4.46556E-003	5.91158E-001	5.94876E-001	-2.84194E-002	-3.80525E-002	6.84883E-001	-4.30099E-002	2.39306E-003	-1.60625E-004	2.12639E-002	2.13976E-002	-1.02224E-003	-1.36874E-003	2.46352E-002	-1.54706E-003
	58	58	1.10020E+000	3.57703E-002	0.00000E+000	3.93544E-002	3.56685E-001	3.93462E-002	4.59449E+001	11	...........	6.56824E-002	-4.48958E-003	5.91193E-001	5.94757E-001	-2.84122E-002	-3.80650E-002	6.84912E-001	-4.30008E-002	2.34948E-003	-1.60594E-004	2.11471E-002	2.12746E-002	-1.01631E-003	-1.36160E-003	2.44995E-002	-1.53815E-003
	59	59	1.10013E+000	3.55596E-002	0.00000E+000	3.91203E-002	3.54592E-001	3.97792E-002	4.79290E+001	11	...........	6.64185E-002	-4.49528E-003	5.91202E-001	5.94718E-001	-2.83972E-002	-3.80847E-002	6.84972E-001	-4.30276E-002	2.36181E-003	-1.59850E-004	2.10229E-002	2.11479E-002	-1.00979E-003	-1.35428E-003	2.43573E-002	-1.53004E-003
	60	60	1.10012E+000	3.57309E-002	0.00000E+000	3.93083E-002	3.56294E-001	3.96657E-002	4.80057E+001	11	...........	6.62865E-002	-4.44042E-003	5.91180E-001	5.94730E-001	-2.84132E-002	-3.81103E-002	6.84923E-001	-4.31204E-002	2.36848E-003	-1.58660E-004	2.11234E-002	2.12503E-002	-1.01523E-003	-1.36172E-003	2.44730E-002	-1.54073E-003
	61	61	1.10020E+000	3.55433E-002	0.00000E+000	3.91047E-002	3.54430E-001	3.96036E-002	4.81546E+001	11	...........	6.61121E-002	-4.42125E-003	5.91070E-001	5.94710E-001	-2.84201E-002	-3.81100E-002	6.84912E-001	-4.31011E-002	2.34984E-003	-1.57146E-004	2.10086E-002	2.11379E-002	-1.01015E-003	-1.35456E-003	2.43441E-002	-1.53196E-003
	62	62	1.10014E+000	3.52232E-002	0.00000E+000	3.87505E-002	3.51245E-001	3.95515E-002	4.56151E+001	11	...........	6.60314E-002	-4.38764E-003	5.91195E-001	5.94797E-001	-2.84354E-002	-3.80989E-002	6.84980E-001	-4.29889E-002	2.32584E-003	-1.54547E-004	2.08238E-002	2.09506E-002	-1.00159E-003	-1.34197E-003	2.41272E-002	-1.51421E-003
	63	63	1.10012E+000	3.54366E-002	0.00000E+000	3.89844E-002	3.53369E-001	3.93944E-002	4.77297E+001	11	...........	6.57792E-002	-4.44750E-003	5.91158E-001	5.94743E-001	-2.84283E-002	-3.80972E-002	6.85001E-001	-4.29483E-002	2.33099E-003	-1.57604E-004	2.09486E-002	2.10757E-002	-1.00740E-003	-1.35004E-003	2.42741E-002	-1.52194E-003
	64	64	1.10019E+000	3.53797E-002	0.00000E+000	3.89245E-002	3.52805E-001	3.96044E-002	4.80786E+001	11	...........	6.61357E-002	-4.55722E-003	5.91255E-001	5.94756E-001	-2.84046E-002	-3.80932E-002	6.85082E-001	-4.28690E-002	2.33986E-003	-1.61233E-004	2.09184E-002	2.10423E-002	-1.00495E-003	-1.34773E-003	2.42380E-002	-1.51669E-003
	65	65	1.10014E+000	3.49961E-002	0.00000E+000	3.85007E-002	3.48986E-001	3.93927E-002	4.70859E+001	11	...........	6.57407E-002	-4.48375E-003	5.91218E-001	5.94774E-001	-2.83979E-002	-3.81133E-002	6.84978E-001	-4.28337E-002	2.30067E-003	-1.56914E-004	2.06903E-002	2.08148E-002	-9.93816E-004	-1.33382E-003	2.39716E-002	-1.49901E-003
	66	66	1.10012E+000	3.51982E-002	0.00000E+000	3.87222E-002	3.50995E-001	3.96162E-002	4.84817E+001	11	...........	6.61592E-002	-4.48139E-003	5.91163E-001	5.94796E-001	-2.83936E-002	-3.81536E-002	6.84995E-001	-4.28986E-002	2.32868E-003	-1.57737E-004	2.08079E-002	2.09357E-002	-9.99404E-004	-1.34294E-003	2.41106E-002	-1.50995E-003
	67	67	1.10019E+000	3.51093E-002	0.00000E+000	3.86270E-002	3.50113E-001	3.95125E-002	4.64216E+001	11	...........	6.59658E-002	-4.48764E-003	5.91055E-001	5.94817E-001	-2.83769E-002	-3.81460E-002	6.84928E-001	-4.29417E-002	2.31601E-003	-1.57558E-004	2.07515E-002	2.08836E-002	-9.96295E-004	-1.33928E-003	2.40474E-002	-1.50765E-003
	68	68	1.10015E+000	3.47769E-002	0.00000E+000	3.82596E-002	3.46809E-001	3.93061E-002	4.79105E+001	11	...........	6.56328E-002	-4.49194E-003	5.91026E-001	5.94922E-001	-2.83651E-002	-3.81353E-002	6.84919E-001	-4.29785E-002	2.28250E-003	-1.56216E-004	2.05541E-002	2.06895E-002	-9.86451E-004	-1.32623E-003	2.38193E-002	-1.49466E-003
	69	69	1.10012E+000	3.49410E-002	0.00000E+000	3.84391E-002	3.48441E-001	3.94792E-002	4.86885E+001	11	...........	6.59067E-002	-4.51069E-003	5.91067E-001	5.95002E-001	-2.83690E-002	-3.81214E-002	6.85044E-001	-4.30117E-002	2.30284E-003	-1.57608E-004	2.06525E-002	2.07899E-002	-9.91241E-004	-1.33200E-003	2.39361E-002	-1.50287E-003
	70	70	1.10019E+000	3.48711E-002	0.00000E+000	3.83647E-002	3.47742E-001	3.93884E-002	4.71859E+001	11	...........	6.57443E-002	-4.53833E-003	5.90773E-001	5.94938E-001	-2.83732E-002	-3.81225E-002	6.84978E-001	-4.30015E-002	2.29257E-003	-1.58256E-004	2.06009E-002	2.07461E-002	-9.89403E-004	-1.32937E-003	2.38859E-002	-1.49951E-003
	71	71	1.10015E+000	3.45402E-002	0.00000E+000	3.79994E-002	3.44455E-001	3.94095E-002	4.85348E+001	11	...........	6.58057E-002	-4.50000E-003	5.90668E-001	5.94964E-001	-2.83960E-002	-3.81244E-002	6.84973E-001	-4.30231E-002	2.27294E-003	-1.55431E-004	2.04018E-002	2.05502E-002	-9.80803E-004	-1.31683E-003	2.36591E-002	-1.48603E-003
	72	72	1.10011E+000	3.47403E-002	0.00000E+000	3.82183E-002	3.46445E-001	3.93902E-002	4.77823E+001	11	...........	6.57772E-002	-4.51569E-003	5.90678E-001	5.94965E-001	-2.84224E-002	-3.81250E-002	6.85005E-001	-4.30554E-002	2.28512E-003	-1.56877E-004	2.05203E-002	2.06693E-002	-9.87402E-004	-1.32447E-003	2.37973E-002	-1.49576E-003
	73	73	1.10019E+000	3.45873E-002	0.00000E+000	3.80524E-002	3.44925E-001	3.91044E-002	4.52737E+001	11	...........	6.52919E-002	-4.39542E-003	5.90551E-001	5.95119E-001	-2.84332E-002	-3.81228E-002	6.84887E-001	-4.30968E-002	2.25827E-003	-1.52025E-004	2.04256E-002	2.05835E-002	-9.83426E-004	-1.31856E-003	2.36884E-002	-1.49060E-003
	74	74	1.10015E+000	3.43208E-002	0.00000E+000	3.77580E-002	3.42273E-001	3.95020E-002	4.77002E+001	11	...........	6.59642E-002	-4.39194E-003	5.90428E-001	5.95206E-001	-2.84704E-002	-3.81051E-002	6.84988E-001	-4.31406E-002	2.26394E-003	-1.50735E-004	2.02639E-002	2.04279E-002	-9.77126E-004	-1.30780E-003	2.35093E-002	-1.48062E-003
	75	75	1.10011E+000	3.44796E-002	0.00000E+000	3.79316E-002	3.43855E-001	3.92217E-002	4.82537E+001	11	...........	6.54682E-002	-4.43139E-003	5.90465E-001	5.95360E-001	-2.84631E-002	-3.80894E-002	6.85167E-001	-4.31057E-002	2.25732E-003	-1.52793E-004	2.03590E-002	2.05278E-002	-9.81396E-004	-1.31331E-003	2.36243E-002	-1.48627E-003
	76	76	1.10018E+000	3.44263E-002	0.00000E+000	3.78752E-002	3.43323E-001	3.94066E-002	4.75916E+001	11	...........	6.57949E-002	-4.41583E-003	5.90454E-001	5.95407E-001	-2.84449E-002	-3.81054E-002	6.85045E-001	-4.31061E-002	2.26507E-003	-1.52021E-004	2.03271E-002	2.04977E-002	-9.79251E-004	-1.31183E-003	2.35835E-002	-1.48398E-003
	77	77	1.10016E+000	3.40609E-002	0.00000E+000	3.74724E-002	3.39690E-001	3.91034E-002	4.80450E+001	11	...........	6.52857E-002	-4.36194E-003	5.90296E-001	5.95550E-001	-2.84447E-002	-3.81156E-002	6.85005E-001	-4.30168E-002	2.22369E-003	-1.48572E-004	2.01060E-002	2.02850E-002	-9.68854E-004	-1.29825E-003	2.33319E-002	-1.46519E-003
	78	78	1.10012E+000	3.42081E-002	0.00000E+000	3.76329E-002	3.41155E-001	3.94353E-002	4.56523E+001	11	...........	6.58299E-002	-4.48069E-003	5.90268E-001	5.95474E-001	-2.84444E-002	-3.81199E-002	6.85087E-001	-4.30507E-002	2.25192E-003	-1.53276E-004	2.01919E-002	2.03700E-002	-9.73031E-004	-1.30401E-003	2.34355E-002	-1.47268E-003
	79	79	1.10018E+000	3.41663E-002	0.00000E+000	3.75890E-002	3.40742E-001	3.91490E-002	4.73743E+001	11	...........	6.53517E-002	-4.50236E-003	5.90193E-001	5.95318E-001	-2.84168E-002	-3.81169E-002	6.85149E-001	-4.28667E-002	2.23283E-003	-1.53829E-004	2.01647E-002	2.03398E-002	-9.70898E-004	-1.30232E-003	2.34090E-002	-1.46460E-003
	80	80	1.10016E+000	3.38356E-002	0.00000E+000	3.72246E-002	3.37449E-001	3.93533E-002	4.84552E+001	11	...........	6.56956E-002	-4.54556E-003	5.90272E-001	5.95384E-001	-2.83831E-002	-3.81029E-002	6.85195E-001	-4.28868E-002	2.22285E-003	-1.53801E-004	1.99722E-002	2.01451E-002	-9.60356E-004	-1.28923E-003	2.31839E-002	-1.45110E-003
	81	81	1.10011E+000	3.39690E-002	0.00000E+000	3.73697E-002	3.38776E-001	3.91782E-002	4.80083E+001	11	...........	6.54056E-002	-4.52139E-003	5.90325E-001	5.95375E-001	-2.83871E-002	-3.80976E-002	6.85131E-001	-4.29647E-002	2.22176E-003	-1.53587E-004	2.00528E-002	2.02243E-002	-9.64281E-004	-1.29414E-003	2.32732E-002	-1.45947E-003
	82	82	1.10018E+000	3.39433E-002	0.00000E+000	3.73437E-002	3.38520E-001	3.91826E-002	4.63963E+001	11	...........	6.54056E-002	-4.52958E-003	5.90241E-001	5.95379E-001	-2.84021E-002	-3.81011E-002	6.85076E-001	-4.30564E-002	2.22008E-003	-1.53749E-004	2.00347E-002	2.02091E-002	-9.64061E-004	-1.29328E-003	2.32538E-002	-1.46148E-003
	83	83	1.10017E+000	3.35347E-002	0.00000E+000	3.68937E-002	3.34459E-001	3.91856E-002	4.62290E+001	11	...........	6.54214E-002	-4.46764E-003	5.90065E-001	5.95468E-001	-2.84239E-002	-3.81096E-002	6.85147E-001	-4.30496E-002	2.19388E-003	-1.49821E-004	1.97876E-002	1.99688E-002	-9.53185E-004	-1.27799E-003	2.29762E-002	-1.44365E-003
	84	84	1.10011E+000	3.36983E-002	0.00000E+000	3.70718E-002	3.36081E-001	3.89670E-002	4.62488E+001	11	...........	6.50537E-002	-4.39750E-003	5.90016E-001	5.95577E-001	-2.84422E-002	-3.81050E-002	6.85242E-001	-4.31074E-002	2.19220E-003	-1.48188E-004	1.98825E-002	2.00699E-002	-9.58454E-004	-1.28407E-003	2.30915E-002	-1.45264E-003
	85	85	1.10018E+000	3.37536E-002	0.00000E+000	3.71349E-002	3.36631E-001	3.94456E-002	4.73959E+001	11	...........	6.58324E-002	-4.48292E-003	5.90089E-001	5.95628E-001	-2.84403E-002	-3.81203E-002	6.85246E-001	-4.31224E-002	2.22208E-003	-1.51314E-004	1.99176E-002	2.01046E-002	-9.59961E-004	-1.28670E-003	2.31295E-002	-1.45553E-003
	86	86	1.10017E+000	3.33277E-002	0.00000E+000	3.66660E-002	3.32401E-001	3.89739E-002	4.72599E+001	11	...........	6.50746E-002	-4.52458E-003	5.90114E-001	5.95599E-001	-2.84544E-002	-3.81104E-002	6.85240E-001	-4.29943E-002	2.16879E-003	-1.50794E-004	1.96671E-002	1.98499E-002	-9.48321E-004	-1.27013E-003	2.28375E-002	-1.43290E-003
	87	87	1.10011E+000	3.35395E-002	0.00000E+000	3.68972E-002	3.34504E-001	3.92839E-002	4.85913E+001	11	...........	6.55860E-002	-4.51556E-003	5.90208E-001	5.95525E-001	-2.84625E-002	-3.81115E-002	6.85143E-001	-4.29801E-002	2.19972E-003	-1.51449E-004	1.97953E-002	1.99736E-002	-9.54618E-004	-1.27824E-003	2.29794E-002	-1.44153E-003
	88	88	1.10017E+000	3.35227E-002	0.00000E+000	3.68808E-002	3.34339E-001	3.92135E-002	4.75586E+001	11	...........	6.54758E-002	-4.52806E-003	5.90224E-001	5.95574E-001	-2.84892E-002	-3.81135E-002	6.85218E-001	-4.28850E-002	2.19493E-003	-1.51793E-004	1.97859E-002	1.99653E-002	-9.55035E-004	-1.27767E-003	2.29704E-002	-1.43762E-003
	89	89	1.10017E+000	3.30939E-002	0.00000E+000	3.64090E-002	3.30076E-001	3.88750E-002	4.54609E+001	11	...........	6.49014E-002	-4.40306E-003	5.90331E-001	5.95560E-001	-2.84787E-002	-3.80986E-002	6.85236E-001	-4.29293E-002	2.14784E-003	-1.45714E-004	1.95364E-002	1.97094E-002	-9.42473E-004	-1.26083E-003	2.26771E-002	-1.42070E-003
	90	90	1.10011E+000	3.32828E-002	0.00000E+000	3.66147E-002	3.31954E-001	3.91210E-002	4.82006E+001	11	...........	6.53214E-002	-4.30417E-003	5.90538E-001	5.95603E-001	-2.84867E-002	-3.80894E-002	6.85214E-001	-4.30019E-002	2.17408E-003	-1.43255E-004	1.96547E-002	1.98233E-002	-9.48115E-004	-1.26772E-003	2.28058E-002	-1.43122E-003
	91	91	1.10017E+000	3.32976E-002	0.00000E+000	3.66331E-002	3.32101E-001	3.91989E-002	4.74384E+001	11	...........	6.54282E-002	-4.27875E-003	5.90654E-001	5.95592E-001	-2.85046E-002	-3.81003E-002	6.85130E-001	-4.30654E-002	2.17860E-003	-1.42472E-004	1.96674E-002	1.98318E-002	-9.49134E-004	-1.26865E-003	2.28132E-002	-1.43397E-003
	92	92	1.10017E+000	3.29023E-002	0.00000E+000	3.61982E-002	3.28173E-001	3.90292E-002	4.80669E+001	11	...........	6.51671E-002	-4.30500E-003	5.90600E-001	5.95579E-001	-2.85210E-002	-3.80993E-002	6.85045E-001	-4.30885E-002	2.14415E-003	-1.41644E-004	1.94321E-002	1.95959E-002	-9.38405E-004	-1.25355E-003	2.25395E-002	-1.41771E-003
	93	93	1.10011E+000	3.30277E-002	0.00000E+000	3.63340E-002	3.29414E-001	3.89501E-002	4.77076E+001	11	...........	6.50349E-002	-4.39139E-003	5.90586E-001	5.95499E-001	-2.85168E-002	-3.80853E-002	6.85039E-001	-4.30840E-002	2.14795E-003	-1.45037E-004	1.95057E-002	1.96679E-002	-9.41843E-004	-1.25787E-003	2.26252E-002	-1.42296E-003
	94	94	1.10017E+000	3.30528E-002	0.00000E+000	3.63636E-002	3.29664E-001	3.91217E-002	4.82141E+001	11	...........	6.53210E-002	-4.47000E-003	5.90523E-001	5.95597E-001	-2.85251E-002	-3.80997E-002	6.85198E-001	-4.30335E-002	2.15904E-003	-1.47746E-004	1.95184E-002	1.96861E-002	-9.42835E-004	-1.25930E-003	2.26477E-002	-1.42237E-003
	95	95	1.10018E+000	3.26540E-002	0.00000E+000	3.59252E-002	3.25703E-001	3.87100E-002	4.59991E+001	11	...........	6.46221E-002	-4.41903E-003	5.90613E-001	5.95720E-001	-2.85229E-002	-3.81008E-002	6.85207E-001	-4.30918E-002	2.11017E-003	-1.44299E-004	1.92859E-002	1.94526E-002	-9.31387E-004	-1.24414E-003	2.23747E-002	-1.40712E-003
	96	96	1.10011E+000	3.28160E-002	0.00000E+000	3.61012E-002	3.27311E-001	3.91831E-002	4.83208E+001	11	...........	6.54211E-002	-4.35542E-003	5.90609E-001	5.95739E-001	-2.85394E-002	-3.80682E-002	6.85076E-001	-4.30467E-002	2.14686E-003	-1.42927E-004	1.93814E-002	1.95498E-002	-9.36551E-004	-1.24925E-003	2.24815E-002	-1.41262E-003
	97	97	1.10016E+000	3.28495E-002	0.00000E+000	3.61398E-002	3.27647E-001	3.90330E-002	4.86482E+001	11	...........	6.51785E-002	-4.34736E-003	5.90520E-001	5.95670E-001	-2.85406E-002	-3.80565E-002	6.85078E-001	-4.29428E-002	2.14108E-003	-1.42809E-004	1.93983E-002	1.95675E-002	-9.37543E-004	-1.25014E-003	2.25045E-002	-1.41065E-003
	98	98	1.10018E+000	3.24541E-002	0.00000E+000	3.57054E-002	3.23715E-001	3.88406E-002	4.74507E+001	11	...........	6.48729E-002	-4.30500E-003	5.90377E-001	5.95620E-001	-2.85174E-002	-3.80442E-002	6.85084E-001	-4.28785E-002	2.10539E-003	-1.39715E-004	1.91602E-002	1.93303E-002	-9.25504E-004	-1.23469E-003	2.22338E-002	-1.39158E-003
	99	99	1.10011E+000	3.25556E-002	0.00000E+000	3.58147E-002	3.24725E-001	3.91014E-002	4.61171E+001	11	...........	6.52889E-002	-4.35292E-003	5.90428E-001	5.95471E-001	-2.84987E-002	-3.80318E-002	6.85185E-001	-4.28667E-002	2.12552E-003	-1.41712E-004	1.92217E-002	1.93859E-002	-9.27794E-004	-1.23815E-003	2.23066E-002	-1.39555E-003
	100	100	1.10016E+000	3.26075E-002	0.00000E+000	3.58735E-002	3.25239E-001	3.88502E-002	4.82971E+001	11	...........	6.48703E-002	-4.38153E-003	5.90481E-001	5.95399E-001	-2.84946E-002	-3.80357E-002	6.85108E-001	-4.29714E-002	2.11526E-003	-1.42871E-004	1.92541E-002	1.94145E-002	-9.29138E-004	-1.24025E-003	2.23397E-002	-1.40119E-003
	101	101	1.10019E+000	3.22633E-002	0.00000E+000	3.54956E-002	3.21813E-001	3.89826E-002	4.72748E+001	11	...........	6.50815E-002	-4.42694E-003	5.90529E-001	5.95461E-001	-2.84801E-002	-3.80479E-002	6.85082E-001	-4.28989E-002	2.09975E-003	-1.42828E-004	1.90524E-002	1.92115E-002	-9.18864E-004	-1.22755E-003	2.21030E-002	-1.38406E-003
	102	102	1.10011E+000	3.23463E-002	0.00000E+000	3.55844E-002	3.22640E-001	3.88362E-002	4.84930E+001	11	...........	6.48469E-002	-4.38083E-003	5.90380E-001	5.95461E-001	-2.84889E-002	-3.80529E-002	6.84989E-001	-4.28136E-002	2.09756E-003	-1.41704E-004	1.90966E-002	1.92610E-002	-9.21510E-004	-1.23087E-003	2.21569E-002	-1.38486E-003
	103	103	1.10016E+000	3.23507E-002	0.00000E+000	3.55909E-002	3.22685E-001	3.89975E-002	4.61348E+001	11	...........	6.51093E-002	-4.47042E-003	5.90452E-001	5.95347E-001	-2.84850E-002	-3.80664E-002	6.84976E-001	-4.28818E-002	2.10633E-003	-1.44621E-004	1.91015E-002	1.92599E-002	-9.21510E-004	-1.23147E-003	2.21594E-002	-1.38726E-003
	104	104	1.10019E+000	3.19969E-002	0.00000E+000	3.52026E-002	3.19169E-001	3.86126E-002	4.62170E+001	11	...........	6.44501E-002	-4.48028E-003	5.90420E-001	5.95300E-001	-2.84801E-002	-3.80728E-002	6.85055E-001	-4.29521E-002	2.06220E-003	-1.43355E-004	1.88916E-002	1.90478E-002	-9.11276E-004	-1.21821E-003	2.19196E-002	-1.37433E-003
	105	105	1.10011E+000	3.21793E-002	0.00000E+000	3.54006E-002	3.20980E-001	3.90843E-002	4.71725E+001	11	...........	6.52474E-002	-4.55014E-003	5.90360E-001	5.95416E-001	-2.84694E-002	-3.80753E-002	6.85027E-001	-4.29868E-002	2.09962E-003	-1.46420E-004	1.89974E-002	1.91601E-002	-9.16127E-004	-1.22524E-003	2.20437E-002	-1.38329E-003
	106	106	1.10016E+000	3.21475E-002	0.00000E+000	3.53673E-002	3.20664E-001	3.88625E-002	4.84876E+001	11	...........	6.48903E-002	-4.49139E-003	5.90362E-001	5.95318E-001	-2.84451E-002	-3.80900E-002	6.84883E-001	-4.30044E-002	2.08606E-003	-1.44387E-004	1.89787E-002	1.91380E-002	-9.14441E-004	-1.22450E-003	2.20173E-002	-1.38249E-003
	107	107	1.10019E+000	3.18302E-002	0.00000E+000	3.50193E-002	3.17509E-001	3.90382E-002	4.79847E+001	11	...........	6.51703E-002	-4.50569E-003	5.90426E-001	5.95261E-001	-2.84392E-002	-3.81136E-002	6.84843E-001	-4.29594E-002	2.07438E-003	-1.43417E-004	1.87934E-002	1.89473E-002	-9.05224E-004	-1.21316E-003	2.17987E-002	-1.36741E-003
	108	108	1.10010E+000	3.18693E-002	0.00000E+000	3.50596E-002	3.17899E-001	3.86603E-002	4.48989E+001	11	...........	6.45435E-002	-4.51931E-003	5.90530E-001	5.95367E-001	-2.84211E-002	-3.81118E-002	6.84790E-001	-4.30608E-002	2.05696E-003	-1.44027E-004	1.88198E-002	1.89739E-002	-9.05761E-004	-1.21460E-003	2.18238E-002	-1.37232E-003
	109	109	1.10015E+000	3.19391E-002	0.00000E+000	3.51379E-002	3.18593E-001	3.88597E-002	4.73299E+001	11	...........	6.48887E-002	-4.51472E-003	5.90475E-001	5.95340E-001	-2.84278E-002	-3.81092E-002	6.84705E-001	-4.29414E-002	2.07249E-003	-1.44196E-004	1.88592E-002	1.90146E-002	-9.07958E-004	-1.21717E-003	2.18689E-002	-1.37151E-003
	110	110	1.10019E+000	3.16348E-002	0.00000E+000	3.48044E-002	3.15564E-001	3.89268E-002	4.77626E+001	11	...........	6.49918E-002	-4.54403E-003	5.90486E-001	5.95278E-001	-2.84124E-002	-3.81340E-002	6.84682E-001	-4.29860E-002	2.05600E-003	-1.43749E-004	1.86799E-002	1.88315E-002	-8.98819E-004	-1.20636E-003	2.16598E-002	-1.35985E-003
	111	111	1.10010E+000	3.16845E-002	0.00000E+000	3.48563E-002	3.16061E-001	3.87475E-002	4.66743E+001	11	...........	6.46997E-002	-4.46389E-003	5.90304E-001	5.95177E-001	-2.84140E-002	-3.81631E-002	6.84722E-001	-4.31194E-002	2.04998E-003	-1.41436E-004	1.87035E-002	1.88579E-002	-9.00285E-004	-1.20918E-003	2.16951E-002	-1.36622E-003
	112	112	1.10015E+000	3.17494E-002	0.00000E+000	3.49292E-002	3.16705E-001	3.89496E-002	4.82042E+001	11	...........	6.50419E-002	-4.49903E-003	5.90278E-001	5.95017E-001	-2.84621E-002	-3.81567E-002	6.84761E-001	-4.30756E-002	2.06504E-003	-1.42841E-004	1.87410E-002	1.88914E-002	-9.03654E-004	-1.21145E-003	2.17407E-002	-1.36762E-003
	113	113	1.10019E+000	3.13820E-002	0.00000E+000	3.45263E-002	3.13055E-001	3.86273E-002	4.60061E+001	11	...........	6.44869E-002	-4.54972E-003	5.90251E-001	5.95015E-001	-2.84647E-002	-3.81628E-002	6.84701E-001	-4.30972E-002	2.02373E-003	-1.42779E-004	1.85233E-002	1.86728E-002	-8.93280E-004	-1.19762E-003	2.14873E-002	-1.35248E-003
	114	114	1.10010E+000	3.14934E-002	0.00000E+000	3.46460E-002	3.14161E-001	3.88937E-002	4.78234E+001	11	...........	6.49111E-002	-4.52028E-003	5.90130E-001	5.94933E-001	-2.84521E-002	-3.81710E-002	6.84740E-001	-4.30862E-002	2.04427E-003	-1.42359E-004	1.85852E-002	1.87365E-002	-8.96052E-004	-1.20213E-003	2.15648E-002	-1.35693E-003
	115	115	1.10015E+000	3.15101E-002	0.00000E+000	3.46659E-002	3.14328E-001	3.86732E-002	4.73685E+001	11	...........	6.45725E-002	-4.52819E-003	5.90159E-001	5.94979E-001	-2.84301E-002	-3.81667E-002	6.84821E-001	-4.30921E-002	2.03469E-003	-1.42684E-004	1.85960E-002	1.87478E-002	-8.95836E-004	-1.20264E-003	2.15788E-002	-1.35784E-003
	116	116	1.10020E+000	3.11951E-002	0.00000E+000	3.43208E-002	3.11197E-001	3.88064E-002	4.84514E+001	11	...........	6.47831E-002	-4.44500E-003	5.90240E-001	5.94833E-001	-2.84506E-002	-3.81714E-002	6.84865E-001	-4.30022E-002	2.02092E-003	-1.38662E-004	1.84126E-002	1.85559E-002	-8.87519E-004	-1.19076E-003	2.13645E-002	-1.34146E-003
	117	117	1.10010E+000	3.12692E-002	0.00000E+000	3.43993E-002	3.11936E-001	3.88369E-002	4.81234E+001	11	...........	6.48422E-002	-4.40014E-003	5.90260E-001	5.94900E-001	-2.84676E-002	-3.82029E-002	6.84959E-001	-4.30657E-002	2.02756E-003	-1.37589E-004	1.84569E-002	1.86021E-002	-8.90160E-004	-1.19457E-003	2.14181E-002	-1.34663E-003
	118	118	1.10015E+000	3.12809E-002	0.00000E+000	3.44137E-002	3.12049E-001	3.84752E-002	4.54569E+001	11	...........	6.42358E-002	-4.34611E-003	5.90244E-001	5.94904E-001	-2.84521E-002	-3.81933E-002	6.84918E-001	-4.30585E-002	2.00935E-003	-1.35950E-004	1.84634E-002	1.86091E-002	-8.90006E-004	-1.19472E-003	2.14248E-002	-1.34691E-003
	119	119	1.10020E+000	3.10218E-002	0.00000E+000	3.41302E-002	3.09478E-001	3.88079E-002	4.72174E+001	11	...........	6.48097E-002	-4.35028E-003	5.90292E-001	5.94829E-001	-2.84618E-002	-3.81860E-002	6.84950E-001	-4.29911E-002	2.01052E-003	-1.34954E-004	1.83120E-002	1.84527E-002	-8.82938E-004	-1.18460E-003	2.12484E-002	-1.33366E-003
	120	120	1.10010E+000	3.10419E-002	0.00000E+000	3.41494E-002	3.09675E-001	3.86552E-002	4.87463E+001	11	...........	6.45421E-002	-4.39708E-003	5.90443E-001	5.94884E-001	-2.84657E-002	-3.81794E-002	6.84986E-001	-4.30261E-002	2.00351E-003	-1.36494E-004	1.83285E-002	1.84664E-002	-8.83630E-004	-1.18516E-003	2.12633E-002	-1.33561E-003
	121	121	1.10015E+000	3.11108E-002	0.00000E+000	3.42265E-002	3.10359E-001	3.87874E-002	4.86391E+001	11	...........	6.47672E-002	-4.52375E-003	5.90352E-001	5.94879E-001	-2.84589E-002	-3.81678E-002	6.84935E-001	-4.29767E-002	2.01496E-003	-1.40738E-004	1.83664E-002	1.85072E-002	-8.85380E-004	-1.18743E-003	2.13089E-002	-1.33704E-003
	122	122	1.10020E+000	3.07723E-002	0.00000E+000	3.38557E-002	3.06995E-001	3.85294E-002	4.75738E+001	11	...........	6.43221E-002	-4.49319E-003	5.90286E-001	5.94997E-001	-2.84453E-002	-3.81490E-002	6.84948E-001	-4.30210E-002	1.97934E-003	-1.38266E-004	1.81645E-002	1.83094E-002	-8.75326E-004	-1.17393E-003	2.10774E-002	-1.32385E-003
	123	123	1.10011E+000	3.08078E-002	0.00000E+000	3.38918E-002	3.07349E-001	3.84792E-002	4.49598E+001	11	...........	6.42411E-002	-4.49333E-003	5.90258E-001	5.94978E-001	-2.84103E-002	-3.81692E-002	6.84933E-001	-4.31062E-002	1.97913E-003	-1.38430E-004	1.81846E-002	1.83300E-002	-8.75258E-004	-1.17591E-003	2.11013E-002	-1.32801E-003
	124	124	1.10015E+000	3.09329E-002	0.00000E+000	3.40307E-002	3.08593E-001	3.89964E-002	4.69363E+001	11	...........	6.51064E-002	-4.48264E-003	5.90305E-001	5.95024E-001	-2.84269E-002	-3.81383E-002	6.84948E-001	-4.29994E-002	2.01393E-003	-1.38661E-004	1.82598E-002	1.84058E-002	-8.79327E-004	-1.17973E-003	2.11874E-002	-1.33010E-003
	125	125	1.10020E+000	3.05783E-002	0.00000E+000	3.36423E-002	3.05070E-001	3.84475E-002	4.87340E+001	11	...........	6.41967E-002	-4.55861E-003	5.90278E-001	5.95023E-001	-2.84112E-002	-3.81322E-002	6.84949E-001	-4.30915E-002	1.96302E-003	-1.39394E-004	1.80497E-002	1.81948E-002	-8.68767E-004	-1.16602E-003	2.09446E-002	-1.31766E-003
	126	126	1.10010E+000	3.06206E-002	0.00000E+000	3.36859E-002	3.05488E-001	3.85699E-002	4.77676E+001	11	...........	6.44185E-002	-4.58639E-003	5.90205E-001	5.95158E-001	-2.83956E-002	-3.81217E-002	6.84949E-001	-4.31862E-002	1.97253E-003	-1.40438E-004	1.80725E-002	1.82241E-002	-8.69490E-004	-1.16731E-003	2.09736E-002	-1.32239E-003
	127	127	1.10015E+000	3.06795E-002	0.00000E+000	3.37520E-002	3.06071E-001	3.84642E-002	4.81732E+001	11	...........	6.42399E-002	-4.46417E-003	5.90139E-001	5.95091E-001	-2.84197E-002	-3.81093E-002	6.84937E-001	-4.32518E-002	1.97085E-003	-1.36959E-004	1.81052E-002	1.82571E-002	-8.71904E-004	-1.16918E-003	2.10135E-002	-1.32695E-003
	128	128	1.10020E+000	3.03894E-002	0.00000E+000	3.34345E-002	3.03189E-001	3.87252E-002	4.60349E+001	11	...........	6.46582E-002	-4.51042E-003	5.90146E-001	5.95067E-001	-2.83800E-002	-3.81126E-002	6.84944E-001	-4.31117E-002	1.96492E-003	-1.37069E-004	1.79342E-002	1.80837E-002	-8.62450E-004	-1.15822E-003	2.08150E-002	-1.31014E-003
	129	129	1.10010E+000	3.04312E-002	0.00000E+000	3.34775E-002	3.03609E-001	3.83711E-002	4.73796E+001	11	...........	6.40672E-002	-4.32264E-003	5.89991E-001	5.95141E-001	-2.83407E-002	-3.80858E-002	6.84899E-001	-4.30554E-002	1.94964E-003	-1.31543E-004	1.79541E-002	1.81109E-002	-8.62442E-004	-1.15900E-003	2.08423E-002	-1.31023E-003
	130	130	1.10015E+000	3.05077E-002	0.00000E+000	3.35629E-002	3.04366E-001	3.86644E-002	4.77857E+001	11	...........	6.45601E-002	-4.42819E-003	5.90064E-001	5.95001E-001	-2.83482E-002	-3.81217E-002	6.84937E-001	-4.29743E-002	1.96958E-003	-1.35094E-004	1.80015E-002	1.81521E-002	-8.64838E-004	-1.16300E-003	2.08958E-002	-1.31105E-003
	131	131	1.10020E+000	3.02236E-002	0.00000E+000	3.32520E-002	3.01544E-001	3.85780E-002	4.80959E+001	11	...........	6.44071E-002	-4.47681E-003	5.89965E-001	5.95054E-001	-2.83510E-002	-3.81286E-002	6.85026E-001	-4.29643E-002	1.94661E-003	-1.35305E-004	1.78308E-002	1.79846E-002	-8.56867E-004	-1.15238E-003	2.07039E-002	-1.29853E-003
	132	132	1.10010E+000	3.02422E-002	0.00000E+000	3.32695E-002	3.01725E-001	3.85320E-002	4.70751E+001	11	...........	6.43396E-002	-4.42861E-003	5.90093E-001	5.95026E-001	-2.83781E-002	-3.81508E-002	6.85076E-001	-4.29085E-002	1.94577E-003	-1.33931E-004	1.78457E-002	1.79949E-002	-8.58214E-004	-1.15376E-003	2.07182E-002	-1.29765E-003
	133	133	1.10014E+000	3.02746E-002	0.00000E+000	3.33064E-002	3.02045E-001	3.84603E-002	4.78743E+001	11	...........	6.42374E-002	-4.39556E-003	5.90136E-001	5.94882E-001	-2.83961E-002	-3.81444E-002	6.84976E-001	-4.27983E-002	1.94476E-003	-1.33073E-004	1.78661E-002	1.80098E-002	-8.59679E-004	-1.15481E-003	2.07373E-002	-1.29570E-003
	134	134	1.10020E+000	2.99790E-002	0.00000E+000	3.29831E-002	2.99111E-001	3.83136E-002	4.47870E+001	11	...........	6.39654E-002	-4.42458E-003	5.90247E-001	5.94871E-001	-2.83896E-002	-3.81268E-002	6.85075E-001	-4.28369E-002	1.91762E-003	-1.32645E-004	1.76950E-002	1.78337E-002	-8.51092E-004	-1.14300E-003	2.05379E-002	-1.28421E-003
	135	135	1.10010E+000	3.00064E-002	0.00000E+000	3.30101E-002	2.99381E-001	3.85873E-002	4.81994E+001	11	...........	6.44506E-002	-4.45875E-003	5.90177E-001	5.94772E-001	-2.84203E-002	-3.81151E-002	6.84976E-001	-4.29737E-002	1.93393E-003	-1.33791E-004	1.77090E-002	1.78469E-002	-8.52789E-004	-1.14370E-003	2.05536E-002	-1.28949E-003
	136	136	1.10014E+000	3.00944E-002	0.00000E+000	3.31081E-002	3.00259E-001	3.85378E-002	4.80864E+001	11	...........	6.43525E-002	-4.35694E-003	5.90309E-001	5.94672E-001	-2.84331E-002	-3.81125E-002	6.84896E-001	-4.30525E-002	1.93665E-003	-1.31120E-004	1.77650E-002	1.78963E-002	-8.55675E-004	-1.14697E-003	2.06115E-002	-1.29564E-003
	137	137	1.10021E+000	2.98130E-002	0.00000E+000	3.28004E-002	2.97464E-001	3.83888E-002	4.74128E+001	11	...........	6.41025E-002	-4.50486E-003	5.90347E-001	5.94640E-001	-2.84349E-002	-3.81340E-002	6.84808E-001	-4.30175E-002	1.91109E-003	-1.34303E-004	1.76000E-002	1.77280E-002	-8.47728E-004	-1.13689E-003	2.04162E-002	-1.28248E-003
	138	138	1.10011E+000	2.97813E-002	0.00000E+000	3.27627E-002	2.97149E-001	3.83111E-002	4.63740E+001	11	...........	6.39708E-002	-4.42597E-003	5.90206E-001	5.94677E-001	-2.84564E-002	-3.81522E-002	6.84898E-001	-4.31151E-002	1.90514E-003	-1.31811E-004	1.75771E-002	1.77103E-002	-8.47469E-004	-1.13622E-003	2.03972E-002	-1.28403E-003
	139	139	1.10014E+000	2.98538E-002	0.00000E+000	3.28434E-002	2.97868E-001	3.83771E-002	4.60149E+001	11	...........	6.40667E-002	-4.26694E-003	5.90252E-001	5.94438E-001	-2.84569E-002	-3.81369E-002	6.84934E-001	-4.31403E-002	1.91264E-003	-1.27385E-004	1.76213E-002	1.77463E-002	-8.49549E-004	-1.13853E-003	2.04479E-002	-1.28790E-003
	140	140	1.10020E+000	2.96511E-002	0.00000E+000	3.26223E-002	2.95856E-001	3.84391E-002	4.77944E+001	11	...........	6.41860E-002	-4.35222E-003	5.90344E-001	5.94504E-001	-2.84599E-002	-3.81403E-002	6.84818E-001	-4.31092E-002	1.90318E-003	-1.29048E-004	1.75044E-002	1.76277E-002	-8.43866E-004	-1.13090E-003	2.03056E-002	-1.27823E-003
	141	141	1.10011E+000	2.96021E-002	0.00000E+000	3.25655E-002	2.95367E-001	3.85796E-002	4.84634E+001	11	...........	6.44157E-002	-4.46944E-003	5.90414E-001	5.94603E-001	-2.84461E-002	-3.81249E-002	6.84933E-001	-4.29803E-002	1.90684E-003	-1.32305E-004	1.74775E-002	1.76015E-002	-8.42065E-004	-1.12858E-003	2.02755E-002	-1.27231E-003
	142	142	1.10014E+000	2.96830E-002	0.00000E+000	3.26555E-002	2.96169E-001	3.83563E-002	4.58035E+001	11	...........	6.40680E-002	-4.44458E-003	5.90347E-001	5.94760E-001	-2.84368E-002	-3.81079E-002	6.84884E-001	-4.29397E-002	1.90173E-003	-1.31929E-004	1.75233E-002	1.76542E-002	-8.44089E-004	-1.13116E-003	2.03294E-002	-1.27458E-003
	143	143	1.10020E+000	2.94490E-002	0.00000E+000	3.23999E-002	2.93847E-001	3.83983E-002	4.79428E+001	11	...........	6.41158E-002	-4.42556E-003	5.90568E-001	5.94804E-001	-2.84307E-002	-3.81312E-002	6.84898E-001	-4.29424E-002	1.88815E-003	-1.30328E-004	1.73917E-002	1.75164E-002	-8.37256E-004	-1.12293E-003	2.01696E-002	-1.26461E-003
	144	144	1.10011E+000	2.93613E-002	0.00000E+000	3.23007E-002	2.92975E-001	3.83542E-002	4.54243E+001	11	...........	6.40539E-002	-4.53000E-003	5.90571E-001	5.94816E-001	-2.84585E-002	-3.81422E-002	6.84937E-001	-4.28333E-002	1.88071E-003	-1.33007E-004	1.73400E-002	1.74646E-002	-8.35579E-004	-1.11991E-003	2.01107E-002	-1.25764E-003
	145	145	1.10014E+000	2.94906E-002	0.00000E+000	3.24437E-002	2.94261E-001	3.82379E-002	4.72908E+001	11	...........	6.38611E-002	-4.53319E-003	5.90628E-001	5.94829E-001	-2.84785E-002	-3.81553E-002	6.84917E-001	-4.29150E-002	1.88330E-003	-1.33686E-004	1.74180E-002	1.75418E-002	-8.39846E-004	-1.12522E-003	2.01986E-002	-1.26559E-003
	146	146	1.10021E+000	2.92640E-002	0.00000E+000	3.21964E-002	2.92006E-001	3.83478E-002	4.71431E+001	11	...........	6.40292E-002	-4.69556E-003	5.90758E-001	5.95013E-001	-2.84837E-002	-3.81710E-002	6.85022E-001	-4.29367E-002	1.87375E-003	-1.37411E-004	1.72879E-002	1.74124E-002	-8.33548E-004	-1.11703E-003	2.00465E-002	-1.25650E-003
	147	147	1.10011E+000	2.91827E-002	0.00000E+000	3.21041E-002	2.91199E-001	3.83158E-002	4.79608E+001	11	...........	6.39858E-002	-4.61236E-003	5.90729E-001	5.95089E-001	-2.84743E-002	-3.81503E-002	6.85023E-001	-4.30117E-002	1.86728E-003	-1.34601E-004	1.72391E-002	1.73663E-002	-8.30957E-004	-1.11333E-003	1.99908E-002	-1.25520E-003
	148	148	1.10014E+000	2.93012E-002	0.00000E+000	3.22353E-002	2.92375E-001	3.84057E-002	4.76792E+001	11	...........	6.41039E-002	-4.57597E-003	5.90653E-001	5.95080E-001	-2.84768E-002	-3.81337E-002	6.85000E-001	-4.31179E-002	1.87832E-003	-1.34081E-004	1.73068E-002	1.74365E-002	-8.34404E-004	-1.11736E-003	2.00713E-002	-1.26341E-003
	149	149	1.10020E+000	2.90527E-002	0.00000E+000	3.19639E-002	2.89905E-001	3.80663E-002	4.63585E+001	11	...........	6.35400E-002	-4.53431E-003	5.90737E-001	5.95003E-001	-2.84779E-002	-3.81251E-002	6.85110E-001	-4.32146E-002	1.84601E-003	-1.31734E-004	1.71625E-002	1.72864E-002	-8.27361E-004	-1.10764E-003	1.99043E-002	-1.25550E-003
	150	150	1.10011E+000	2.89826E-002	0.00000E+000	3.18841E-002	2.89209E-001	3.83626E-002	4.81767E+001	11	...........	6.40765E-002	-4.44319E-003	5.90887E-001	5.94983E-001	-2.84754E-002	-3.80890E-002	6.85109E-001	-4.30996E-002	1.85711E-003	-1.28775E-004	1.71255E-002	1.72442E-002	-8.25292E-004	-1.10392E-003	1.98563E-002	-1.24914E-003
	151	151	1.10014E+000	2.91335E-002	0.00000E+000	3.20508E-002	2.90710E-001	3.83487E-002	4.76087E+001	11	...........	6.40278E-002	-4.47806E-003	5.90887E-001	5.94944E-001	-2.84764E-002	-3.80915E-002	6.85104E-001	-4.30551E-002	1.86535E-003	-1.30461E-004	1.72146E-002	1.73328E-002	-8.29615E-004	-1.10974E-003	1.99594E-002	-1.25434E-003
	152	152	1.10020E+000	2.88647E-002	0.00000E+000	3.17570E-002	2.88037E-001	3.81043E-002	4.70865E+001	11	...........	6.36256E-002	-4.36833E-003	5.90886E-001	5.94868E-001	-2.84815E-002	-3.80981E-002	6.85180E-001	-4.29557E-002	1.83653E-003	-1.26091E-004	1.70557E-002	1.71707E-002	-8.22110E-004	-1.09969E-003	1.97775E-002	-1.23990E-003
	153	153	1.10011E+000	2.87505E-002	0.00000E+000	3.16288E-002	2.86905E-001	3.80447E-002	4.44557E+001	11	...........	6.35146E-002	-4.30056E-003	5.90865E-001	5.94974E-001	-2.85101E-002	-3.81176E-002	6.85163E-001	-4.29436E-002	1.82608E-003	-1.23643E-004	1.69877E-002	1.71058E-002	-8.19681E-004	-1.09590E-003	1.96988E-002	-1.23465E-003
	154	154	1.10014E+000	2.89540E-002	0.00000E+000	3.18533E-002	2.88923E-001	3.84122E-002	4.80029E+001	11	...........	6.41211E-002	-4.35014E-003	5.90731E-001	5.95105E-001	-2.85307E-002	-3.81194E-002	6.85054E-001	-4.30731E-002	1.85656E-003	-1.25954E-004	1.71040E-002	1.72307E-002	-8.26077E-004	-1.10371E-003	1.98350E-002	-1.24714E-003
	155	155	1.10020E+000	2.87216E-002	0.00000E+000	3.15996E-002	2.86615E-001	3.82913E-002	4.79501E+001	11	...........	6.39442E-002	-4.48278E-003	5.90815E-001	5.95029E-001	-2.85032E-002	-3.81401E-002	6.85081E-001	-4.30621E-002	1.83658E-003	-1.28753E-004	1.69692E-002	1.70902E-002	-8.18659E-004	-1.09545E-003	1.96767E-002	-1.23681E-003
	156	156	1.10012E+000	2.85867E-002	0.00000E+000	3.14487E-002	2.85276E-001	3.81725E-002	4.68131E+001	11	...........	6.37469E-002	-4.47764E-003	5.90842E-001	5.95156E-001	-2.84896E-002	-3.81436E-002	6.85118E-001	-4.31206E-002	1.82232E-003	-1.28001E-004	1.68902E-002	1.70136E-002	-8.14423E-004	-1.09040E-003	1.95853E-002	-1.23267E-003
	157	157	1.10013E+000	2.87252E-002	0.00000E+000	3.16015E-002	2.86652E-001	3.78913E-002	4.76274E+001	11	...........	6.38376E-002	-4.34819E-003	5.90776E-001	5.95343E-001	-2.84850E-002	-3.81236E-002	6.85003E-001	-4.29254E-002	1.83375E-003	-1.24903E-004	1.69701E-002	1.71013E-002	-8.18236E-004	-1.09511E-003	1.96768E-002	-1.23304E-003
	158	157.818	1.10022E+000	2.84553E-002	0.00000E+000	3.13071E-002	2.83966E-001	3.81634E-002	4.60989E+001	11	...........	6.36777E-002	-4.37356E-003	5.90813E-001	5.95329E-001	-2.84956E-002	-3.80986E-002	6.85063E-001	-4.28814E-002	1.81197E-003	-1.24451E-004	1.68118E-002	1.69402E-002	-8.10850E-004	-1.08411E-003	1.94937E-002	-1.22020E-003
STARTTIMEOFFSET	QUANT	727494.7	Start Time Offset (s)
