EXPLAIN
TAG	PWR800_CHARGE
TITLE	LABEL	PWR Charge	Test Identifier
DATE	LABEL	10/12/2022	Date
TIME	LABEL	3:35:32	Time
NOTES	NOTES	1	Notes...
	
PSTAT	PSTAT	REF3000-21114	Potentiostat
CAPACITY	QUANT	5.30000E-002	Capacity (A-hr)
CELLTYPE	SELECTOR	1	Cell Type
WORKINGCONNECTION	SELECTOR	0	Working Connection
MAXCHARGETIME	VARIABLEANDUNITS	7.20000E+003	s	2.00000E+000	hour(s)	Max Charge Time
CHARGEMODE	MULTIPARAM	0	1.00000E-001	Charge Mode	Constant Current	Amp(s)
CHARGECURRENT	QUANT	0.1	Charge Current (A)
VOLTAGEFINISH	TWOPARAM	T	2.50000E-002	7.20000E+003	Voltage Finish	I (A) <	Max Time(s)
SAMPLETIME	QUANT	1.00000E+000	Sample Period (s)
CHARGESTOPAT1	MULTIPARAM	2	1.10000E+000	Stop At 1	|Voltage| > Limit	V
CHARGESTOPAT2	MULTIPARAM	0	0.00000E+000	Stop At 2	None	N/A
AESELECTOR	AESELECTOR	0x1	T	Set Limits	AE Channels
AESBHCSELECTOR	TOGGLE	F	Save Both Half Cells
IRCOMP	TOGGLE	F	IR Measure
EOC	QUANT	0.2761941	Open Circuit (V)
SEQUENCER	TOGGLE	TRUE	Run as Sequence
PSTATMODEL	IQUANT	5	Pstat Model
PSTATSECTION	LABEL	REF3000-21114	Pstat Section
PSTATSERIALNO	LABEL	21114	Pstat Serial Number
CTRLMODE	IQUANT	0	Control Mode
ELECTROMETER	IQUANT	0	RE=0 or CS=1
IESTAB	IQUANT	0	I/E Stability
CASPEED	IQUANT	4	Control Amp Speed
CONVENTION	IQUANT	1	Current Convention
ICHRANGE	IQUANT	2	Ich Range
ICHRANGEMODE	TOGGLE	T	Ich Auto Range
ICHOFFSETENABLE	TOGGLE	F	Ich Offset Enable
ICHOFFSET	QUANT	0	Ich Offset (V)
ICHFILTER	IQUANT	1	Ich Filter
VCHRANGE	IQUANT	3	Vch Range
VCHRANGEMODE	TOGGLE	T	Vch Auto Range
VCHOFFSETENABLE	TOGGLE	F	Vch Offset Enable
VCHOFFSET	QUANT	0	Vch Offset (V)
VCHFILTER	IQUANT	1	Vch Filter
ACHRANGE	IQUANT	2	Ach Range
ACHOFFSETENABLE	TOGGLE	F	Ach Offset Enable
ACHOFFSET	QUANT	0	Ach Offset (V)
ACHFILTER	IQUANT	1	Ach Filter
IERANGELOWERLIMIT	IQUANT	9	I/E Range Lower Limit
IERANGEMODE	TOGGLE	F	I/E AutoRange
IERANGE	IQUANT	9	I/E Range
POSFEEDENABLE	TOGGLE	F	Positive Feedback IR Comp
POSFEEDRESISTANCE	QUANT	0	Positive Feedback Resistance (ohm)
ACHSELECT	IQUANT	1	Ach Select
SENSECABLEID	IQUANT	13	Sense Cable ID
PWRCABLEID	IQUANT	13	Power Cable ID
DCCALDATE	LABEL		DC Calibration Date
ACCALDATE	LABEL		AC Calibration Date
THERMOSELECT	IQUANT	1	Thermo Select
FRAMEWORKVERSION	LABEL	7.8.6	Framework Version
INSTRUMENTVERSION	LABEL	4.50	Instrument Version
COMPLIANCEVOLTAGE	IQUANT	0	Compliance Voltage
CURVE	TABLE	92
	Pt	T	Vf	Im	Vu	Pwr	Sig	Ach	Temp	IERange	Over	Vf1	Vf2	Vf3	Vf4	Vf5	Vf6	Vf7	Vf8	Pwr1	Pwr2	Pwr3	Pwr4	Pwr5	Pwr6	Pwr7	Pwr8
	#	s	V	A	V	W	V	V	deg C	#	bits	V	V	V	V	V	V	V	V	W	W	W	W	W	W	W	W
	0	1	5.32759E-001	9.98519E-002	0.00000E+000	5.31970E-002	9.94000E-001	3.58244E-002	3.37423E+001	11	...........	5.94801E-002	-4.23806E-003	5.63492E-001	6.54405E-001	-3.04557E-002	-3.96399E-002	6.50142E-001	-4.34814E-002	5.93921E-003	-4.23178E-004	5.62658E-002	6.53436E-002	-3.04106E-003	-3.95812E-003	6.49180E-002	-4.34170E-003
	1	2	7.81291E-001	9.98525E-002	0.00000E+000	7.80138E-002	9.94000E-001	3.66845E-002	3.69556E+001	11	...........	6.08772E-002	-4.20153E-003	5.63641E-001	6.54275E-001	-3.05236E-002	-3.96499E-002	6.50135E-001	-4.34312E-002	6.07874E-003	-4.19533E-004	5.62809E-002	6.53309E-002	-3.04786E-003	-3.95914E-003	6.49175E-002	-4.33672E-003
	2	2.25	1.05143E+000	9.98535E-002	0.00000E+000	1.04989E-001	9.94000E-001	3.68260E-002	3.93259E+001	11	...........	6.11489E-002	-4.23167E-003	5.63796E-001	6.54296E-001	-3.05117E-002	-3.96494E-002	6.50202E-001	-4.34533E-002	6.10593E-003	-4.22547E-004	5.62970E-002	6.53337E-002	-3.04670E-003	-3.95914E-003	6.49249E-002	-4.33897E-003
	3	3	1.10120E+000	7.10191E-002	0.00000E+000	7.82061E-002	7.07260E-001	3.68708E-002	3.96153E+001	11	...........	6.12106E-002	-4.38500E-003	5.63993E-001	6.54440E-001	-3.04650E-002	-3.96348E-002	6.50167E-001	-4.34304E-002	4.34712E-003	-3.11419E-004	4.00543E-002	4.64777E-002	-2.16360E-003	-2.81483E-003	4.61743E-002	-3.08438E-003
	4	4	1.10083E+000	5.46598E-002	0.00000E+000	6.01713E-002	5.44573E-001	3.64926E-002	4.07514E+001	11	...........	6.05553E-002	-4.33750E-003	5.63999E-001	6.54188E-001	-3.04164E-002	-3.96231E-002	6.50082E-001	-4.34749E-002	3.30994E-003	-2.37087E-004	3.08281E-002	3.57578E-002	-1.66255E-003	-2.16579E-003	3.55333E-002	-2.37633E-003
	5	5	1.10063E+000	4.85608E-002	0.00000E+000	5.34473E-002	4.83929E-001	3.64442E-002	3.79992E+001	11	...........	6.04967E-002	-4.06861E-003	5.64053E-001	6.54167E-001	-3.04537E-002	-3.96108E-002	6.50192E-001	-4.34600E-002	2.93776E-003	-1.97575E-004	2.73909E-002	3.17668E-002	-1.47886E-003	-1.92353E-003	3.15738E-002	-2.11045E-003
	6	6	1.10069E+000	4.52764E-002	0.00000E+000	4.98351E-002	4.51279E-001	3.64101E-002	3.89184E+001	11	...........	6.04240E-002	-3.96944E-003	5.64064E-001	6.54355E-001	-3.04612E-002	-3.95689E-002	6.50108E-001	-4.33917E-002	2.73578E-003	-1.79722E-004	2.55388E-002	2.96268E-002	-1.37917E-003	-1.79154E-003	2.94345E-002	-1.96462E-003
	7	7	1.10076E+000	4.25529E-002	0.00000E+000	4.68403E-002	4.24189E-001	3.64557E-002	3.68212E+001	11	...........	6.05196E-002	-3.91458E-003	5.64167E-001	6.54379E-001	-3.04236E-002	-3.95589E-002	6.50061E-001	-4.34346E-002	2.57528E-003	-1.66577E-004	2.40069E-002	2.78457E-002	-1.29461E-003	-1.68334E-003	2.76619E-002	-1.84827E-003
	8	8	1.10060E+000	4.09700E-002	0.00000E+000	4.50914E-002	4.08454E-001	3.62125E-002	3.76273E+001	11	...........	6.01294E-002	-3.89986E-003	5.64147E-001	6.54071E-001	-3.04690E-002	-3.95660E-002	6.50034E-001	-4.34643E-002	2.46350E-003	-1.59777E-004	2.31131E-002	2.67973E-002	-1.24831E-003	-1.62102E-003	2.66319E-002	-1.78073E-003
	9	9	1.10066E+000	3.98206E-002	0.00000E+000	4.38291E-002	3.97025E-001	3.63536E-002	3.89918E+001	11	...........	6.03353E-002	-3.90750E-003	5.64124E-001	6.54121E-001	-3.04701E-002	-3.95853E-002	6.50181E-001	-4.34721E-002	2.40259E-003	-1.55599E-004	2.24637E-002	2.60475E-002	-1.21334E-003	-1.57631E-003	2.58906E-002	-1.73108E-003
	10	10	1.10074E+000	3.85972E-002	0.00000E+000	4.24856E-002	3.84859E-001	3.67215E-002	3.81441E+001	11	...........	6.09628E-002	-3.87944E-003	5.64166E-001	6.54226E-001	-3.04057E-002	-3.95714E-002	6.50113E-001	-4.34483E-002	2.35299E-003	-1.49736E-004	2.17752E-002	2.52513E-002	-1.17357E-003	-1.52734E-003	2.50925E-002	-1.67698E-003
	11	11	1.10059E+000	3.79587E-002	0.00000E+000	4.17771E-002	3.78513E-001	3.62446E-002	3.72177E+001	11	...........	6.01526E-002	-3.84639E-003	5.64038E-001	6.54393E-001	-3.03664E-002	-3.95571E-002	6.50292E-001	-4.33667E-002	2.28332E-003	-1.46004E-004	2.14102E-002	2.48399E-002	-1.15267E-003	-1.50154E-003	2.46842E-002	-1.64614E-003
	12	12	1.10065E+000	3.76407E-002	0.00000E+000	4.14294E-002	3.75359E-001	3.59362E-002	3.82373E+001	11	...........	5.96158E-002	-3.92486E-003	5.64146E-001	6.54558E-001	-3.03989E-002	-3.95444E-002	6.50194E-001	-4.33864E-002	2.24398E-003	-1.47735E-004	2.12349E-002	2.46380E-002	-1.14424E-003	-1.48848E-003	2.44738E-002	-1.63309E-003
	13	13	1.10074E+000	3.69156E-002	0.00000E+000	4.06343E-002	3.68143E-001	3.66993E-002	3.73914E+001	11	...........	6.08986E-002	-3.93222E-003	5.64124E-001	6.54741E-001	-3.03824E-002	-3.95493E-002	6.50442E-001	-4.34042E-002	2.24811E-003	-1.45160E-004	2.08249E-002	2.41702E-002	-1.12158E-003	-1.45999E-003	2.40114E-002	-1.60229E-003
	14	14	1.10060E+000	3.66849E-002	0.00000E+000	4.03752E-002	3.65851E-001	3.61594E-002	3.73550E+001	11	...........	6.00458E-002	-3.94069E-003	5.64216E-001	6.54836E-001	-3.03882E-002	-3.95393E-002	6.50348E-001	-4.34275E-002	2.20277E-003	-1.44564E-004	2.06982E-002	2.40226E-002	-1.11479E-003	-1.45049E-003	2.38579E-002	-1.59313E-003
	15	15	1.10064E+000	3.66561E-002	0.00000E+000	4.03453E-002	3.65557E-001	3.62290E-002	3.76809E+001	11	...........	6.01357E-002	-3.94431E-003	5.64271E-001	6.54766E-001	-3.04214E-002	-3.95239E-002	6.50224E-001	-4.33731E-002	2.20434E-003	-1.44583E-004	2.06840E-002	2.40012E-002	-1.11513E-003	-1.44879E-003	2.38347E-002	-1.58989E-003
	16	16	1.10073E+000	3.61222E-002	0.00000E+000	3.97610E-002	3.60253E-001	3.60417E-002	3.71581E+001	11	...........	5.98360E-002	-3.89458E-003	5.64040E-001	6.54646E-001	-3.04383E-002	-3.95292E-002	6.50132E-001	-4.34386E-002	2.16141E-003	-1.40681E-004	2.03744E-002	2.36473E-002	-1.09950E-003	-1.42788E-003	2.34842E-002	-1.56910E-003
	17	17	1.10060E+000	3.60057E-002	0.00000E+000	3.96278E-002	3.59101E-001	3.65033E-002	3.72954E+001	11	...........	6.05710E-002	-3.92528E-003	5.64039E-001	6.54729E-001	-3.04524E-002	-3.95287E-002	6.50193E-001	-4.34132E-002	2.18090E-003	-1.41333E-004	2.03087E-002	2.35740E-002	-1.09646E-003	-1.42326E-003	2.34107E-002	-1.56312E-003
	18	18	1.10065E+000	3.60087E-002	0.00000E+000	3.96329E-002	3.59131E-001	3.60198E-002	3.64578E+001	11	...........	5.97810E-002	-3.86417E-003	5.63846E-001	6.54646E-001	-3.04611E-002	-3.95297E-002	6.50299E-001	-4.34443E-002	2.15264E-003	-1.39144E-004	2.03034E-002	2.35730E-002	-1.09687E-003	-1.42341E-003	2.34164E-002	-1.56437E-003
	19	19	1.10073E+000	3.56878E-002	0.00000E+000	3.92826E-002	3.55938E-001	3.61370E-002	3.72010E+001	11	...........	5.99971E-002	-3.85625E-003	5.63834E-001	6.54586E-001	-3.04326E-002	-3.95474E-002	6.50296E-001	-4.34239E-002	2.14117E-003	-1.37621E-004	2.01220E-002	2.33608E-002	-1.08608E-003	-1.41136E-003	2.32077E-002	-1.54970E-003
	20	20	1.10060E+000	3.55462E-002	0.00000E+000	3.91220E-002	3.54528E-001	3.61138E-002	3.73599E+001	11	...........	6.01389E-002	-3.94389E-003	5.64017E-001	6.54652E-001	-3.05061E-002	-3.95681E-002	6.50373E-001	-4.34176E-002	2.13771E-003	-1.40190E-004	2.00487E-002	2.32704E-002	-1.08438E-003	-1.40649E-003	2.31183E-002	-1.54333E-003
	21	21	1.10065E+000	3.56074E-002	0.00000E+000	3.91911E-002	3.55143E-001	3.60232E-002	3.59782E+001	11	...........	6.01010E-002	-4.06222E-003	5.64158E-001	6.54685E-001	-3.04674E-002	-3.95543E-002	6.50215E-001	-4.33692E-002	2.14004E-003	-1.44645E-004	2.00882E-002	2.33116E-002	-1.08486E-003	-1.40843E-003	2.31525E-002	-1.54426E-003
	22	22	1.10073E+000	3.52982E-002	0.00000E+000	3.88536E-002	3.52065E-001	3.56647E-002	3.79827E+001	11	...........	5.94854E-002	-3.94389E-003	5.64114E-001	6.54741E-001	-3.05457E-002	-3.95410E-002	6.50099E-001	-4.34889E-002	2.09973E-003	-1.39212E-004	1.99122E-002	2.31112E-002	-1.07821E-003	-1.39572E-003	2.29473E-002	-1.53508E-003
	23	23	1.10060E+000	3.51802E-002	0.00000E+000	3.87194E-002	3.50891E-001	3.60206E-002	3.73138E+001	11	...........	6.00882E-002	-3.96389E-003	5.64077E-001	6.54863E-001	-3.04846E-002	-3.95200E-002	6.50206E-001	-4.34018E-002	2.11392E-003	-1.39451E-004	1.98444E-002	2.30382E-002	-1.07245E-003	-1.39032E-003	2.28744E-002	-1.52689E-003
	24	24	1.10065E+000	3.52289E-002	0.00000E+000	3.87746E-002	3.51379E-001	3.58532E-002	3.71930E+001	11	...........	5.98092E-002	-3.88903E-003	5.63899E-001	6.54819E-001	-3.05314E-002	-3.95303E-002	6.50238E-001	-4.34151E-002	2.10701E-003	-1.37006E-004	1.98656E-002	2.30686E-002	-1.07559E-003	-1.39261E-003	2.29072E-002	-1.52947E-003
	25	25	1.10073E+000	3.49496E-002	0.00000E+000	3.84700E-002	3.48600E-001	3.57637E-002	3.74967E+001	11	...........	5.96826E-002	-3.98736E-003	5.63997E-001	6.54791E-001	-3.05024E-002	-3.95553E-002	6.50341E-001	-4.34036E-002	2.08589E-003	-1.39357E-004	1.97115E-002	2.28847E-002	-1.06605E-003	-1.38244E-003	2.27292E-002	-1.51694E-003
	26	26	1.10060E+000	3.48019E-002	0.00000E+000	3.83030E-002	3.47129E-001	3.59348E-002	3.77488E+001	11	...........	5.99567E-002	-4.00542E-003	5.64049E-001	6.54607E-001	-3.04501E-002	-3.95300E-002	6.50261E-001	-4.34236E-002	2.08660E-003	-1.39396E-004	1.96300E-002	2.27815E-002	-1.05972E-003	-1.37572E-003	2.26303E-002	-1.51122E-003
	27	27	1.10064E+000	3.49299E-002	0.00000E+000	3.84454E-002	3.48407E-001	3.58985E-002	3.68880E+001	11	...........	5.98733E-002	-4.01278E-003	5.64040E-001	6.54595E-001	-3.04933E-002	-3.95181E-002	6.50260E-001	-4.33583E-002	2.09137E-003	-1.40166E-004	1.97019E-002	2.28650E-002	-1.06513E-003	-1.38036E-003	2.27135E-002	-1.51450E-003
	28	28	1.10072E+000	3.46354E-002	0.00000E+000	3.81240E-002	3.45478E-001	3.56758E-002	3.87883E+001	11	...........	5.94896E-002	-3.92625E-003	5.63877E-001	6.54749E-001	-3.04511E-002	-3.95458E-002	6.50303E-001	-4.34643E-002	2.06045E-003	-1.35987E-004	1.95301E-002	2.26775E-002	-1.05469E-003	-1.36969E-003	2.25235E-002	-1.50540E-003
	29	29	1.10061E+000	3.44879E-002	0.00000E+000	3.79576E-002	3.44012E-001	3.54869E-002	3.75016E+001	11	...........	5.92060E-002	-3.98403E-003	5.63926E-001	6.54734E-001	-3.04567E-002	-3.95446E-002	6.50434E-001	-4.34779E-002	2.04189E-003	-1.37401E-004	1.94486E-002	2.25804E-002	-1.05039E-003	-1.36381E-003	2.24321E-002	-1.49946E-003
	30	30	1.10064E+000	3.45854E-002	0.00000E+000	3.80661E-002	3.44979E-001	3.60902E-002	3.65726E+001	11	...........	6.01903E-002	-3.89125E-003	5.63871E-001	6.54661E-001	-3.04668E-002	-3.95467E-002	6.50396E-001	-4.34614E-002	2.08171E-003	-1.34581E-004	1.95017E-002	2.26417E-002	-1.05371E-003	-1.36774E-003	2.24942E-002	-1.50313E-003
	31	31	1.10073E+000	3.43671E-002	0.00000E+000	3.78288E-002	3.42804E-001	3.55998E-002	3.83758E+001	11	...........	5.94093E-002	-3.90472E-003	5.63849E-001	6.54674E-001	-3.03994E-002	-3.95221E-002	6.50532E-001	-4.34421E-002	2.04173E-003	-1.34194E-004	1.93779E-002	2.24993E-002	-1.04474E-003	-1.35826E-003	2.23569E-002	-1.49298E-003
	32	32	1.10061E+000	3.41677E-002	0.00000E+000	3.76053E-002	3.40823E-001	3.58951E-002	3.60535E+001	11	...........	5.98504E-002	-4.02125E-003	5.63914E-001	6.54415E-001	-3.04178E-002	-3.95378E-002	6.50583E-001	-4.34735E-002	2.04495E-003	-1.37397E-004	1.92677E-002	2.23599E-002	-1.03931E-003	-1.35092E-003	2.22289E-002	-1.48539E-003
	33	33	1.10064E+000	3.43232E-002	0.00000E+000	3.77773E-002	3.42366E-001	3.54344E-002	3.73130E+001	11	...........	5.91090E-002	-4.07722E-003	5.63829E-001	6.54346E-001	-3.04535E-002	-3.95375E-002	6.50352E-001	-4.34078E-002	2.02881E-003	-1.39943E-004	1.93524E-002	2.24592E-002	-1.04526E-003	-1.35705E-003	2.23221E-002	-1.48989E-003
	34	34	1.10073E+000	3.40038E-002	0.00000E+000	3.74289E-002	3.39192E-001	3.56684E-002	3.71129E+001	11	...........	5.95225E-002	-4.08611E-003	5.63926E-001	6.54503E-001	-3.03831E-002	-3.95506E-002	6.50298E-001	-4.34646E-002	2.02399E-003	-1.38943E-004	1.91757E-002	2.22556E-002	-1.03314E-003	-1.34487E-003	2.21126E-002	-1.47796E-003
	35	35	1.10061E+000	3.38483E-002	0.00000E+000	3.72538E-002	3.37647E-001	3.59453E-002	3.71316E+001	11	...........	5.99986E-002	-3.95847E-003	5.63851E-001	6.54473E-001	-3.03985E-002	-3.95687E-002	6.50411E-001	-4.34239E-002	2.03085E-003	-1.33988E-004	1.90854E-002	2.21528E-002	-1.02894E-003	-1.33934E-003	2.20153E-002	-1.46983E-003
	36	36	1.10064E+000	3.39851E-002	0.00000E+000	3.74053E-002	3.39005E-001	3.58662E-002	3.69768E+001	11	...........	5.98161E-002	-3.96528E-003	5.63854E-001	6.54534E-001	-3.04199E-002	-3.95878E-002	6.50465E-001	-4.34786E-002	2.03286E-003	-1.34760E-004	1.91626E-002	2.22444E-002	-1.03382E-003	-1.34540E-003	2.21061E-002	-1.47763E-003
	37	37	1.10073E+000	3.36889E-002	0.00000E+000	3.70822E-002	3.36059E-001	3.53052E-002	3.73022E+001	11	...........	5.89194E-002	-3.99375E-003	5.63908E-001	6.54651E-001	-3.03714E-002	-3.95749E-002	6.50535E-001	-4.34154E-002	1.98493E-003	-1.34545E-004	1.89974E-002	2.20545E-002	-1.02318E-003	-1.33323E-003	2.19158E-002	-1.46262E-003
	38	38	1.10061E+000	3.35257E-002	0.00000E+000	3.68987E-002	3.34433E-001	3.59992E-002	3.51290E+001	11	...........	6.00526E-002	-3.93194E-003	5.64188E-001	6.54700E-001	-3.03411E-002	-3.95714E-002	6.50536E-001	-4.34039E-002	2.01330E-003	-1.31821E-004	1.89148E-002	2.19493E-002	-1.01721E-003	-1.32666E-003	2.18097E-002	-1.45514E-003
	39	39	1.10064E+000	3.37493E-002	0.00000E+000	3.71457E-002	3.36661E-001	3.56803E-002	3.78737E+001	11	...........	5.95369E-002	-4.00819E-003	5.64212E-001	6.54697E-001	-3.03583E-002	-3.95674E-002	6.50505E-001	-4.34158E-002	2.00933E-003	-1.35274E-004	1.90418E-002	2.20956E-002	-1.02457E-003	-1.33537E-003	2.19541E-002	-1.46525E-003
	40	40	1.10072E+000	3.34297E-002	0.00000E+000	3.67968E-002	3.33487E-001	3.57428E-002	3.66599E+001	11	...........	5.96349E-002	-4.04069E-003	5.64197E-001	6.54605E-001	-3.03547E-002	-3.95711E-002	6.50555E-001	-4.34083E-002	1.99357E-003	-1.35079E-004	1.88609E-002	2.18832E-002	-1.01475E-003	-1.32285E-003	2.17478E-002	-1.45113E-003
	41	41	1.10061E+000	3.32384E-002	0.00000E+000	3.65825E-002	3.31582E-001	3.54763E-002	3.49676E+001	11	...........	5.91910E-002	-4.01361E-003	5.64228E-001	6.54569E-001	-3.03490E-002	-3.95599E-002	6.50459E-001	-4.34083E-002	1.96741E-003	-1.33406E-004	1.87540E-002	2.17568E-002	-1.00875E-003	-1.31491E-003	2.16202E-002	-1.44282E-003
	42	42	1.10064E+000	3.34029E-002	0.00000E+000	3.67645E-002	3.33223E-001	3.55673E-002	3.63915E+001	11	...........	5.93507E-002	-3.97472E-003	5.64186E-001	6.54393E-001	-3.03175E-002	-3.95690E-002	6.50353E-001	-4.33989E-002	1.98249E-003	-1.32767E-004	1.88454E-002	2.18586E-002	-1.01269E-003	-1.32172E-003	2.17237E-002	-1.44965E-003
	43	43	1.10072E+000	3.31917E-002	0.00000E+000	3.65348E-002	3.31119E-001	3.58979E-002	3.63160E+001	11	...........	5.99201E-002	-3.96944E-003	5.63940E-001	6.54338E-001	-3.02879E-002	-3.95625E-002	6.50368E-001	-4.33576E-002	1.98885E-003	-1.31753E-004	1.87182E-002	2.17186E-002	-1.00531E-003	-1.31315E-003	2.15868E-002	-1.43912E-003
	44	44	1.10062E+000	3.29890E-002	0.00000E+000	3.63082E-002	3.29101E-001	3.53012E-002	3.76843E+001	11	...........	5.88781E-002	-3.96431E-003	5.63945E-001	6.54519E-001	-3.02872E-002	-3.95729E-002	6.50508E-001	-4.33729E-002	1.94233E-003	-1.30778E-004	1.86040E-002	2.15919E-002	-9.99145E-004	-1.30547E-003	2.14596E-002	-1.43083E-003
	45	45	1.10063E+000	3.30575E-002	0.00000E+000	3.63843E-002	3.29785E-001	3.56962E-002	3.63313E+001	11	...........	5.95544E-002	-3.94181E-003	5.63930E-001	6.54521E-001	-3.02846E-002	-3.95907E-002	6.50575E-001	-4.34368E-002	1.96872E-003	-1.30306E-004	1.86421E-002	2.16368E-002	-1.00113E-003	-1.30877E-003	2.15064E-002	-1.43591E-003
	46	46	1.10072E+000	3.28840E-002	0.00000E+000	3.61961E-002	3.28059E-001	3.58067E-002	3.61840E+001	11	...........	5.97446E-002	-3.86472E-003	5.63927E-001	6.54652E-001	-3.02290E-002	-3.95967E-002	6.50314E-001	-4.34653E-002	1.96464E-003	-1.27088E-004	1.85442E-002	2.15276E-002	-9.94052E-004	-1.30210E-003	2.13849E-002	-1.42931E-003
	47	47	1.10062E+000	3.27091E-002	0.00000E+000	3.60002E-002	3.26321E-001	3.55108E-002	3.64958E+001	11	...........	5.92281E-002	-3.85194E-003	5.63931E-001	6.54752E-001	-3.02579E-002	-3.95893E-002	6.50238E-001	-4.34446E-002	1.93730E-003	-1.25994E-004	1.84457E-002	2.14164E-002	-9.89711E-004	-1.29493E-003	2.12687E-002	-1.42104E-003
	48	48	1.10063E+000	3.28453E-002	0.00000E+000	3.61507E-002	3.27675E-001	3.54021E-002	3.72383E+001	11	...........	5.90499E-002	-3.91917E-003	5.63937E-001	6.54770E-001	-3.02451E-002	-3.95875E-002	6.50362E-001	-4.34711E-002	1.93951E-003	-1.28726E-004	1.85227E-002	2.15061E-002	-9.93410E-004	-1.30026E-003	2.13613E-002	-1.42782E-003
	49	49	1.10072E+000	3.26568E-002	0.00000E+000	3.59459E-002	3.25800E-001	3.59009E-002	3.60767E+001	11	...........	5.98939E-002	-3.90292E-003	5.63946E-001	6.54719E-001	-3.02239E-002	-3.96092E-002	6.50330E-001	-4.34796E-002	1.95594E-003	-1.27457E-004	1.84167E-002	2.13810E-002	-9.87015E-004	-1.29351E-003	2.12377E-002	-1.41990E-003
	50	50	1.10062E+000	3.23842E-002	0.00000E+000	3.56427E-002	3.23090E-001	3.52202E-002	3.68338E+001	11	...........	5.87562E-002	-3.90833E-003	5.63825E-001	6.54624E-001	-3.01650E-002	-3.95761E-002	6.50354E-001	-4.34651E-002	1.90277E-003	-1.26568E-004	1.82590E-002	2.11995E-002	-9.76869E-004	-1.28164E-003	2.10612E-002	-1.40758E-003
	51	51	1.10063E+000	3.25724E-002	0.00000E+000	3.58503E-002	3.24963E-001	3.57637E-002	3.76004E+001	11	...........	5.96832E-002	-3.99722E-003	5.63733E-001	6.54677E-001	-3.02100E-002	-3.95561E-002	6.50294E-001	-4.34081E-002	1.94403E-003	-1.30199E-004	1.83622E-002	2.13244E-002	-9.84013E-004	-1.28844E-003	2.11816E-002	-1.41391E-003
	52	52	1.10071E+000	3.23950E-002	0.00000E+000	3.56576E-002	3.23200E-001	3.57273E-002	3.67494E+001	11	...........	5.95999E-002	-4.01639E-003	5.63787E-001	6.54722E-001	-3.02317E-002	-3.95669E-002	6.50272E-001	-4.32983E-002	1.93073E-003	-1.30111E-004	1.82638E-002	2.12097E-002	-9.79354E-004	-1.28177E-003	2.10655E-002	-1.40265E-003
	53	53	1.10063E+000	3.21555E-002	0.00000E+000	3.53912E-002	3.20818E-001	3.52807E-002	3.63992E+001	11	...........	5.88469E-002	-3.92556E-003	5.63772E-001	6.54716E-001	-3.02271E-002	-3.95989E-002	6.50239E-001	-4.33500E-002	1.89225E-003	-1.26228E-004	1.81284E-002	2.10527E-002	-9.71966E-004	-1.27332E-003	2.09088E-002	-1.39394E-003
	54	54	1.10063E+000	3.23205E-002	0.00000E+000	3.55729E-002	3.22456E-001	3.54745E-002	3.72938E+001	11	...........	5.91697E-002	-3.90083E-003	5.63761E-001	6.54763E-001	-3.02487E-002	-3.95960E-002	6.50328E-001	-4.32912E-002	1.91239E-003	-1.26077E-004	1.82210E-002	2.11622E-002	-9.77654E-004	-1.27976E-003	2.10189E-002	-1.39919E-003
	55	55	1.10071E+000	3.21803E-002	0.00000E+000	3.54212E-002	3.21065E-001	3.56301E-002	3.70566E+001	11	...........	5.94304E-002	-3.87472E-003	5.63744E-001	6.54816E-001	-3.02358E-002	-3.95754E-002	6.50579E-001	-4.32332E-002	1.91249E-003	-1.24690E-004	1.81414E-002	2.10722E-002	-9.72997E-004	-1.27355E-003	2.09358E-002	-1.39126E-003
	56	56	1.10063E+000	3.19053E-002	0.00000E+000	3.51159E-002	3.18329E-001	3.56610E-002	3.60334E+001	11	...........	5.95057E-002	-3.84208E-003	5.63623E-001	6.54839E-001	-3.02440E-002	-3.95487E-002	6.50557E-001	-4.32567E-002	1.89855E-003	-1.22583E-004	1.79826E-002	2.08928E-002	-9.64945E-004	-1.26181E-003	2.07562E-002	-1.38012E-003
	57	57	1.10063E+000	3.20409E-002	0.00000E+000	3.52652E-002	3.19675E-001	3.52259E-002	3.74042E+001	11	...........	5.87665E-002	-3.83319E-003	5.63462E-001	6.54680E-001	-3.02842E-002	-3.95521E-002	6.50418E-001	-4.34019E-002	1.88293E-003	-1.22819E-004	1.80538E-002	2.09765E-002	-9.70332E-004	-1.26728E-003	2.08400E-002	-1.39064E-003
	58	58	1.10072E+000	3.18524E-002	0.00000E+000	3.50604E-002	3.17799E-001	3.55699E-002	3.61594E+001	11	...........	5.93368E-002	-3.83278E-003	5.63397E-001	6.54557E-001	-3.03144E-002	-3.95546E-002	6.50501E-001	-4.34242E-002	1.89002E-003	-1.22083E-004	1.79455E-002	2.08492E-002	-9.65587E-004	-1.25991E-003	2.07200E-002	-1.38316E-003
	59	59	1.10063E+000	3.16052E-002	0.00000E+000	3.47856E-002	3.15343E-001	3.55668E-002	3.65473E+001	11	...........	5.93333E-002	-3.87250E-003	5.63209E-001	6.54394E-001	-3.03250E-002	-3.95496E-002	6.50596E-001	-4.33833E-002	1.87524E-003	-1.22391E-004	1.78003E-002	2.06822E-002	-9.58428E-004	-1.24997E-003	2.05622E-002	-1.37114E-003
	60	60	1.10063E+000	3.17951E-002	0.00000E+000	3.49946E-002	3.17234E-001	3.52010E-002	3.72639E+001	11	...........	5.87128E-002	-3.83986E-003	5.63438E-001	6.54504E-001	-3.03260E-002	-3.95471E-002	6.50629E-001	-4.34101E-002	1.86678E-003	-1.22089E-004	1.79146E-002	2.08100E-002	-9.64216E-004	-1.25740E-003	2.06868E-002	-1.38023E-003
	61	61	1.10071E+000	3.15734E-002	0.00000E+000	3.47532E-002	3.15031E-001	3.58336E-002	3.67659E+001	11	...........	5.97631E-002	-3.83597E-003	5.63428E-001	6.54253E-001	-3.03649E-002	-3.95579E-002	6.50572E-001	-4.34225E-002	1.88693E-003	-1.21115E-004	1.77894E-002	2.06570E-002	-9.58723E-004	-1.24898E-003	2.05408E-002	-1.37100E-003
	62	62	1.10063E+000	3.13121E-002	0.00000E+000	3.44632E-002	3.12437E-001	3.51043E-002	3.63286E+001	11	...........	5.85360E-002	-3.89347E-003	5.63388E-001	6.54283E-001	-3.03469E-002	-3.95583E-002	6.50368E-001	-4.34464E-002	1.83289E-003	-1.21913E-004	1.76409E-002	2.04870E-002	-9.50227E-004	-1.23866E-003	2.03644E-002	-1.36040E-003
	63	63	1.10063E+000	3.15068E-002	0.00000E+000	3.46772E-002	3.14371E-001	3.57567E-002	3.51206E+001	11	...........	5.96593E-002	-3.93611E-003	5.63504E-001	6.54439E-001	-3.03676E-002	-3.95617E-002	6.50319E-001	-4.34057E-002	1.87967E-003	-1.24014E-004	1.77542E-002	2.06193E-002	-9.56787E-004	-1.24646E-003	2.04895E-002	-1.36757E-003
	64	64	1.10071E+000	3.13076E-002	0.00000E+000	3.44606E-002	3.12395E-001	3.52110E-002	3.66997E+001	11	...........	5.87371E-002	-3.97444E-003	5.63569E-001	6.54456E-001	-3.03604E-002	-3.95529E-002	6.50430E-001	-4.34396E-002	1.83892E-003	-1.24430E-004	1.76440E-002	2.04895E-002	-9.50513E-004	-1.23831E-003	2.03634E-002	-1.35999E-003
	65	65	1.10064E+000	3.10928E-002	0.00000E+000	3.42219E-002	3.10259E-001	3.55299E-002	3.68177E+001	11	...........	5.92636E-002	-3.96125E-003	5.63625E-001	6.54666E-001	-3.03467E-002	-3.95612E-002	6.50278E-001	-4.34724E-002	1.84267E-003	-1.23166E-004	1.75247E-002	2.03554E-002	-9.43562E-004	-1.23007E-003	2.02189E-002	-1.35168E-003
	66	66	1.10063E+000	3.11751E-002	0.00000E+000	3.43121E-002	3.11073E-001	3.53160E-002	3.59936E+001	11	...........	5.89144E-002	-3.91000E-003	5.63678E-001	6.54777E-001	-3.03551E-002	-3.95997E-002	6.50290E-001	-4.34180E-002	1.83666E-003	-1.21894E-004	1.75727E-002	2.04127E-002	-9.46323E-004	-1.23452E-003	2.02728E-002	-1.35356E-003
	67	67	1.10071E+000	3.10969E-002	0.00000E+000	3.42286E-002	3.10293E-001	3.50821E-002	3.65813E+001	11	...........	5.85297E-002	-3.97431E-003	5.63732E-001	6.54826E-001	-3.03712E-002	-3.95933E-002	6.50337E-001	-4.34414E-002	1.82010E-003	-1.23589E-004	1.75303E-002	2.03631E-002	-9.44453E-004	-1.23123E-003	2.02235E-002	-1.35089E-003
	68	68	1.10064E+000	3.08755E-002	0.00000E+000	3.39828E-002	3.08094E-001	3.54355E-002	3.70270E+001	11	...........	5.90867E-002	-3.96250E-003	5.63781E-001	6.54813E-001	-3.03472E-002	-3.95857E-002	6.50368E-001	-4.34135E-002	1.82433E-003	-1.22344E-004	1.74070E-002	2.02177E-002	-9.36986E-004	-1.22223E-003	2.00804E-002	-1.34041E-003
	69	69	1.10063E+000	3.10170E-002	0.00000E+000	3.41382E-002	3.09500E-001	3.56627E-002	3.54772E+001	11	...........	5.94908E-002	-3.85583E-003	5.63766E-001	6.54763E-001	-3.03717E-002	-3.95737E-002	6.50384E-001	-4.34735E-002	1.84523E-003	-1.19596E-004	1.74863E-002	2.03088E-002	-9.42037E-004	-1.22746E-003	2.01730E-002	-1.34842E-003
	70	70	1.10070E+000	3.08538E-002	0.00000E+000	3.39609E-002	3.07876E-001	3.51814E-002	3.64943E+001	11	...........	5.86906E-002	-3.88333E-003	5.63774E-001	6.54795E-001	-3.03443E-002	-3.95800E-002	6.50385E-001	-4.34099E-002	1.81083E-003	-1.19816E-004	1.73946E-002	2.02029E-002	-9.36237E-004	-1.22119E-003	2.00668E-002	-1.33936E-003
	71	71	1.10064E+000	3.05931E-002	0.00000E+000	3.36719E-002	3.05283E-001	3.55715E-002	3.75429E+001	11	...........	5.93244E-002	-3.98750E-003	5.63874E-001	6.54768E-001	-3.03279E-002	-3.95893E-002	6.50312E-001	-4.34179E-002	1.81492E-003	-1.21990E-004	1.72506E-002	2.00314E-002	-9.27824E-004	-1.21116E-003	1.98951E-002	-1.32829E-003
	72	72	1.10063E+000	3.06777E-002	0.00000E+000	3.37648E-002	3.06130E-001	3.49810E-002	3.55854E+001	11	...........	5.83424E-002	-4.13194E-003	5.63922E-001	6.54463E-001	-3.03132E-002	-3.95844E-002	6.50416E-001	-4.34781E-002	1.78981E-003	-1.26759E-004	1.72998E-002	2.00774E-002	-9.29940E-004	-1.21436E-003	1.99533E-002	-1.33381E-003
	73	73	1.10070E+000	3.06426E-002	0.00000E+000	3.37284E-002	3.05777E-001	3.51960E-002	3.67707E+001	11	...........	5.87164E-002	-4.25792E-003	5.64089E-001	6.54308E-001	-3.03725E-002	-3.95636E-002	6.50390E-001	-4.34710E-002	1.79922E-003	-1.30474E-004	1.72852E-002	2.00497E-002	-9.30693E-004	-1.21233E-003	1.99297E-002	-1.33206E-003
	74	74	1.10064E+000	3.03991E-002	0.00000E+000	3.34586E-002	3.03356E-001	3.58243E-002	3.78701E+001	11	...........	5.97664E-002	-4.21472E-003	5.64324E-001	6.53980E-001	-3.03740E-002	-3.95639E-002	6.50407E-001	-4.35236E-002	1.81684E-003	-1.28124E-004	1.71549E-002	1.98804E-002	-9.23343E-004	-1.20271E-003	1.97718E-002	-1.32308E-003
	75	75	1.10062E+000	3.04709E-002	0.00000E+000	3.35370E-002	3.04073E-001	3.50328E-002	3.66872E+001	11	...........	5.84435E-002	-4.23500E-003	5.64344E-001	6.53981E-001	-3.03783E-002	-3.95858E-002	6.50511E-001	-4.34822E-002	1.78082E-003	-1.29044E-004	1.71960E-002	1.99274E-002	-9.25654E-004	-1.20621E-003	1.98216E-002	-1.32494E-003
	76	76	1.10070E+000	3.03304E-002	0.00000E+000	3.33847E-002	3.02675E-001	3.52412E-002	3.58824E+001	11	...........	5.87978E-002	-4.06361E-003	5.64263E-001	6.53896E-001	-3.03843E-002	-3.95849E-002	6.50507E-001	-4.34371E-002	1.78336E-003	-1.23251E-004	1.71143E-002	1.98329E-002	-9.21567E-004	-1.20062E-003	1.97301E-002	-1.31746E-003
	77	77	1.10064E+000	3.00824E-002	0.00000E+000	3.31100E-002	3.00210E-001	3.50085E-002	3.70248E+001	11	...........	5.84035E-002	-4.00833E-003	5.64302E-001	6.53852E-001	-3.04394E-002	-3.95740E-002	6.50374E-001	-4.33751E-002	1.75691E-003	-1.20580E-004	1.69755E-002	1.96694E-002	-9.15691E-004	-1.19048E-003	1.95648E-002	-1.30483E-003
	78	78	1.10063E+000	3.02735E-002	0.00000E+000	3.33197E-002	3.02107E-001	3.56683E-002	3.70900E+001	11	...........	5.94921E-002	-4.04972E-003	5.64283E-001	6.53868E-001	-3.04679E-002	-3.95632E-002	6.50325E-001	-4.34056E-002	1.80103E-003	-1.22599E-004	1.70828E-002	1.97949E-002	-9.22369E-004	-1.19771E-003	1.96876E-002	-1.31404E-003
	79	79	1.10070E+000	3.01254E-002	0.00000E+000	3.31590E-002	3.00636E-001	3.50713E-002	3.54695E+001	11	...........	5.85107E-002	-4.07778E-003	5.64253E-001	6.53860E-001	-3.04576E-002	-3.95486E-002	6.50309E-001	-4.34969E-002	1.76266E-003	-1.22845E-004	1.69983E-002	1.96978E-002	-9.17548E-004	-1.19142E-003	1.95908E-002	-1.31036E-003
	80	80	1.10065E+000	2.98385E-002	0.00000E+000	3.28418E-002	2.97782E-001	3.50807E-002	3.58707E+001	11	...........	5.85451E-002	-4.17236E-003	5.64347E-001	6.53821E-001	-3.04356E-002	-3.95460E-002	6.50405E-001	-4.34865E-002	1.74690E-003	-1.24497E-004	1.68393E-002	1.95091E-002	-9.08152E-004	-1.17999E-003	1.94071E-002	-1.29757E-003
	81	81	1.10062E+000	3.00584E-002	0.00000E+000	3.30830E-002	2.99963E-001	3.58202E-002	3.74112E+001	11	...........	5.97710E-002	-4.18500E-003	5.64346E-001	6.53874E-001	-3.04335E-002	-3.95451E-002	6.50491E-001	-4.34603E-002	1.79662E-003	-1.25794E-004	1.69633E-002	1.96544E-002	-9.14780E-004	-1.18866E-003	1.95527E-002	-1.30634E-003
	82	82	1.10070E+000	2.98965E-002	0.00000E+000	3.29070E-002	2.98358E-001	3.49957E-002	3.50513E+001	11	...........	5.83897E-002	-4.17264E-003	5.64262E-001	6.53847E-001	-3.04431E-002	-3.95461E-002	6.50454E-001	-4.34468E-002	1.74565E-003	-1.24747E-004	1.68695E-002	1.95477E-002	-9.10141E-004	-1.18229E-003	1.94463E-002	-1.29891E-003
	83	83	1.10065E+000	2.95274E-002	0.00000E+000	3.24995E-002	2.94689E-001	3.50853E-002	3.52028E+001	11	...........	5.85517E-002	-4.00250E-003	5.64088E-001	6.53896E-001	-3.04882E-002	-3.95321E-002	6.50465E-001	-4.34267E-002	1.72888E-003	-1.18184E-004	1.66561E-002	1.93079E-002	-9.00238E-004	-1.16728E-003	1.92066E-002	-1.28228E-003
	84	84	1.10062E+000	2.97648E-002	0.00000E+000	3.27597E-002	2.97046E-001	3.51809E-002	3.50593E+001	11	...........	5.86767E-002	-4.06444E-003	5.64019E-001	6.53942E-001	-3.05235E-002	-3.95250E-002	6.50441E-001	-4.33504E-002	1.74650E-003	-1.20977E-004	1.67879E-002	1.94644E-002	-9.08524E-004	-1.17645E-003	1.93602E-002	-1.29031E-003
	85	85	1.10070E+000	2.97030E-002	0.00000E+000	3.26940E-002	2.96434E-001	3.54533E-002	3.52347E+001	11	...........	5.91532E-002	-4.04333E-003	5.63982E-001	6.54133E-001	-3.04804E-002	-3.95121E-002	6.50527E-001	-4.32836E-002	1.75703E-003	-1.20099E-004	1.67520E-002	1.94297E-002	-9.05361E-004	-1.17363E-003	1.93226E-002	-1.28565E-003
	86	86	1.10065E+000	2.93726E-002	0.00000E+000	3.23291E-002	2.93145E-001	3.50712E-002	3.61484E+001	11	...........	5.84992E-002	-4.06069E-003	5.64100E-001	6.54168E-001	-3.04374E-002	-3.95161E-002	6.50684E-001	-4.33125E-002	1.71827E-003	-1.19273E-004	1.65691E-002	1.92146E-002	-8.94025E-004	-1.16069E-003	1.91123E-002	-1.27220E-003
	87	87	1.10062E+000	2.95146E-002	0.00000E+000	3.24845E-002	2.94558E-001	3.52960E-002	3.66136E+001	11	...........	5.88804E-002	-4.04236E-003	5.64037E-001	6.54220E-001	-3.04801E-002	-3.95285E-002	6.50727E-001	-4.34296E-002	1.73783E-003	-1.19309E-004	1.66474E-002	1.93090E-002	-8.99610E-004	-1.16667E-003	1.92060E-002	-1.28181E-003
	88	88	1.10069E+000	2.93969E-002	0.00000E+000	3.23569E-002	2.93388E-001	3.46632E-002	3.61064E+001	11	...........	5.78137E-002	-3.96319E-003	5.63966E-001	6.53981E-001	-3.05164E-002	-3.95289E-002	6.50620E-001	-4.33879E-002	1.69955E-003	-1.16506E-004	1.65789E-002	1.92250E-002	-8.97088E-004	-1.16203E-003	1.91262E-002	-1.27547E-003
	89	89	1.10066E+000	2.91531E-002	0.00000E+000	3.20875E-002	2.90967E-001	3.55164E-002	3.61807E+001	11	...........	5.92476E-002	-3.96750E-003	5.63989E-001	6.53853E-001	-3.05415E-002	-3.95125E-002	6.50632E-001	-4.34719E-002	1.72725E-003	-1.15665E-004	1.64420E-002	1.90618E-002	-8.90379E-004	-1.15191E-003	1.89679E-002	-1.26734E-003
	90	90	1.10062E+000	2.92644E-002	0.00000E+000	3.22090E-002	2.92076E-001	3.49835E-002	3.67002E+001	11	...........	5.83478E-002	-4.02917E-003	5.64031E-001	6.53890E-001	-3.04711E-002	-3.95036E-002	6.50704E-001	-4.35218E-002	1.70751E-003	-1.17911E-004	1.65060E-002	1.91357E-002	-8.91720E-004	-1.15605E-003	1.90425E-002	-1.27364E-003
	91	90.4683	1.10080E+000	2.92570E-002	0.00000E+000	3.22061E-002	2.92001E-001	3.55254E-002	3.58226E+001	11	...........	5.92553E-002	-4.04270E-003	5.64079E-001	6.53896E-001	-3.05136E-002	-3.95009E-002	6.50668E-001	-4.34789E-002	1.73364E-003	-1.18278E-004	1.65033E-002	1.91310E-002	-8.92739E-004	-1.15568E-003	1.90366E-002	-1.27206E-003
STARTTIMEOFFSET	QUANT	458754.9	Start Time Offset (s)
