EXPLAIN
TAG	PWR800_CHARGE
TITLE	LABEL	PWR Charge	Test Identifier
DATE	LABEL	10/13/2022	Date
TIME	LABEL	7:05:26	Time
NOTES	NOTES	1	Notes...
	
PSTAT	PSTAT	REF3000-21114	Potentiostat
CAPACITY	QUANT	5.30000E-002	Capacity (A-hr)
CELLTYPE	SELECTOR	1	Cell Type
WORKINGCONNECTION	SELECTOR	0	Working Connection
MAXCHARGETIME	VARIABLEANDUNITS	7.20000E+003	s	2.00000E+000	hour(s)	Max Charge Time
CHARGEMODE	MULTIPARAM	0	1.00000E-001	Charge Mode	Constant Current	Amp(s)
CHARGECURRENT	QUANT	0.1	Charge Current (A)
VOLTAGEFINISH	TWOPARAM	T	2.50000E-002	7.20000E+003	Voltage Finish	I (A) <	Max Time(s)
SAMPLETIME	QUANT	1.00000E+000	Sample Period (s)
CHARGESTOPAT1	MULTIPARAM	2	1.10000E+000	Stop At 1	|Voltage| > Limit	V
CHARGESTOPAT2	MULTIPARAM	0	0.00000E+000	Stop At 2	None	N/A
AESELECTOR	AESELECTOR	0x1	T	Set Limits	AE Channels
AESBHCSELECTOR	TOGGLE	F	Save Both Half Cells
IRCOMP	TOGGLE	F	IR Measure
EOC	QUANT	0.1657085	Open Circuit (V)
SEQUENCER	TOGGLE	TRUE	Run as Sequence
PSTATMODEL	IQUANT	5	Pstat Model
PSTATSECTION	LABEL	REF3000-21114	Pstat Section
PSTATSERIALNO	LABEL	21114	Pstat Serial Number
CTRLMODE	IQUANT	0	Control Mode
ELECTROMETER	IQUANT	0	RE=0 or CS=1
IESTAB	IQUANT	0	I/E Stability
CASPEED	IQUANT	4	Control Amp Speed
CONVENTION	IQUANT	1	Current Convention
ICHRANGE	IQUANT	2	Ich Range
ICHRANGEMODE	TOGGLE	T	Ich Auto Range
ICHOFFSETENABLE	TOGGLE	F	Ich Offset Enable
ICHOFFSET	QUANT	0	Ich Offset (V)
ICHFILTER	IQUANT	1	Ich Filter
VCHRANGE	IQUANT	3	Vch Range
VCHRANGEMODE	TOGGLE	T	Vch Auto Range
VCHOFFSETENABLE	TOGGLE	F	Vch Offset Enable
VCHOFFSET	QUANT	0	Vch Offset (V)
VCHFILTER	IQUANT	1	Vch Filter
ACHRANGE	IQUANT	2	Ach Range
ACHOFFSETENABLE	TOGGLE	F	Ach Offset Enable
ACHOFFSET	QUANT	0	Ach Offset (V)
ACHFILTER	IQUANT	1	Ach Filter
IERANGELOWERLIMIT	IQUANT	9	I/E Range Lower Limit
IERANGEMODE	TOGGLE	F	I/E AutoRange
IERANGE	IQUANT	9	I/E Range
POSFEEDENABLE	TOGGLE	F	Positive Feedback IR Comp
POSFEEDRESISTANCE	QUANT	0	Positive Feedback Resistance (ohm)
ACHSELECT	IQUANT	1	Ach Select
SENSECABLEID	IQUANT	13	Sense Cable ID
PWRCABLEID	IQUANT	13	Power Cable ID
DCCALDATE	LABEL		DC Calibration Date
ACCALDATE	LABEL		AC Calibration Date
THERMOSELECT	IQUANT	1	Thermo Select
FRAMEWORKVERSION	LABEL	7.8.6	Framework Version
INSTRUMENTVERSION	LABEL	4.50	Instrument Version
COMPLIANCEVOLTAGE	IQUANT	0	Compliance Voltage
CURVE	TABLE	174
	Pt	T	Vf	Im	Vu	Pwr	Sig	Ach	Temp	IERange	Over	Vf1	Vf2	Vf3	Vf4	Vf5	Vf6	Vf7	Vf8	Pwr1	Pwr2	Pwr3	Pwr4	Pwr5	Pwr6	Pwr7	Pwr8
	#	s	V	A	V	W	V	V	deg C	#	bits	V	V	V	V	V	V	V	V	W	W	W	W	W	W	W	W
	0	1	4.50315E-001	9.98640E-002	0.00000E+000	4.49702E-002	9.94000E-001	4.27292E-002	4.14266E+001	11	...........	7.09910E-002	-5.17917E-003	5.94529E-001	5.58503E-001	-2.78925E-002	-3.89879E-002	6.92216E-001	-4.39911E-002	7.08944E-003	-5.17212E-004	5.93720E-002	5.57743E-002	-2.78546E-003	-3.89349E-003	6.91274E-002	-4.39313E-003
	1	2	6.06915E-001	9.98645E-002	0.00000E+000	6.06093E-002	9.94000E-001	4.28866E-002	4.32427E+001	11	...........	7.12407E-002	-5.22042E-003	5.94701E-001	5.58633E-001	-2.79287E-002	-3.89765E-002	6.92435E-001	-4.40458E-002	7.11442E-003	-5.21334E-004	5.93895E-002	5.57876E-002	-2.78909E-003	-3.89237E-003	6.91497E-002	-4.39862E-003
	2	2.96833	9.12594E-001	9.98653E-002	0.00000E+000	9.11364E-002	9.94000E-001	4.38137E-002	4.95205E+001	11	...........	7.27957E-002	-5.38153E-003	5.94916E-001	5.58624E-001	-2.79009E-002	-3.89606E-002	6.92445E-001	-4.40463E-002	7.26977E-003	-5.37428E-004	5.94114E-002	5.57872E-002	-2.78633E-003	-3.89081E-003	6.91512E-002	-4.39870E-003
	3	3	1.10110E+000	9.73756E-002	0.00000E+000	1.07220E-001	9.69242E-001	4.41737E-002	5.37418E+001	11	...........	7.33596E-002	-5.45175E-003	5.95053E-001	5.58820E-001	-2.79211E-002	-3.89474E-002	6.92518E-001	-4.40614E-002	7.14344E-003	-5.30868E-004	5.79436E-002	5.44155E-002	-2.71883E-003	-3.79253E-003	6.74343E-002	-4.29051E-003
	4	4	1.10047E+000	7.21611E-002	0.00000E+000	7.94111E-002	7.18537E-001	4.36090E-002	5.27111E+001	11	...........	7.24228E-002	-5.33528E-003	5.95028E-001	5.58815E-001	-2.79165E-002	-3.89469E-002	6.92399E-001	-4.39936E-002	5.22611E-003	-3.85000E-004	4.29379E-002	4.03247E-002	-2.01449E-003	-2.81046E-003	4.99643E-002	-3.17463E-003
	5	5	1.10024E+000	5.89505E-002	0.00000E+000	6.48597E-002	5.87171E-001	4.35323E-002	5.16709E+001	11	...........	7.22919E-002	-5.09472E-003	5.94790E-001	5.58760E-001	-2.79156E-002	-3.89492E-002	6.92249E-001	-4.38274E-002	4.26165E-003	-3.00336E-004	3.50631E-002	3.29392E-002	-1.64564E-003	-2.29607E-003	4.08084E-002	-2.58364E-003
	6	6	1.10010E+000	5.43708E-002	0.00000E+000	5.98134E-002	5.41637E-001	4.32593E-002	5.10025E+001	11	...........	7.22758E-002	-5.09403E-003	5.94780E-001	5.58710E-001	-2.79293E-002	-3.89751E-002	6.92219E-001	-4.39193E-002	3.92970E-003	-2.76966E-004	3.23387E-002	3.03775E-002	-1.51854E-003	-2.11911E-003	3.76365E-002	-2.38793E-003
	7	7	1.10018E+000	5.14880E-002	0.00000E+000	5.66459E-002	5.12973E-001	4.34972E-002	5.04111E+001	11	...........	7.22269E-002	-5.06875E-003	5.94629E-001	5.58552E-001	-2.79599E-002	-3.89771E-002	6.92263E-001	-4.38393E-002	3.71882E-003	-2.60980E-004	3.06163E-002	2.87588E-002	-1.43960E-003	-2.00685E-003	3.56433E-002	-2.25720E-003
	8	8	1.10020E+000	4.89029E-002	0.00000E+000	5.38029E-002	4.87274E-001	4.34797E-002	4.99395E+001	11	...........	7.21985E-002	-5.08778E-003	5.94557E-001	5.58533E-001	-2.79383E-002	-3.89606E-002	6.92184E-001	-4.39557E-002	3.53071E-003	-2.48807E-004	2.90756E-002	2.73139E-002	-1.36626E-003	-1.90528E-003	3.38498E-002	-2.14956E-003
	9	9	1.10008E+000	4.76261E-002	0.00000E+000	5.23924E-002	4.74585E-001	4.34459E-002	4.95439E+001	11	...........	7.21571E-002	-5.10375E-003	5.94442E-001	5.58330E-001	-2.79549E-002	-3.89353E-002	6.92146E-001	-4.40143E-002	3.43656E-003	-2.43072E-004	2.83109E-002	2.65911E-002	-1.33138E-003	-1.85433E-003	3.29642E-002	-2.09623E-003
	10	10	1.10016E+000	4.65391E-002	0.00000E+000	5.12002E-002	4.63778E-001	4.34298E-002	4.91622E+001	11	...........	7.21386E-002	-5.14222E-003	5.94440E-001	5.58154E-001	-2.79640E-002	-3.89271E-002	6.92100E-001	-4.40561E-002	3.35726E-003	-2.39314E-004	2.76647E-002	2.59759E-002	-1.30142E-003	-1.81163E-003	3.22097E-002	-2.05033E-003
	11	11	1.10019E+000	4.51838E-002	0.00000E+000	4.97109E-002	4.50302E-001	4.33796E-002	4.88752E+001	11	...........	7.20518E-002	-5.11083E-003	5.94309E-001	5.58146E-001	-2.79533E-002	-3.89228E-002	6.92224E-001	-4.40865E-002	3.25557E-003	-2.30927E-004	2.68531E-002	2.52191E-002	-1.26304E-003	-1.75868E-003	3.12773E-002	-1.99199E-003
	12	12	1.10007E+000	4.47687E-002	0.00000E+000	4.92488E-002	4.46173E-001	4.33536E-002	4.86699E+001	11	...........	7.20046E-002	-5.04764E-003	5.94274E-001	5.58246E-001	-2.79389E-002	-3.89157E-002	6.92201E-001	-4.40261E-002	3.22355E-003	-2.25976E-004	2.66049E-002	2.49919E-002	-1.25079E-003	-1.74221E-003	3.09889E-002	-1.97099E-003
	13	13	1.10014E+000	4.43589E-002	0.00000E+000	4.88012E-002	4.42096E-001	4.33173E-002	4.85029E+001	11	...........	7.19576E-002	-4.91472E-003	5.94220E-001	5.58203E-001	-2.79381E-002	-3.89193E-002	6.92196E-001	-4.40275E-002	3.19196E-003	-2.18012E-004	2.63590E-002	2.47613E-002	-1.23930E-003	-1.72642E-003	3.07051E-002	-1.95301E-003
	14	14	1.10019E+000	4.35521E-002	0.00000E+000	4.79157E-002	4.34081E-001	4.32982E-002	4.83987E+001	11	...........	7.18969E-002	-4.86778E-003	5.94421E-001	5.58177E-001	-2.79133E-002	-3.89393E-002	6.92152E-001	-4.40081E-002	3.13127E-003	-2.12002E-004	2.58883E-002	2.43098E-002	-1.21569E-003	-1.69589E-003	3.01447E-002	-1.91665E-003
	15	15	1.10007E+000	4.34698E-002	0.00000E+000	4.78199E-002	4.33260E-001	4.32595E-002	4.82862E+001	11	...........	7.18690E-002	-4.91125E-003	5.94612E-001	5.58102E-001	-2.79307E-002	-3.88911E-002	6.92168E-001	-4.39789E-002	3.12413E-003	-2.13491E-004	2.58477E-002	2.42606E-002	-1.21414E-003	-1.69059E-003	3.00884E-002	-1.91175E-003
	16	16	1.10014E+000	4.33363E-002	0.00000E+000	4.76759E-002	4.31930E-001	4.32339E-002	4.82078E+001	11	...........	7.17918E-002	-4.97889E-003	5.94652E-001	5.58060E-001	-2.79317E-002	-3.88679E-002	6.92257E-001	-4.39719E-002	3.11119E-003	-2.15767E-004	2.57700E-002	2.41843E-002	-1.21046E-003	-1.68439E-003	2.99999E-002	-1.90558E-003
	17	17	1.10019E+000	4.27724E-002	0.00000E+000	4.70579E-002	4.26323E-001	4.31312E-002	4.81383E+001	11	...........	7.17281E-002	-4.90903E-003	5.94582E-001	5.58038E-001	-2.79492E-002	-3.88590E-002	6.92183E-001	-4.39549E-002	3.06798E-003	-2.09971E-004	2.54317E-002	2.38686E-002	-1.19545E-003	-1.66209E-003	2.96063E-002	-1.88006E-003
	18	18	1.10007E+000	4.28104E-002	0.00000E+000	4.70946E-002	4.26698E-001	4.31490E-002	4.81091E+001	11	...........	7.16732E-002	-5.06014E-003	5.94511E-001	5.58045E-001	-2.79112E-002	-3.88675E-002	6.92164E-001	-4.39632E-002	3.06836E-003	-2.16627E-004	2.54513E-002	2.38902E-002	-1.19489E-003	-1.66393E-003	2.96319E-002	-1.88208E-003
	19	19	1.10013E+000	4.27736E-002	0.00000E+000	4.70566E-002	4.26332E-001	4.31165E-002	4.80461E+001	11	...........	7.16093E-002	-5.14042E-003	5.94605E-001	5.57978E-001	-2.79185E-002	-3.88843E-002	6.92181E-001	-4.39096E-002	3.06298E-003	-2.19874E-004	2.54334E-002	2.38667E-002	-1.19417E-003	-1.66322E-003	2.96070E-002	-1.87817E-003
	20	20	1.10020E+000	4.22713E-002	0.00000E+000	4.65067E-002	4.21339E-001	4.29630E-002	4.79568E+001	11	...........	7.15637E-002	-4.97986E-003	5.94516E-001	5.58043E-001	-2.79735E-002	-3.89015E-002	6.92261E-001	-4.38847E-002	3.02509E-003	-2.10505E-004	2.51309E-002	2.35892E-002	-1.18247E-003	-1.64442E-003	2.92628E-002	-1.85506E-003
	21	21	1.10007E+000	4.22917E-002	0.00000E+000	4.65238E-002	4.21539E-001	4.28194E-002	4.79172E+001	11	...........	7.14754E-002	-4.92139E-003	5.94348E-001	5.58052E-001	-2.79954E-002	-3.89319E-002	6.92323E-001	-4.39781E-002	3.02281E-003	-2.08134E-004	2.51360E-002	2.36010E-002	-1.18397E-003	-1.64650E-003	2.92795E-002	-1.85991E-003
	22	22	1.10013E+000	4.23302E-002	0.00000E+000	4.65687E-002	4.21922E-001	4.27887E-002	4.78857E+001	11	...........	7.14253E-002	-5.12236E-003	5.94553E-001	5.57982E-001	-2.80061E-002	-3.89247E-002	6.92377E-001	-4.40451E-002	3.02344E-003	-2.16830E-004	2.51675E-002	2.36195E-002	-1.18550E-003	-1.64769E-003	2.93084E-002	-1.86444E-003
	23	23	1.10020E+000	4.18646E-002	0.00000E+000	4.60593E-002	4.17294E-001	4.27444E-002	4.78743E+001	11	...........	7.13521E-002	-5.16014E-003	5.94561E-001	5.57959E-001	-2.80003E-002	-3.89139E-002	6.92347E-001	-4.40579E-002	2.98712E-003	-2.16027E-004	2.48910E-002	2.33587E-002	-1.17222E-003	-1.62911E-003	2.89848E-002	-1.84447E-003
	24	24	1.10007E+000	4.18840E-002	0.00000E+000	4.60753E-002	4.17485E-001	4.27142E-002	4.78680E+001	11	...........	7.13037E-002	-5.10375E-003	5.94504E-001	5.58034E-001	-2.80381E-002	-3.89067E-002	6.92421E-001	-4.40560E-002	2.98648E-003	-2.13765E-004	2.49002E-002	2.33727E-002	-1.17435E-003	-1.62957E-003	2.90013E-002	-1.84524E-003
	25	25	1.10013E+000	4.19198E-002	0.00000E+000	4.61172E-002	4.17845E-001	4.27110E-002	4.78267E+001	11	...........	7.12849E-002	-5.12194E-003	5.94376E-001	5.57991E-001	-2.80560E-002	-3.88997E-002	6.92389E-001	-4.40276E-002	2.98825E-003	-2.14711E-004	2.49161E-002	2.33909E-002	-1.17610E-003	-1.63067E-003	2.90248E-002	-1.84563E-003
	26	26	1.10020E+000	4.14575E-002	0.00000E+000	4.56116E-002	4.13246E-001	4.26382E-002	4.77908E+001	11	...........	7.11592E-002	-5.12986E-003	5.94351E-001	5.58145E-001	-2.80986E-002	-3.89061E-002	6.92362E-001	-4.38661E-002	2.95008E-003	-2.12671E-004	2.46403E-002	2.31393E-002	-1.16490E-003	-1.61295E-003	2.87036E-002	-1.81858E-003
	27	27	1.10007E+000	4.14738E-002	0.00000E+000	4.56241E-002	4.13411E-001	4.25921E-002	4.77498E+001	11	...........	7.11068E-002	-5.11194E-003	5.94294E-001	5.58244E-001	-2.81007E-002	-3.89140E-002	6.92401E-001	-4.38568E-002	2.94907E-003	-2.12012E-004	2.46476E-002	2.31525E-002	-1.16544E-003	-1.61391E-003	2.87165E-002	-1.81891E-003
	28	28	1.10013E+000	4.15226E-002	0.00000E+000	4.56800E-002	4.13891E-001	4.25571E-002	4.77251E+001	11	...........	7.10397E-002	-5.11014E-003	5.94295E-001	5.58490E-001	-2.80731E-002	-3.89293E-002	6.92497E-001	-4.38292E-002	2.94975E-003	-2.12186E-004	2.46767E-002	2.31899E-002	-1.16567E-003	-1.61644E-003	2.87543E-002	-1.81990E-003
	29	29	1.10020E+000	4.10935E-002	0.00000E+000	4.52112E-002	4.09630E-001	4.25231E-002	4.76919E+001	11	...........	7.09926E-002	-4.90111E-003	5.94304E-001	5.58384E-001	-2.80675E-002	-3.89786E-002	6.92446E-001	-4.38762E-002	2.91734E-003	-2.01404E-004	2.44221E-002	2.29460E-002	-1.15339E-003	-1.60177E-003	2.84551E-002	-1.80303E-003
	30	30	1.10007E+000	4.10899E-002	0.00000E+000	4.52018E-002	4.09592E-001	4.24846E-002	4.76827E+001	11	...........	7.09054E-002	-5.09278E-003	5.94430E-001	5.58333E-001	-2.80775E-002	-3.89478E-002	6.92484E-001	-4.39425E-002	2.91349E-003	-2.09262E-004	2.44251E-002	2.29418E-002	-1.15370E-003	-1.60036E-003	2.84541E-002	-1.80559E-003
	31	31	1.10012E+000	4.11429E-002	0.00000E+000	4.52623E-002	4.10116E-001	4.24554E-002	4.76431E+001	11	...........	7.08599E-002	-5.06722E-003	5.94627E-001	5.58407E-001	-2.81075E-002	-3.89326E-002	6.92246E-001	-4.39556E-002	2.91538E-003	-2.08480E-004	2.44647E-002	2.29745E-002	-1.15642E-003	-1.60180E-003	2.84810E-002	-1.80846E-003
	32	32	1.10020E+000	4.07334E-002	0.00000E+000	4.48150E-002	4.06045E-001	4.24305E-002	4.76266E+001	11	...........	7.08081E-002	-5.11792E-003	5.94616E-001	5.58415E-001	-2.81111E-002	-3.89150E-002	6.92229E-001	-4.40131E-002	2.88425E-003	-2.08470E-004	2.42207E-002	2.27461E-002	-1.14506E-003	-1.58514E-003	2.81969E-002	-1.79280E-003
	33	33	1.10007E+000	4.07472E-002	0.00000E+000	4.48248E-002	4.06187E-001	4.23787E-002	4.75922E+001	11	...........	7.07410E-002	-5.06361E-003	5.94618E-001	5.58299E-001	-2.81147E-002	-3.89274E-002	6.92466E-001	-4.40339E-002	2.88250E-003	-2.06328E-004	2.42290E-002	2.27491E-002	-1.14560E-003	-1.58618E-003	2.82160E-002	-1.79426E-003
	34	34	1.10012E+000	4.08169E-002	0.00000E+000	4.49036E-002	4.06878E-001	4.23571E-002	4.75811E+001	11	...........	7.06999E-002	-5.11903E-003	5.94706E-001	5.58184E-001	-2.81222E-002	-3.89417E-002	6.92521E-001	-4.40262E-002	2.88575E-003	-2.08943E-004	2.42741E-002	2.27833E-002	-1.14786E-003	-1.58948E-003	2.82666E-002	-1.79701E-003
	35	35	1.10020E+000	4.04248E-002	0.00000E+000	4.44756E-002	4.02983E-001	4.23292E-002	4.75476E+001	11	...........	7.06539E-002	-5.17431E-003	5.94652E-001	5.58161E-001	-2.80911E-002	-3.89268E-002	6.92428E-001	-4.40125E-002	2.85617E-003	-2.09170E-004	2.40387E-002	2.25635E-002	-1.13558E-003	-1.57361E-003	2.79913E-002	-1.77920E-003
	36	36	1.10007E+000	4.04035E-002	0.00000E+000	4.44467E-002	4.02769E-001	4.22856E-002	4.75408E+001	11	...........	7.05928E-002	-5.26403E-003	5.94360E-001	5.58235E-001	-2.80669E-002	-3.89172E-002	6.92483E-001	-4.40017E-002	2.85219E-003	-2.12685E-004	2.40142E-002	2.25546E-002	-1.13400E-003	-1.57239E-003	2.79787E-002	-1.77782E-003
	37	37	1.10012E+000	4.05026E-002	0.00000E+000	4.45578E-002	4.03753E-001	4.22679E-002	4.75340E+001	11	...........	7.05507E-002	-5.11389E-003	5.94381E-001	5.58147E-001	-2.80546E-002	-3.89179E-002	6.92526E-001	-4.40490E-002	2.85749E-003	-2.07126E-004	2.40740E-002	2.26064E-002	-1.13628E-003	-1.57628E-003	2.80491E-002	-1.78410E-003
	38	38	1.10021E+000	4.01019E-002	0.00000E+000	4.41203E-002	3.99769E-001	4.22319E-002	4.75264E+001	11	...........	7.04940E-002	-4.99069E-003	5.94460E-001	5.58206E-001	-2.80378E-002	-3.88951E-002	6.92548E-001	-4.40058E-002	2.82694E-003	-2.00136E-004	2.38390E-002	2.23851E-002	-1.12437E-003	-1.55977E-003	2.77725E-002	-1.76472E-003
	39	39	1.10007E+000	4.00653E-002	0.00000E+000	4.40747E-002	3.99403E-001	4.21883E-002	4.75033E+001	11	...........	7.04140E-002	-5.01111E-003	5.94415E-001	5.58394E-001	-2.80347E-002	-3.89149E-002	6.92472E-001	-4.39594E-002	2.82116E-003	-2.00772E-004	2.38154E-002	2.23722E-002	-1.12322E-003	-1.55914E-003	2.77441E-002	-1.76125E-003
	40	40	1.10012E+000	4.01677E-002	0.00000E+000	4.41892E-002	4.00426E-001	4.21569E-002	4.74851E+001	11	...........	7.03792E-002	-5.06153E-003	5.94417E-001	5.58337E-001	-2.80200E-002	-3.88578E-002	6.92499E-001	-4.38990E-002	2.82697E-003	-2.03310E-004	2.38764E-002	2.24271E-002	-1.12550E-003	-1.56083E-003	2.78161E-002	-1.76332E-003
	41	41	1.10021E+000	3.98008E-002	0.00000E+000	4.37891E-002	3.96777E-001	4.21272E-002	4.74963E+001	11	...........	7.03122E-002	-4.99889E-003	5.94252E-001	5.58190E-001	-2.80204E-002	-3.88654E-002	6.92514E-001	-4.39632E-002	2.79848E-003	-1.98960E-004	2.36517E-002	2.22164E-002	-1.11523E-003	-1.54687E-003	2.75626E-002	-1.74977E-003
	42	42	1.10007E+000	3.97431E-002	0.00000E+000	4.37203E-002	3.96202E-001	4.21091E-002	4.75024E+001	11	...........	7.02776E-002	-4.99472E-003	5.94353E-001	5.58195E-001	-2.80261E-002	-3.88587E-002	6.92425E-001	-4.40246E-002	2.79305E-003	-1.98506E-004	2.36215E-002	2.21844E-002	-1.11384E-003	-1.54437E-003	2.75191E-002	-1.74967E-003
	43	43	1.10012E+000	3.98342E-002	0.00000E+000	4.38223E-002	3.97106E-001	4.20606E-002	4.75278E+001	11	...........	7.02194E-002	-4.96083E-003	5.94365E-001	5.58113E-001	-2.80397E-002	-3.88215E-002	6.92366E-001	-4.40926E-002	2.79714E-003	-1.97611E-004	2.36761E-002	2.22320E-002	-1.11694E-003	-1.54642E-003	2.75799E-002	-1.75640E-003
	44	44	1.10021E+000	3.94594E-002	0.00000E+000	4.34135E-002	3.93384E-001	4.20345E-002	4.75365E+001	11	...........	7.01612E-002	-5.12611E-003	5.94553E-001	5.58061E-001	-2.80229E-002	-3.88007E-002	6.92367E-001	-4.40642E-002	2.76852E-003	-2.02273E-004	2.34607E-002	2.20208E-002	-1.10577E-003	-1.53105E-003	2.73204E-002	-1.73875E-003
	45	45	1.10007E+000	3.93990E-002	0.00000E+000	4.33419E-002	3.92783E-001	4.19894E-002	4.75127E+001	11	...........	7.01099E-002	-5.11583E-003	5.94605E-001	5.58148E-001	-2.80274E-002	-3.88161E-002	6.92365E-001	-4.39904E-002	2.76226E-003	-2.01559E-004	2.34268E-002	2.19905E-002	-1.10425E-003	-1.52932E-003	2.72785E-002	-1.73318E-003
	46	46	1.10012E+000	3.95230E-002	0.00000E+000	4.34799E-002	3.94013E-001	4.19596E-002	4.75184E+001	11	...........	7.00415E-002	-5.13708E-003	5.94688E-001	5.58135E-001	-2.80262E-002	-3.88392E-002	6.92464E-001	-4.40251E-002	2.76825E-003	-2.03033E-004	2.35038E-002	2.20592E-002	-1.10768E-003	-1.53504E-003	2.73682E-002	-1.74001E-003
	47	47	1.10021E+000	3.91702E-002	0.00000E+000	4.30953E-002	3.90513E-001	4.19288E-002	4.75051E+001	11	...........	6.99932E-002	-5.10667E-003	5.94722E-001	5.58207E-001	-2.80249E-002	-3.88653E-002	6.92424E-001	-4.39635E-002	2.74164E-003	-2.00029E-004	2.32953E-002	2.18651E-002	-1.09774E-003	-1.52236E-003	2.71224E-002	-1.72206E-003
	48	48	1.10008E+000	3.89634E-002	0.00000E+000	4.28627E-002	3.88452E-001	4.19043E-002	4.75242E+001	11	...........	6.99589E-002	-5.09319E-003	5.94742E-001	5.58201E-001	-2.79964E-002	-3.88736E-002	6.92417E-001	-4.40676E-002	2.72584E-003	-1.98448E-004	2.31732E-002	2.17494E-002	-1.09083E-003	-1.51465E-003	2.69789E-002	-1.71703E-003
	49	49	1.10011E+000	3.90096E-002	0.00000E+000	4.29150E-002	3.88918E-001	4.18667E-002	4.75403E+001	11	...........	6.98901E-002	-4.97847E-003	5.94795E-001	5.58152E-001	-2.79857E-002	-3.88671E-002	6.92355E-001	-4.39925E-002	2.72639E-003	-1.94208E-004	2.32027E-002	2.17733E-002	-1.09171E-003	-1.51619E-003	2.70085E-002	-1.71613E-003
	50	50	1.10021E+000	3.86585E-002	0.00000E+000	4.25324E-002	3.85426E-001	4.18397E-002	4.75249E+001	11	...........	6.98515E-002	-5.05639E-003	5.94804E-001	5.58252E-001	-2.79687E-002	-3.88801E-002	6.92375E-001	-4.40422E-002	2.70035E-003	-1.95472E-004	2.29942E-002	2.15812E-002	-1.08123E-003	-1.50305E-003	2.67662E-002	-1.70261E-003
	51	51	1.10008E+000	3.85553E-002	0.00000E+000	4.24138E-002	3.84400E-001	4.18075E-002	4.75326E+001	11	...........	6.97854E-002	-5.06875E-003	5.94769E-001	5.58251E-001	-2.79722E-002	-3.88676E-002	6.92418E-001	-4.40431E-002	2.69060E-003	-1.95427E-004	2.29315E-002	2.15236E-002	-1.07848E-003	-1.49855E-003	2.66964E-002	-1.69809E-003
	52	52	1.10011E+000	3.86681E-002	0.00000E+000	4.25392E-002	3.85522E-001	4.17752E-002	4.75293E+001	11	...........	6.97322E-002	-4.92056E-003	5.94756E-001	5.58216E-001	-2.79542E-002	-3.88721E-002	6.92625E-001	-4.40440E-002	2.69641E-003	-1.90268E-004	2.29980E-002	2.15851E-002	-1.08093E-003	-1.50311E-003	2.67825E-002	-1.70310E-003
	53	53	1.10021E+000	3.83627E-002	0.00000E+000	4.22069E-002	3.82483E-001	4.17307E-002	4.75268E+001	11	...........	6.96771E-002	-4.93333E-003	5.94651E-001	5.58329E-001	-2.79757E-002	-3.89108E-002	6.92570E-001	-4.40131E-002	2.67300E-003	-1.89256E-004	2.28124E-002	2.14190E-002	-1.07322E-003	-1.49272E-003	2.65688E-002	-1.68846E-003
	54	54	1.10008E+000	3.82437E-002	0.00000E+000	4.20710E-002	3.81295E-001	4.17042E-002	4.75258E+001	11	...........	6.96233E-002	-4.93847E-003	5.94693E-001	5.58372E-001	-2.79772E-002	-3.89218E-002	6.92626E-001	-4.39957E-002	2.66265E-003	-1.88865E-004	2.27432E-002	2.13542E-002	-1.06995E-003	-1.48851E-003	2.64886E-002	-1.68256E-003
	55	55	1.10011E+000	3.84106E-002	0.00000E+000	4.22560E-002	3.82958E-001	4.16653E-002	4.75241E+001	11	...........	6.95710E-002	-4.97194E-003	5.94789E-001	5.58535E-001	-2.79890E-002	-3.89050E-002	6.92653E-001	-4.39900E-002	2.67227E-003	-1.90976E-004	2.28462E-002	2.14537E-002	-1.07508E-003	-1.49437E-003	2.66053E-002	-1.68968E-003
	56	56	1.10021E+000	3.81214E-002	0.00000E+000	4.19414E-002	3.80083E-001	4.16411E-002	4.75172E+001	11	...........	6.95183E-002	-5.03708E-003	5.94788E-001	5.58399E-001	-2.79815E-002	-3.88987E-002	6.92809E-001	-4.39979E-002	2.65013E-003	-1.92021E-004	2.26741E-002	2.12869E-002	-1.06669E-003	-1.48287E-003	2.64108E-002	-1.67726E-003
	57	57	1.10008E+000	3.79633E-002	0.00000E+000	4.17627E-002	3.78510E-001	4.16012E-002	4.75039E+001	11	...........	6.94458E-002	-5.11139E-003	5.94727E-001	5.58276E-001	-2.79964E-002	-3.88846E-002	6.92616E-001	-4.40032E-002	2.63639E-003	-1.94045E-004	2.25778E-002	2.11940E-002	-1.06283E-003	-1.47619E-003	2.62939E-002	-1.67050E-003
	58	58	1.10011E+000	3.81175E-002	0.00000E+000	4.19335E-002	3.80045E-001	4.15698E-002	4.74974E+001	11	...........	6.93935E-002	-5.16833E-003	5.94717E-001	5.58299E-001	-2.79953E-002	-3.89087E-002	6.92471E-001	-4.39640E-002	2.64511E-003	-1.97004E-004	2.26691E-002	2.12810E-002	-1.06711E-003	-1.48310E-003	2.63953E-002	-1.67580E-003
	59	59	1.10020E+000	3.78526E-002	0.00000E+000	4.16455E-002	3.77413E-001	4.15503E-002	4.74762E+001	11	...........	6.93411E-002	-5.08125E-003	5.94673E-001	5.58188E-001	-2.79946E-002	-3.89089E-002	6.92436E-001	-4.38808E-002	2.62474E-003	-1.92338E-004	2.25099E-002	2.11289E-002	-1.05967E-003	-1.47280E-003	2.62105E-002	-1.66100E-003
	60	60	1.10008E+000	3.76965E-002	0.00000E+000	4.14692E-002	3.75860E-001	4.15008E-002	4.74596E+001	11	...........	6.92879E-002	-5.02611E-003	5.94654E-001	5.58127E-001	-2.79979E-002	-3.88904E-002	6.92568E-001	-4.39129E-002	2.61191E-003	-1.89467E-004	2.24164E-002	2.10394E-002	-1.05542E-003	-1.46603E-003	2.61074E-002	-1.65536E-003
	61	61	1.10011E+000	3.78783E-002	0.00000E+000	4.16703E-002	3.77662E-001	4.14786E-002	4.74589E+001	11	...........	6.92486E-002	-5.09458E-003	5.94562E-001	5.58252E-001	-2.80044E-002	-3.88992E-002	6.92626E-001	-4.40383E-002	2.62302E-003	-1.92974E-004	2.25210E-002	2.11456E-002	-1.06076E-003	-1.47343E-003	2.62355E-002	-1.66810E-003
	62	62	1.10020E+000	3.76059E-002	0.00000E+000	4.13741E-002	3.74956E-001	4.14422E-002	4.74629E+001	11	...........	6.91815E-002	-5.12097E-003	5.94481E-001	5.58310E-001	-2.79961E-002	-3.89168E-002	6.92704E-001	-4.40608E-002	2.60163E-003	-1.92579E-004	2.23560E-002	2.09957E-002	-1.05282E-003	-1.46350E-003	2.60497E-002	-1.65695E-003
	63	63	1.10008E+000	3.74445E-002	0.00000E+000	4.11921E-002	3.73352E-001	4.14081E-002	4.74726E+001	11	...........	6.91208E-002	-5.05014E-003	5.94518E-001	5.58313E-001	-2.80108E-002	-3.89058E-002	6.92617E-001	-4.39569E-002	2.58819E-003	-1.89100E-004	2.22614E-002	2.09057E-002	-1.04885E-003	-1.45681E-003	2.59347E-002	-1.64595E-003
	64	64	1.10011E+000	3.76082E-002	0.00000E+000	4.13731E-002	3.74983E-001	4.13870E-002	4.74679E+001	11	...........	6.90826E-002	-4.98889E-003	5.94527E-001	5.58373E-001	-2.79939E-002	-3.89207E-002	6.92770E-001	-4.39131E-002	2.59807E-003	-1.87623E-004	2.23591E-002	2.09994E-002	-1.05280E-003	-1.46374E-003	2.60538E-002	-1.65149E-003
	65	65	1.10020E+000	3.73652E-002	0.00000E+000	4.11092E-002	3.72565E-001	4.13462E-002	4.74727E+001	11	...........	6.90149E-002	-5.05458E-003	5.94484E-001	5.58368E-001	-2.80149E-002	-3.89117E-002	6.92893E-001	-4.39513E-002	2.57875E-003	-1.88865E-004	2.22130E-002	2.08635E-002	-1.04678E-003	-1.45394E-003	2.58901E-002	-1.64225E-003
	66	66	1.10009E+000	3.71953E-002	0.00000E+000	4.09181E-002	3.70873E-001	4.13122E-002	4.74896E+001	11	...........	6.89505E-002	-5.11111E-003	5.94402E-001	5.58426E-001	-2.80342E-002	-3.89314E-002	6.92819E-001	-4.38639E-002	2.56463E-003	-1.90109E-004	2.21089E-002	2.07708E-002	-1.04274E-003	-1.44806E-003	2.57696E-002	-1.63153E-003
	67	67	1.10011E+000	3.73373E-002	0.00000E+000	4.10750E-002	3.72285E-001	4.12842E-002	4.75137E+001	11	...........	6.89060E-002	-5.02750E-003	5.94518E-001	5.58536E-001	-2.80137E-002	-3.89265E-002	6.92772E-001	-4.38511E-002	2.57276E-003	-1.87713E-004	2.21977E-002	2.08542E-002	-1.04596E-003	-1.45341E-003	2.58662E-002	-1.63728E-003
	68	68	1.10020E+000	3.70987E-002	0.00000E+000	4.08159E-002	3.69919E-001	4.12530E-002	4.75079E+001	11	...........	6.88554E-002	-4.97514E-003	5.94490E-001	5.58457E-001	-2.80189E-002	-3.89126E-002	6.92815E-001	-4.39994E-002	2.55444E-003	-1.84571E-004	2.20548E-002	2.07180E-002	-1.03946E-003	-1.44361E-003	2.57025E-002	-1.63232E-003
	69	69	1.10009E+000	3.69106E-002	0.00000E+000	4.06050E-002	3.68044E-001	4.12141E-002	4.75117E+001	11	...........	6.87946E-002	-5.05778E-003	5.94374E-001	5.58448E-001	-2.80053E-002	-3.89140E-002	6.92776E-001	-4.39914E-002	2.53925E-003	-1.86686E-004	2.19387E-002	2.06127E-002	-1.03369E-003	-1.43634E-003	2.55708E-002	-1.62375E-003
	70	70	1.10011E+000	3.70613E-002	0.00000E+000	4.07714E-002	3.69546E-001	4.11937E-002	4.75119E+001	11	...........	6.87765E-002	-4.92778E-003	5.94444E-001	5.58339E-001	-2.80211E-002	-3.89181E-002	6.92673E-001	-4.40417E-002	2.54895E-003	-1.82630E-004	2.20309E-002	2.06928E-002	-1.03850E-003	-1.44235E-003	2.56713E-002	-1.63224E-003
	71	71	1.10020E+000	3.68565E-002	0.00000E+000	4.05494E-002	3.67509E-001	4.11607E-002	4.75021E+001	11	...........	6.87082E-002	-4.97347E-003	5.94555E-001	5.58195E-001	-2.80331E-002	-3.88811E-002	6.92726E-001	-4.39754E-002	2.53234E-003	-1.83305E-004	2.19132E-002	2.05731E-002	-1.03320E-003	-1.43302E-003	2.55314E-002	-1.62078E-003
	72	72	1.10009E+000	3.66424E-002	0.00000E+000	4.03100E-002	3.65375E-001	4.11356E-002	4.74712E+001	11	...........	6.86689E-002	-4.99514E-003	5.94657E-001	5.58311E-001	-2.80317E-002	-3.88694E-002	6.92742E-001	-4.39785E-002	2.51619E-003	-1.83034E-004	2.17896E-002	2.04578E-002	-1.02715E-003	-1.42427E-003	2.53837E-002	-1.61147E-003
	73	73	1.10011E+000	3.67942E-002	0.00000E+000	4.04776E-002	3.66888E-001	4.11262E-002	4.63267E+001	11	...........	6.86617E-002	-5.06056E-003	5.94624E-001	5.58432E-001	-2.80329E-002	-3.88703E-002	6.92717E-001	-4.39618E-002	2.52635E-003	-1.86199E-004	2.18787E-002	2.05471E-002	-1.03145E-003	-1.43020E-003	2.54880E-002	-1.61754E-003
	74	74	1.10020E+000	3.65044E-002	0.00000E+000	4.01620E-002	3.64009E-001	4.08821E-002	4.65177E+001	11	...........	6.82600E-002	-4.98833E-003	5.94528E-001	5.58500E-001	-2.80168E-002	-3.88754E-002	6.92738E-001	-4.40383E-002	2.49179E-003	-1.82096E-004	2.17029E-002	2.03877E-002	-1.02274E-003	-1.41913E-003	2.52880E-002	-1.60759E-003
	75	75	1.10009E+000	3.63538E-002	0.00000E+000	3.99927E-002	3.62509E-001	4.10878E-002	4.73158E+001	11	...........	6.85982E-002	-4.94292E-003	5.94482E-001	5.58492E-001	-2.80297E-002	-3.88956E-002	6.92753E-001	-4.40494E-002	2.49381E-003	-1.79694E-004	2.16117E-002	2.03033E-002	-1.01899E-003	-1.41400E-003	2.51842E-002	-1.60137E-003
	76	76	1.10011E+000	3.64987E-002	0.00000E+000	4.01524E-002	3.63948E-001	4.10248E-002	4.74294E+001	11	...........	6.84925E-002	-4.98833E-003	5.94425E-001	5.58480E-001	-2.80515E-002	-3.89046E-002	6.92808E-001	-4.40565E-002	2.49989E-003	-1.82068E-004	2.16957E-002	2.03838E-002	-1.02384E-003	-1.41997E-003	2.52866E-002	-1.60800E-003
	77	77	1.10019E+000	3.62860E-002	0.00000E+000	3.99216E-002	3.61835E-001	4.09906E-002	4.74378E+001	11	...........	6.84193E-002	-4.98139E-003	5.94225E-001	5.58424E-001	-2.80576E-002	-3.88972E-002	6.92769E-001	-4.40136E-002	2.48266E-003	-1.80755E-004	2.15620E-002	2.02630E-002	-1.01810E-003	-1.41142E-003	2.51378E-002	-1.59708E-003
	78	78	1.10010E+000	3.60477E-002	0.00000E+000	3.96560E-002	3.59463E-001	4.10123E-002	4.74138E+001	11	...........	6.84743E-002	-4.91736E-003	5.94236E-001	5.58383E-001	-2.80478E-002	-3.88810E-002	6.92741E-001	-4.39883E-002	2.46834E-003	-1.77260E-004	2.14208E-002	2.01284E-002	-1.01106E-003	-1.40157E-003	2.49717E-002	-1.58568E-003
	79	79	1.10011E+000	3.62487E-002	0.00000E+000	3.98774E-002	3.61461E-001	4.09639E-002	4.74319E+001	11	...........	6.83594E-002	-4.96347E-003	5.94276E-001	5.58398E-001	-2.80346E-002	-3.88931E-002	6.92767E-001	-4.39874E-002	2.47794E-003	-1.79919E-004	2.15417E-002	2.02412E-002	-1.01622E-003	-1.40982E-003	2.51119E-002	-1.59448E-003
	80	80	1.10019E+000	3.60516E-002	0.00000E+000	3.96636E-002	3.59503E-001	4.08882E-002	4.73952E+001	11	...........	6.82551E-002	-5.08639E-003	5.94174E-001	5.58468E-001	-2.79918E-002	-3.88717E-002	6.92712E-001	-4.40054E-002	2.46070E-003	-1.83372E-004	2.14209E-002	2.01336E-002	-1.00915E-003	-1.40138E-003	2.49734E-002	-1.58646E-003
	81	81	1.10010E+000	3.58118E-002	0.00000E+000	3.93966E-002	3.57119E-001	4.08965E-002	4.74176E+001	11	...........	6.82710E-002	-5.11736E-003	5.94197E-001	5.58477E-001	-2.79849E-002	-3.88594E-002	6.92699E-001	-4.39835E-002	2.44491E-003	-1.83262E-004	2.12793E-002	2.00001E-002	-1.00219E-003	-1.39163E-003	2.48068E-002	-1.57513E-003
	82	82	1.10011E+000	3.60250E-002	0.00000E+000	3.96313E-002	3.59239E-001	4.08477E-002	4.74069E+001	11	...........	6.81928E-002	-5.02958E-003	5.94124E-001	5.58392E-001	-2.79862E-002	-3.88492E-002	6.92660E-001	-4.40399E-002	2.45664E-003	-1.81191E-004	2.14033E-002	2.01161E-002	-1.00820E-003	-1.39954E-003	2.49531E-002	-1.58654E-003
	83	83	1.10019E+000	3.58352E-002	0.00000E+000	3.94255E-002	3.57352E-001	4.08490E-002	4.74500E+001	11	...........	6.82067E-002	-4.99472E-003	5.94160E-001	5.58364E-001	-2.79800E-002	-3.88412E-002	6.92773E-001	-4.40565E-002	2.44420E-003	-1.78987E-004	2.12918E-002	2.00091E-002	-1.00267E-003	-1.39188E-003	2.48256E-002	-1.57877E-003
	84	84	1.10010E+000	3.55835E-002	0.00000E+000	3.91455E-002	3.54847E-001	4.07847E-002	4.74176E+001	11	...........	6.80931E-002	-4.96347E-003	5.94228E-001	5.58457E-001	-2.79703E-002	-3.88282E-002	6.92792E-001	-4.40554E-002	2.42299E-003	-1.76618E-004	2.11447E-002	1.98718E-002	-9.95280E-004	-1.38164E-003	2.46519E-002	-1.56764E-003
	85	85	1.10010E+000	3.57666E-002	0.00000E+000	3.93469E-002	3.56671E-001	4.07905E-002	4.74785E+001	11	...........	6.80896E-002	-5.02125E-003	5.94328E-001	5.58524E-001	-2.79549E-002	-3.88556E-002	6.92736E-001	-4.39640E-002	2.43533E-003	-1.79593E-004	2.12571E-002	1.99765E-002	-9.99849E-004	-1.38973E-003	2.47768E-002	-1.57244E-003
	86	86	1.10019E+000	3.56208E-002	0.00000E+000	3.91896E-002	3.55215E-001	4.07860E-002	4.74996E+001	11	...........	6.80639E-002	-4.93944E-003	5.94376E-001	5.58489E-001	-2.79435E-002	-3.88444E-002	6.92741E-001	-4.40646E-002	2.42449E-003	-1.75947E-004	2.11721E-002	1.98938E-002	-9.95369E-004	-1.38367E-003	2.46760E-002	-1.56962E-003
	87	87	1.10011E+000	3.53106E-002	0.00000E+000	3.88454E-002	3.52131E-001	4.07504E-002	4.75181E+001	11	...........	6.80206E-002	-4.96514E-003	5.94504E-001	5.58546E-001	-2.79410E-002	-3.88199E-002	6.92816E-001	-4.41317E-002	2.40184E-003	-1.75322E-004	2.09923E-002	1.97226E-002	-9.86612E-004	-1.37075E-003	2.44637E-002	-1.55831E-003
	88	88	1.10010E+000	3.54380E-002	0.00000E+000	3.89854E-002	3.53402E-001	4.07158E-002	4.75004E+001	11	...........	6.79592E-002	-4.98361E-003	5.94587E-001	5.58646E-001	-2.79501E-002	-3.88374E-002	6.92783E-001	-4.40631E-002	2.40833E-003	-1.76609E-004	2.10710E-002	1.97973E-002	-9.90496E-004	-1.37632E-003	2.45508E-002	-1.56150E-003
	89	89	1.10019E+000	3.53159E-002	0.00000E+000	3.88540E-002	3.52188E-001	4.06977E-002	4.74717E+001	11	...........	6.79499E-002	-4.97750E-003	5.94550E-001	5.58719E-001	-2.79494E-002	-3.88276E-002	6.92754E-001	-4.40036E-002	2.39971E-003	-1.75785E-004	2.09971E-002	1.97317E-002	-9.87059E-004	-1.37123E-003	2.44652E-002	-1.55403E-003
	90	90	1.10011E+000	3.50085E-002	0.00000E+000	3.85132E-002	3.49130E-001	4.06505E-002	4.74801E+001	11	...........	6.78594E-002	-5.09236E-003	5.94517E-001	5.58700E-001	-2.79457E-002	-3.88265E-002	6.92730E-001	-4.38982E-002	2.37566E-003	-1.78276E-004	2.08132E-002	1.95593E-002	-9.78338E-004	-1.35926E-003	2.42515E-002	-1.53681E-003
	91	91	1.10010E+000	3.52010E-002	0.00000E+000	3.87247E-002	3.51043E-001	4.06507E-002	4.75142E+001	11	...........	6.78597E-002	-5.11958E-003	5.94362E-001	5.58620E-001	-2.79726E-002	-3.88332E-002	6.92774E-001	-4.40578E-002	2.38873E-003	-1.80214E-004	2.09221E-002	1.96640E-002	-9.84664E-004	-1.36697E-003	2.43863E-002	-1.55088E-003
	92	92	1.10018E+000	3.50590E-002	0.00000E+000	3.85714E-002	3.49634E-001	4.06382E-002	4.75378E+001	11	...........	6.78397E-002	-5.15528E-003	5.94309E-001	5.58660E-001	-2.79267E-002	-3.88072E-002	6.92755E-001	-4.41542E-002	2.37839E-003	-1.80739E-004	2.08359E-002	1.95861E-002	-9.79080E-004	-1.36054E-003	2.42873E-002	-1.54800E-003
	93	93	1.10011E+000	3.47565E-002	0.00000E+000	3.82359E-002	3.46623E-001	4.06082E-002	4.74754E+001	11	...........	6.77856E-002	-5.13097E-003	5.94379E-001	5.58684E-001	-2.78943E-002	-3.88019E-002	6.92692E-001	-4.41482E-002	2.35599E-003	-1.78334E-004	2.06585E-002	1.94179E-002	-9.69508E-004	-1.34862E-003	2.40755E-002	-1.53444E-003
	94	94	1.10010E+000	3.49469E-002	0.00000E+000	3.84452E-002	3.48519E-001	4.05827E-002	4.74990E+001	11	...........	6.77233E-002	-5.11875E-003	5.94337E-001	5.58683E-001	-2.78935E-002	-3.88269E-002	6.92539E-001	-4.40651E-002	2.36672E-003	-1.78884E-004	2.07702E-002	1.95242E-002	-9.74790E-004	-1.35688E-003	2.42021E-002	-1.53994E-003
	95	95	1.10018E+000	3.48376E-002	0.00000E+000	3.83276E-002	3.47435E-001	4.05437E-002	4.75050E+001	11	...........	6.76950E-002	-5.13556E-003	5.94178E-001	5.58658E-001	-2.78986E-002	-3.88381E-002	6.92471E-001	-4.40910E-002	2.35833E-003	-1.78910E-004	2.06997E-002	1.94623E-002	-9.71919E-004	-1.35302E-003	2.41240E-002	-1.53602E-003
	96	96	1.10011E+000	3.45261E-002	0.00000E+000	3.79826E-002	3.44338E-001	4.05282E-002	4.74936E+001	11	...........	6.76476E-002	-5.10139E-003	5.94160E-001	5.58543E-001	-2.79149E-002	-3.88329E-002	6.92504E-001	-4.41047E-002	2.33561E-003	-1.76131E-004	2.05141E-002	1.92843E-002	-9.63792E-004	-1.34075E-003	2.39095E-002	-1.52277E-003
	97	97	1.10010E+000	3.46784E-002	0.00000E+000	3.81498E-002	3.45848E-001	4.05265E-002	4.74874E+001	11	...........	6.76310E-002	-5.16208E-003	5.94157E-001	5.58564E-001	-2.79112E-002	-3.88518E-002	6.92557E-001	-4.40800E-002	2.34533E-003	-1.79013E-004	2.06044E-002	1.93701E-002	-9.67917E-004	-1.34732E-003	2.40168E-002	-1.52862E-003
	98	98	1.10018E+000	3.45426E-002	0.00000E+000	3.80031E-002	3.44501E-001	4.04824E-002	4.59778E+001	11	...........	6.75690E-002	-5.10042E-003	5.94095E-001	5.58612E-001	-2.78790E-002	-3.88586E-002	6.92585E-001	-4.40118E-002	2.33401E-003	-1.76182E-004	2.05216E-002	1.92959E-002	-9.63015E-004	-1.34228E-003	2.39237E-002	-1.52028E-003
	99	99	1.10012E+000	3.41859E-002	0.00000E+000	3.76084E-002	3.40956E-001	4.03575E-002	4.71231E+001	11	...........	6.73833E-002	-5.13625E-003	5.94071E-001	5.58651E-001	-2.78911E-002	-3.88614E-002	6.92516E-001	-4.39457E-002	2.30356E-003	-1.75587E-004	2.03088E-002	1.90980E-002	-9.53482E-004	-1.32851E-003	2.36743E-002	-1.50232E-003
	100	100	1.10010E+000	3.44191E-002	0.00000E+000	3.78645E-002	3.43275E-001	4.04211E-002	4.72604E+001	11	...........	6.74817E-002	-5.21194E-003	5.94119E-001	5.58631E-001	-2.79256E-002	-3.88650E-002	6.92510E-001	-4.39540E-002	2.32266E-003	-1.79391E-004	2.04491E-002	1.92276E-002	-9.61173E-004	-1.33770E-003	2.38356E-002	-1.51286E-003
	101	101	1.10018E+000	3.42878E-002	0.00000E+000	3.77227E-002	3.41968E-001	4.04095E-002	4.72479E+001	11	...........	6.74692E-002	-5.15111E-003	5.93943E-001	5.58636E-001	-2.79126E-002	-3.88808E-002	6.92593E-001	-4.39908E-002	2.31337E-003	-1.76620E-004	2.03650E-002	1.91544E-002	-9.57062E-004	-1.33314E-003	2.37475E-002	-1.50835E-003
	102	102	1.10012E+000	3.39777E-002	0.00000E+000	3.73795E-002	3.38887E-001	4.03599E-002	4.72753E+001	11	...........	6.73843E-002	-5.23444E-003	5.93920E-001	5.58688E-001	-2.78874E-002	-3.88744E-002	6.92676E-001	-4.39056E-002	2.28956E-003	-1.77854E-004	2.01800E-002	1.89829E-002	-9.47548E-004	-1.32086E-003	2.35355E-002	-1.49181E-003
	103	103	1.10010E+000	3.41516E-002	0.00000E+000	3.75702E-002	3.40614E-001	4.03533E-002	4.72422E+001	11	...........	6.73724E-002	-5.16458E-003	5.93993E-001	5.58662E-001	-2.78921E-002	-3.88774E-002	6.92736E-001	-4.39014E-002	2.30087E-003	-1.76379E-004	2.02858E-002	1.90792E-002	-9.52559E-004	-1.32772E-003	2.36580E-002	-1.49930E-003
	104	104	1.10017E+000	3.40681E-002	0.00000E+000	3.74808E-002	3.39783E-001	4.03169E-002	4.72589E+001	11	...........	6.72997E-002	-5.00750E-003	5.93953E-001	5.58665E-001	-2.79007E-002	-3.88937E-002	6.92686E-001	-4.39106E-002	2.29277E-003	-1.70596E-004	2.02348E-002	1.90326E-002	-9.50522E-004	-1.32503E-003	2.35985E-002	-1.49595E-003
	105	105	1.10012E+000	3.37560E-002	0.00000E+000	3.71357E-002	3.36678E-001	4.03222E-002	4.72478E+001	11	...........	6.73181E-002	-5.09222E-003	5.93935E-001	5.58610E-001	-2.78990E-002	-3.89107E-002	6.92727E-001	-4.38122E-002	2.27239E-003	-1.71893E-004	2.00489E-002	1.88564E-002	-9.41759E-004	-1.31347E-003	2.33837E-002	-1.47893E-003
	106	106	1.10010E+000	3.39158E-002	0.00000E+000	3.73108E-002	3.38268E-001	4.02773E-002	4.72566E+001	11	...........	6.72417E-002	-5.22181E-003	5.93843E-001	5.58678E-001	-2.78996E-002	-3.89031E-002	6.92754E-001	-4.39619E-002	2.28056E-003	-1.77102E-004	2.01407E-002	1.89480E-002	-9.46237E-004	-1.31943E-003	2.34953E-002	-1.49101E-003
	107	107	1.10017E+000	3.38387E-002	0.00000E+000	3.72284E-002	3.37499E-001	4.02621E-002	4.73149E+001	11	...........	6.72217E-002	-5.15236E-003	5.93765E-001	5.58704E-001	-2.79183E-002	-3.89015E-002	6.92694E-001	-4.40469E-002	2.27469E-003	-1.74349E-004	2.00922E-002	1.89058E-002	-9.44720E-004	-1.31638E-003	2.34399E-002	-1.49049E-003
	108	108	1.10013E+000	3.34900E-002	0.00000E+000	3.68432E-002	3.34033E-001	4.02418E-002	4.73320E+001	11	...........	6.71593E-002	-5.12111E-003	5.93637E-001	5.58759E-001	-2.79310E-002	-3.88946E-002	6.92607E-001	-4.40746E-002	2.24917E-003	-1.71506E-004	1.98809E-002	1.87129E-002	-9.35409E-004	-1.30258E-003	2.31954E-002	-1.47606E-003
	109	109	1.10010E+000	3.36280E-002	0.00000E+000	3.69942E-002	3.35400E-001	4.02092E-002	4.73159E+001	11	...........	6.71339E-002	-5.18097E-003	5.93727E-001	5.58820E-001	-2.79458E-002	-3.88881E-002	6.92598E-001	-4.40186E-002	2.25758E-003	-1.74226E-004	1.99659E-002	1.87920E-002	-9.39763E-004	-1.30773E-003	2.32907E-002	-1.48026E-003
	110	110	1.10017E+000	3.35697E-002	0.00000E+000	3.69324E-002	3.34823E-001	4.01939E-002	4.72925E+001	11	...........	6.71174E-002	-5.13569E-003	5.93744E-001	5.59005E-001	-2.79614E-002	-3.88785E-002	6.92680E-001	-4.40814E-002	2.25311E-003	-1.72404E-004	1.99318E-002	1.87657E-002	-9.38656E-004	-1.30514E-003	2.32531E-002	-1.47980E-003
	111	111	1.10013E+000	3.32175E-002	0.00000E+000	3.65434E-002	3.31325E-001	4.01702E-002	4.72787E+001	11	...........	6.70721E-002	-5.21861E-003	5.93622E-001	5.58928E-001	-2.79486E-002	-3.88608E-002	6.92791E-001	-4.40843E-002	2.22796E-003	-1.73349E-004	1.97186E-002	1.85662E-002	-9.28382E-004	-1.29086E-003	2.30128E-002	-1.46437E-003
	112	112	1.10010E+000	3.33957E-002	0.00000E+000	3.67386E-002	3.33099E-001	4.01471E-002	4.72660E+001	11	...........	6.70200E-002	-5.11389E-003	5.93779E-001	5.58936E-001	-2.79539E-002	-3.88090E-002	6.92782E-001	-4.41178E-002	2.23818E-003	-1.70782E-004	1.98297E-002	1.86661E-002	-9.33541E-004	-1.29606E-003	2.31360E-002	-1.47335E-003
	113	113	1.10017E+000	3.33370E-002	0.00000E+000	3.66764E-002	3.32515E-001	4.01056E-002	4.72873E+001	11	...........	6.69753E-002	-5.10278E-003	5.93843E-001	5.58926E-001	-2.79740E-002	-3.88589E-002	6.92743E-001	-4.42014E-002	2.23276E-003	-1.70111E-004	1.97970E-002	1.86329E-002	-9.32571E-004	-1.29544E-003	2.30940E-002	-1.47354E-003
	114	114	1.10013E+000	3.29882E-002	0.00000E+000	3.62913E-002	3.29045E-001	4.00864E-002	4.73013E+001	11	...........	6.69149E-002	-5.16681E-003	5.93831E-001	5.58863E-001	-2.79721E-002	-3.88886E-002	6.92658E-001	-4.41650E-002	2.20740E-003	-1.70443E-004	1.95894E-002	1.84359E-002	-9.22748E-004	-1.28286E-003	2.28495E-002	-1.45692E-003
	115	115	1.10010E+000	3.31665E-002	0.00000E+000	3.64864E-002	3.30819E-001	4.00692E-002	4.72967E+001	11	...........	6.69071E-002	-5.26653E-003	5.93951E-001	5.58925E-001	-2.79746E-002	-3.88799E-002	6.92742E-001	-4.42151E-002	2.21908E-003	-1.74672E-004	1.96993E-002	1.85376E-002	-9.27820E-004	-1.28951E-003	2.29758E-002	-1.46646E-003
	116	116	1.10017E+000	3.31040E-002	0.00000E+000	3.64200E-002	3.30196E-001	4.00546E-002	4.73085E+001	11	...........	6.68569E-002	-5.16431E-003	5.94080E-001	5.58949E-001	-2.79749E-002	-3.88885E-002	6.92740E-001	-4.41272E-002	2.21324E-003	-1.70959E-004	1.96664E-002	1.85035E-002	-9.26081E-004	-1.28737E-003	2.29325E-002	-1.46079E-003
	117	117	1.10013E+000	3.27418E-002	0.00000E+000	3.60203E-002	3.26594E-001	4.00309E-002	4.73369E+001	11	...........	6.68144E-002	-5.16958E-003	5.94062E-001	5.59050E-001	-2.79710E-002	-3.88717E-002	6.92742E-001	-4.40706E-002	2.18762E-003	-1.69261E-004	1.94506E-002	1.83043E-002	-9.15819E-004	-1.27273E-003	2.26816E-002	-1.44295E-003
	118	118	1.10010E+000	3.28908E-002	0.00000E+000	3.61831E-002	3.28080E-001	4.00076E-002	4.73472E+001	11	...........	6.67940E-002	-5.15472E-003	5.93984E-001	5.59127E-001	-2.79562E-002	-3.88803E-002	6.92664E-001	-4.41067E-002	2.19691E-003	-1.69543E-004	1.95366E-002	1.83902E-002	-9.19504E-004	-1.27880E-003	2.27823E-002	-1.45070E-003
	119	119	1.10016E+000	3.28740E-002	0.00000E+000	3.61667E-002	3.27910E-001	3.99887E-002	4.73268E+001	11	...........	6.67756E-002	-5.14833E-003	5.94080E-001	5.59170E-001	-2.79629E-002	-3.88708E-002	6.92779E-001	-4.40683E-002	2.19518E-003	-1.69246E-004	1.95298E-002	1.83822E-002	-9.19253E-004	-1.27784E-003	2.27744E-002	-1.44870E-003
	120	120	1.10014E+000	3.25017E-002	0.00000E+000	3.57563E-002	3.24206E-001	3.99590E-002	4.73200E+001	11	...........	6.67229E-002	-5.11431E-003	5.94018E-001	5.59071E-001	-2.79619E-002	-3.88631E-002	6.92642E-001	-4.40804E-002	2.16861E-003	-1.66223E-004	1.93066E-002	1.81708E-002	-9.08810E-004	-1.26311E-003	2.25120E-002	-1.43269E-003
	121	121	1.10010E+000	3.26602E-002	0.00000E+000	3.59293E-002	3.25780E-001	3.99289E-002	4.73215E+001	11	...........	6.66804E-002	-5.02208E-003	5.94037E-001	5.59114E-001	-2.79697E-002	-3.88903E-002	6.92565E-001	-4.40190E-002	2.17779E-003	-1.64022E-004	1.94014E-002	1.82608E-002	-9.13496E-004	-1.27016E-003	2.26193E-002	-1.43767E-003
	122	122	1.10016E+000	3.26518E-002	0.00000E+000	3.59222E-002	3.25702E-001	3.99033E-002	4.73306E+001	11	...........	6.66232E-002	-5.11639E-003	5.93997E-001	5.59187E-001	-2.79643E-002	-3.88861E-002	6.92575E-001	-4.40129E-002	2.17537E-003	-1.67059E-004	1.93950E-002	1.82584E-002	-9.13084E-004	-1.26970E-003	2.26138E-002	-1.43710E-003
	123	123	1.10014E+000	3.22805E-002	0.00000E+000	3.55131E-002	3.22007E-001	3.98976E-002	4.73210E+001	11	...........	6.66183E-002	-5.11764E-003	5.93966E-001	5.59316E-001	-2.79717E-002	-3.89039E-002	6.92636E-001	-4.40144E-002	2.15047E-003	-1.65200E-004	1.91735E-002	1.80550E-002	-9.02938E-004	-1.25584E-003	2.23586E-002	-1.42081E-003
	124	124	1.10010E+000	3.24406E-002	0.00000E+000	3.56878E-002	3.23599E-001	3.98744E-002	4.73243E+001	11	...........	6.65572E-002	-5.10361E-003	5.93833E-001	5.59338E-001	-2.79904E-002	-3.89107E-002	6.92489E-001	-4.39501E-002	2.15916E-003	-1.65564E-004	1.92643E-002	1.81453E-002	-9.08026E-004	-1.26229E-003	2.24648E-002	-1.42577E-003
	125	125	1.10016E+000	3.24222E-002	0.00000E+000	3.56696E-002	3.23415E-001	3.98321E-002	4.73254E+001	11	...........	6.64882E-002	-5.11583E-003	5.93811E-001	5.59317E-001	-2.79514E-002	-3.89167E-002	6.92519E-001	-4.39678E-002	2.15569E-003	-1.65867E-004	1.92527E-002	1.81343E-002	-9.06245E-004	-1.26176E-003	2.24530E-002	-1.42553E-003
	126	126	1.10014E+000	3.20372E-002	0.00000E+000	3.52455E-002	3.19586E-001	3.98318E-002	4.73310E+001	11	...........	6.64817E-002	-5.09847E-003	5.93851E-001	5.59278E-001	-2.79733E-002	-3.89132E-002	6.92556E-001	-4.39904E-002	2.12988E-003	-1.63341E-004	1.90253E-002	1.79177E-002	-8.96186E-004	-1.24667E-003	2.21875E-002	-1.40933E-003
	127	127	1.10009E+000	3.21887E-002	0.00000E+000	3.54107E-002	3.21090E-001	3.97806E-002	4.73394E+001	11	...........	6.64254E-002	-5.05833E-003	5.93772E-001	5.59273E-001	-2.79401E-002	-3.88879E-002	6.92548E-001	-4.40524E-002	2.13815E-003	-1.62821E-004	1.91128E-002	1.80023E-002	-8.99358E-004	-1.25175E-003	2.22922E-002	-1.41799E-003
	128	128	1.10015E+000	3.21954E-002	0.00000E+000	3.54199E-002	3.21160E-001	3.97724E-002	4.73505E+001	11	...........	6.63985E-002	-5.07500E-003	5.93691E-001	5.59245E-001	-2.79701E-002	-3.88561E-002	6.92432E-001	-4.40653E-002	2.13772E-003	-1.63391E-004	1.91141E-002	1.80051E-002	-9.00509E-004	-1.25099E-003	2.22931E-002	-1.41870E-003
	129	129	1.10015E+000	3.18198E-002	0.00000E+000	3.50065E-002	3.17430E-001	3.97430E-002	4.73580E+001	11	...........	6.63414E-002	-5.18556E-003	5.93686E-001	5.59206E-001	-2.79847E-002	-3.88496E-002	6.92363E-001	-4.40851E-002	2.11097E-003	-1.65003E-004	1.88910E-002	1.77938E-002	-8.90468E-004	-1.23619E-003	2.20308E-002	-1.40278E-003
	130	130	1.10009E+000	3.19343E-002	0.00000E+000	3.51308E-002	3.18564E-001	3.97188E-002	4.73467E+001	11	...........	6.63076E-002	-5.27750E-003	5.93701E-001	5.59149E-001	-2.80101E-002	-3.88336E-002	6.92443E-001	-4.41626E-002	2.11749E-003	-1.68533E-004	1.89594E-002	1.78560E-002	-8.94485E-004	-1.24012E-003	2.21127E-002	-1.41030E-003
	131	131	1.10015E+000	3.19345E-002	0.00000E+000	3.51328E-002	3.18562E-001	3.97009E-002	4.73450E+001	11	...........	6.62712E-002	-5.31083E-003	5.93803E-001	5.59262E-001	-2.79889E-002	-3.88146E-002	6.92542E-001	-4.41610E-002	2.11634E-003	-1.69599E-004	1.89628E-002	1.78597E-002	-8.93811E-004	-1.23952E-003	2.21160E-002	-1.41026E-003
	132	132	1.10015E+000	3.15623E-002	0.00000E+000	3.47233E-002	3.14867E-001	3.96992E-002	4.73277E+001	11	...........	6.62630E-002	-5.09167E-003	5.93892E-001	5.59375E-001	-2.79351E-002	-3.88106E-002	6.92608E-001	-4.41100E-002	2.09141E-003	-1.60705E-004	1.87446E-002	1.76551E-002	-8.81696E-004	-1.22495E-003	2.18603E-002	-1.39221E-003
	133	133	1.10009E+000	3.16915E-002	0.00000E+000	3.48636E-002	3.16150E-001	3.96467E-002	4.73301E+001	11	...........	6.61847E-002	-5.10903E-003	5.93765E-001	5.59469E-001	-2.79243E-002	-3.87729E-002	6.92575E-001	-4.40557E-002	2.09749E-003	-1.61913E-004	1.88173E-002	1.77304E-002	-8.84962E-004	-1.22877E-003	2.19487E-002	-1.39619E-003
	134	134	1.10015E+000	3.17227E-002	0.00000E+000	3.48997E-002	3.16457E-001	3.96467E-002	4.73055E+001	11	...........	6.61831E-002	-5.03681E-003	5.93740E-001	5.59333E-001	-2.79128E-002	-3.87735E-002	6.92554E-001	-4.40694E-002	2.09951E-003	-1.59781E-004	1.88350E-002	1.77436E-002	-8.85469E-004	-1.23000E-003	2.19697E-002	-1.39800E-003
	135	135	1.10015E+000	3.13580E-002	0.00000E+000	3.44986E-002	3.12833E-001	3.96201E-002	4.73073E+001	11	...........	6.61332E-002	-5.12236E-003	5.93701E-001	5.59214E-001	-2.79258E-002	-3.87853E-002	6.92571E-001	-4.40579E-002	2.07380E-003	-1.60627E-004	1.86172E-002	1.75358E-002	-8.75697E-004	-1.21623E-003	2.17176E-002	-1.38157E-003
	136	136	1.10009E+000	3.14565E-002	0.00000E+000	3.46051E-002	3.13812E-001	3.95995E-002	4.73064E+001	11	...........	6.61108E-002	-5.17875E-003	5.93719E-001	5.59245E-001	-2.79467E-002	-3.87826E-002	6.92642E-001	-4.39333E-002	2.07962E-003	-1.62905E-004	1.86763E-002	1.75919E-002	-8.79104E-004	-1.21997E-003	2.17881E-002	-1.38199E-003
	137	137	1.10015E+000	3.14687E-002	0.00000E+000	3.46202E-002	3.13934E-001	3.95752E-002	4.73182E+001	11	...........	6.60750E-002	-5.18806E-003	5.93524E-001	5.59303E-001	-2.79271E-002	-3.88126E-002	6.92544E-001	-4.40547E-002	2.07930E-003	-1.63262E-004	1.86775E-002	1.76006E-002	-8.78830E-004	-1.22138E-003	2.17935E-002	-1.38635E-003
	138	138	1.10016E+000	3.10997E-002	0.00000E+000	3.42145E-002	3.10266E-001	3.95322E-002	4.72697E+001	11	...........	6.60071E-002	-5.03375E-003	5.93358E-001	5.59258E-001	-2.79057E-002	-3.87922E-002	6.92677E-001	-4.40608E-002	2.05280E-003	-1.56548E-004	1.84532E-002	1.73927E-002	-8.67858E-004	-1.20642E-003	2.15420E-002	-1.37028E-003
	139	139	1.10009E+000	3.12192E-002	0.00000E+000	3.43440E-002	3.11452E-001	3.95451E-002	4.73390E+001	11	...........	6.60122E-002	-5.06222E-003	5.93317E-001	5.59158E-001	-2.79108E-002	-3.87958E-002	6.92692E-001	-4.40296E-002	2.06085E-003	-1.58038E-004	1.85229E-002	1.74564E-002	-8.71353E-004	-1.21117E-003	2.16253E-002	-1.37457E-003
	140	140	1.10015E+000	3.12349E-002	0.00000E+000	3.43630E-002	3.11609E-001	3.95005E-002	4.73791E+001	11	...........	6.59506E-002	-5.14181E-003	5.93321E-001	5.59031E-001	-2.79264E-002	-3.88293E-002	6.92814E-001	-4.40271E-002	2.05996E-003	-1.60604E-004	1.85324E-002	1.74613E-002	-8.72279E-004	-1.21283E-003	2.16400E-002	-1.37518E-003
	141	141	1.10016E+000	3.08679E-002	0.00000E+000	3.39596E-002	3.07961E-001	3.94784E-002	4.73816E+001	11	...........	6.59097E-002	-5.09125E-003	5.93463E-001	5.59089E-001	-2.79190E-002	-3.88281E-002	6.92846E-001	-4.40326E-002	2.03449E-003	-1.57156E-004	1.83190E-002	1.72579E-002	-8.61802E-004	-1.19854E-003	2.13867E-002	-1.35919E-003
	142	142	1.10009E+000	3.09750E-002	0.00000E+000	3.40754E-002	3.09027E-001	3.94640E-002	4.73822E+001	11	...........	6.58856E-002	-5.12208E-003	5.93503E-001	5.59077E-001	-2.79218E-002	-3.88054E-002	6.92864E-001	-4.39956E-002	2.04081E-003	-1.58657E-004	1.83838E-002	1.73174E-002	-8.64878E-004	-1.20200E-003	2.14615E-002	-1.36276E-003
	143	143	1.10014E+000	3.10216E-002	0.00000E+000	3.41282E-002	3.09487E-001	3.94440E-002	4.73850E+001	11	...........	6.58464E-002	-5.04000E-003	5.93457E-001	5.59268E-001	-2.79244E-002	-3.88075E-002	6.92875E-001	-4.40226E-002	2.04266E-003	-1.56349E-004	1.84100E-002	1.73494E-002	-8.66262E-004	-1.20387E-003	2.14941E-002	-1.36565E-003
	144	144	1.10016E+000	3.06532E-002	0.00000E+000	3.37235E-002	3.05828E-001	3.94116E-002	4.73709E+001	11	...........	6.58011E-002	-5.02611E-003	5.93392E-001	5.59266E-001	-2.79518E-002	-3.88418E-002	6.92822E-001	-4.40963E-002	2.01701E-003	-1.54066E-004	1.81894E-002	1.71433E-002	-8.56811E-004	-1.19062E-003	2.12372E-002	-1.35169E-003
	145	145	1.10009E+000	3.07434E-002	0.00000E+000	3.38205E-002	3.06729E-001	3.93902E-002	4.73765E+001	11	...........	6.57642E-002	-5.14986E-003	5.93422E-001	5.59141E-001	-2.79700E-002	-3.88167E-002	6.92755E-001	-4.40617E-002	2.02181E-003	-1.58324E-004	1.82438E-002	1.71899E-002	-8.59892E-004	-1.19335E-003	2.12976E-002	-1.35460E-003
	146	146	1.10014E+000	3.07775E-002	0.00000E+000	3.38595E-002	3.07067E-001	3.93712E-002	4.73602E+001	11	...........	6.57332E-002	-5.14000E-003	5.93470E-001	5.59194E-001	-2.79825E-002	-3.88351E-002	6.92670E-001	-4.40279E-002	2.02310E-003	-1.58196E-004	1.82655E-002	1.72106E-002	-8.61230E-004	-1.19525E-003	2.13186E-002	-1.35507E-003
	147	147	1.10017E+000	3.04192E-002	0.00000E+000	3.34662E-002	3.03505E-001	3.93360E-002	4.73485E+001	11	...........	6.56646E-002	-5.04958E-003	5.93666E-001	5.58985E-001	-2.79740E-002	-3.88428E-002	6.92554E-001	-4.39564E-002	1.99746E-003	-1.53604E-004	1.80589E-002	1.70039E-002	-8.50948E-004	-1.18157E-003	2.10669E-002	-1.33712E-003
	148	148	1.10009E+000	3.05131E-002	0.00000E+000	3.35672E-002	3.04441E-001	3.93201E-002	4.73465E+001	11	...........	6.56417E-002	-5.12347E-003	5.93706E-001	5.58889E-001	-2.80060E-002	-3.88421E-002	6.92628E-001	-4.40099E-002	2.00293E-003	-1.56333E-004	1.81158E-002	1.70534E-002	-8.54549E-004	-1.18519E-003	2.11342E-002	-1.34288E-003
	149	149	1.10014E+000	3.05682E-002	0.00000E+000	3.36293E-002	3.04983E-001	3.92962E-002	4.73417E+001	11	...........	6.55999E-002	-5.05917E-003	5.93597E-001	5.58789E-001	-2.80076E-002	-3.88560E-002	6.92755E-001	-4.40212E-002	2.00527E-003	-1.54650E-004	1.81452E-002	1.70812E-002	-8.56144E-004	-1.18776E-003	2.11763E-002	-1.34565E-003
	150	150	1.10017E+000	3.02127E-002	0.00000E+000	3.32390E-002	3.01448E-001	3.92642E-002	4.73341E+001	11	...........	6.55500E-002	-5.11611E-003	5.93552E-001	5.58763E-001	-2.79910E-002	-3.88565E-002	6.92858E-001	-4.40662E-002	1.98044E-003	-1.54571E-004	1.79328E-002	1.68817E-002	-8.45682E-004	-1.17396E-003	2.09331E-002	-1.33136E-003
	151	151	1.10009E+000	3.02747E-002	0.00000E+000	3.33048E-002	3.02067E-001	3.92581E-002	4.73529E+001	11	...........	6.55267E-002	-4.97625E-003	5.93682E-001	5.58743E-001	-2.79596E-002	-3.88369E-002	6.92684E-001	-4.39835E-002	1.98380E-003	-1.50654E-004	1.79735E-002	1.69157E-002	-8.46467E-004	-1.17577E-003	2.09708E-002	-1.33158E-003
	152	152	1.10014E+000	3.03435E-002	0.00000E+000	3.33819E-002	3.02750E-001	3.92235E-002	4.73733E+001	11	...........	6.54753E-002	-4.92000E-003	5.93790E-001	5.58733E-001	-2.79606E-002	-3.88394E-002	6.92621E-001	-4.39901E-002	1.98675E-003	-1.49290E-004	1.80177E-002	1.69539E-002	-8.48421E-004	-1.17852E-003	2.10165E-002	-1.33481E-003
	153	153	1.10017E+000	2.99999E-002	0.00000E+000	3.30050E-002	2.99337E-001	3.92017E-002	4.73802E+001	11	...........	6.54521E-002	-5.11083E-003	5.93744E-001	5.58852E-001	-2.79385E-002	-3.88500E-002	6.92556E-001	-4.40047E-002	1.96355E-003	-1.53324E-004	1.78122E-002	1.67655E-002	-8.38150E-004	-1.16549E-003	2.07766E-002	-1.32014E-003
	154	154	1.10009E+000	3.00673E-002	0.00000E+000	3.30767E-002	3.00007E-001	3.91872E-002	4.73754E+001	11	...........	6.54235E-002	-5.16694E-003	5.93854E-001	5.59107E-001	-2.79126E-002	-3.88339E-002	6.92579E-001	-4.39318E-002	1.96711E-003	-1.55356E-004	1.78556E-002	1.68109E-002	-8.39258E-004	-1.16763E-003	2.08240E-002	-1.32091E-003
	155	155	1.10014E+000	3.01336E-002	0.00000E+000	3.31510E-002	3.00663E-001	3.91654E-002	4.74071E+001	11	...........	6.53794E-002	-5.23667E-003	5.93810E-001	5.59156E-001	-2.79019E-002	-3.88382E-002	6.92592E-001	-4.39454E-002	1.97012E-003	-1.57800E-004	1.78936E-002	1.68494E-002	-8.40786E-004	-1.17033E-003	2.08703E-002	-1.32423E-003
	156	156	1.10017E+000	2.97829E-002	0.00000E+000	3.27663E-002	2.97180E-001	3.91407E-002	4.74096E+001	11	...........	6.53554E-002	-5.34139E-003	5.93844E-001	5.59237E-001	-2.78904E-002	-3.88507E-002	6.92608E-001	-4.38971E-002	1.94647E-003	-1.59082E-004	1.76864E-002	1.66557E-002	-8.30657E-004	-1.15709E-003	2.06279E-002	-1.30738E-003
	157	157	1.10009E+000	2.98422E-002	0.00000E+000	3.28290E-002	2.97766E-001	3.91177E-002	4.74206E+001	11	...........	6.53083E-002	-5.18708E-003	5.93899E-001	5.59190E-001	-2.78918E-002	-3.88350E-002	6.92448E-001	-4.39853E-002	1.94894E-003	-1.54794E-004	1.77232E-002	1.66874E-002	-8.32351E-004	-1.15892E-003	2.06642E-002	-1.31262E-003
	158	158	1.10013E+000	2.99271E-002	0.00000E+000	3.29237E-002	2.98613E-001	3.90972E-002	4.74383E+001	11	...........	6.52755E-002	-5.24653E-003	5.93895E-001	5.59174E-001	-2.78537E-002	-3.88482E-002	6.92477E-001	-4.40889E-002	1.95351E-003	-1.57013E-004	1.77735E-002	1.67344E-002	-8.33581E-004	-1.16261E-003	2.07238E-002	-1.31945E-003
	159	159	1.10017E+000	2.95836E-002	0.00000E+000	3.25472E-002	2.95200E-001	3.90850E-002	4.74283E+001	11	...........	6.52497E-002	-5.25458E-003	5.93849E-001	5.59280E-001	-2.78478E-002	-3.88593E-002	6.92551E-001	-4.40901E-002	1.93032E-003	-1.55450E-004	1.75682E-002	1.65455E-002	-8.23839E-004	-1.14960E-003	2.04882E-002	-1.30435E-003
	160	160	1.10009E+000	2.96231E-002	0.00000E+000	3.25880E-002	2.95587E-001	3.90512E-002	4.74370E+001	11	...........	6.51910E-002	-5.17639E-003	5.93826E-001	5.59184E-001	-2.78600E-002	-3.88571E-002	6.92653E-001	-4.41067E-002	1.93116E-003	-1.53340E-004	1.75909E-002	1.65647E-002	-8.25298E-004	-1.15107E-003	2.05185E-002	-1.30657E-003
	161	161	1.10013E+000	2.96911E-002	0.00000E+000	3.26641E-002	2.96263E-001	3.90441E-002	4.74271E+001	11	...........	6.51794E-002	-5.19014E-003	5.94062E-001	5.59187E-001	-2.78686E-002	-3.88669E-002	6.92604E-001	-4.40553E-002	1.93525E-003	-1.54101E-004	1.76383E-002	1.66029E-002	-8.27448E-004	-1.15400E-003	2.05641E-002	-1.30805E-003
	162	162	1.10018E+000	2.93657E-002	0.00000E+000	3.23074E-002	2.93031E-001	3.90294E-002	4.74079E+001	11	...........	6.51536E-002	-5.10069E-003	5.94154E-001	5.59177E-001	-2.78460E-002	-3.89033E-002	6.92669E-001	-4.40631E-002	1.91328E-003	-1.49785E-004	1.74477E-002	1.64206E-002	-8.17716E-004	-1.14242E-003	2.03407E-002	-1.29394E-003
	163	163	1.10009E+000	2.94101E-002	0.00000E+000	3.23537E-002	2.93471E-001	3.89867E-002	4.74224E+001	11	...........	6.50947E-002	-5.07542E-003	5.94040E-001	5.59219E-001	-2.78546E-002	-3.89058E-002	6.92763E-001	-4.40222E-002	1.91444E-003	-1.49269E-004	1.74708E-002	1.64467E-002	-8.19206E-004	-1.14423E-003	2.03742E-002	-1.29470E-003
	164	164	1.10013E+000	2.94888E-002	0.00000E+000	3.24415E-002	2.94251E-001	3.89748E-002	4.74443E+001	11	...........	6.50719E-002	-5.01417E-003	5.93927E-001	5.59184E-001	-2.78596E-002	-3.88906E-002	6.92828E-001	-4.40468E-002	1.91889E-003	-1.47862E-004	1.75142E-002	1.64897E-002	-8.21545E-004	-1.14683E-003	2.04306E-002	-1.29889E-003
	165	165	1.10018E+000	2.91519E-002	0.00000E+000	3.20722E-002	2.90903E-001	3.89525E-002	4.74459E+001	11	...........	6.50271E-002	-4.97986E-003	5.93898E-001	5.59095E-001	-2.78686E-002	-3.88812E-002	6.92891E-001	-4.40708E-002	1.89566E-003	-1.45172E-004	1.73132E-002	1.62987E-002	-8.12422E-004	-1.13346E-003	2.01991E-002	-1.28475E-003
	166	166	1.10009E+000	2.91753E-002	0.00000E+000	3.20954E-002	2.91142E-001	3.89398E-002	4.74458E+001	11	...........	6.49933E-002	-5.07361E-003	5.93911E-001	5.59051E-001	-2.78926E-002	-3.89043E-002	6.92975E-001	-4.40019E-002	1.89620E-003	-1.48024E-004	1.73275E-002	1.63105E-002	-8.13776E-004	-1.13505E-003	2.02177E-002	-1.28377E-003
	167	167	1.10013E+000	2.92773E-002	0.00000E+000	3.22087E-002	2.92149E-001	3.89293E-002	4.74634E+001	11	...........	6.49704E-002	-4.95181E-003	5.93837E-001	5.59033E-001	-2.78851E-002	-3.88962E-002	6.92925E-001	-4.40197E-002	1.90216E-003	-1.44975E-004	1.73859E-002	1.63670E-002	-8.16401E-004	-1.13878E-003	2.02869E-002	-1.28878E-003
	168	168	1.10018E+000	2.89803E-002	0.00000E+000	3.18835E-002	2.89204E-001	3.88826E-002	4.74689E+001	11	...........	6.49275E-002	-4.87181E-003	5.93833E-001	5.59068E-001	-2.79224E-002	-3.89085E-002	6.92805E-001	-4.40782E-002	1.88162E-003	-1.41186E-004	1.72095E-002	1.62019E-002	-8.09198E-004	-1.12758E-003	2.00777E-002	-1.27740E-003
	169	169	1.10009E+000	2.89793E-002	0.00000E+000	3.18798E-002	2.89193E-001	3.88781E-002	4.74746E+001	11	...........	6.49079E-002	-4.92958E-003	5.93805E-001	5.59054E-001	-2.79496E-002	-3.89110E-002	6.92669E-001	-4.39800E-002	1.88098E-003	-1.42856E-004	1.72080E-002	1.62010E-002	-8.09959E-004	-1.12761E-003	2.00730E-002	-1.27451E-003
	170	170	1.10013E+000	2.90704E-002	0.00000E+000	3.19811E-002	2.90095E-001	3.88504E-002	4.74680E+001	11	...........	6.48622E-002	-5.06319E-003	5.93747E-001	5.58927E-001	-2.79349E-002	-3.88939E-002	6.92762E-001	-4.40283E-002	1.88557E-003	-1.47189E-004	1.72605E-002	1.62482E-002	-8.12077E-004	-1.13066E-003	2.01389E-002	-1.27992E-003
	171	171	1.10018E+000	2.87746E-002	0.00000E+000	3.16572E-002	2.87154E-001	3.88278E-002	4.74373E+001	11	...........	6.48292E-002	-5.16625E-003	5.93904E-001	5.58869E-001	-2.79475E-002	-3.89017E-002	6.92732E-001	-4.40522E-002	1.86543E-003	-1.48657E-004	1.70893E-002	1.60812E-002	-8.04177E-004	-1.11938E-003	1.99331E-002	-1.26758E-003
	172	172	1.10009E+000	2.87682E-002	0.00000E+000	3.16476E-002	2.87092E-001	3.88079E-002	4.74358E+001	11	...........	6.47956E-002	-5.25417E-003	5.94018E-001	5.58920E-001	-2.79315E-002	-3.89051E-002	6.92689E-001	-4.40521E-002	1.86405E-003	-1.51153E-004	1.70888E-002	1.60791E-002	-8.03541E-004	-1.11923E-003	1.99274E-002	-1.26730E-003
	173	172.68	1.10020E+000	2.88093E-002	0.00000E+000	3.16960E-002	2.87500E-001	3.87852E-002	4.74402E+001	11	...........	6.47559E-002	-5.21752E-003	5.93991E-001	5.58837E-001	-2.79367E-002	-3.88897E-002	6.92636E-001	-4.40102E-002	1.86557E-003	-1.50313E-004	1.71125E-002	1.60997E-002	-8.04837E-004	-1.12039E-003	1.99544E-002	-1.26790E-003
STARTTIMEOFFSET	QUANT	557724.1	Start Time Offset (s)
