EXPLAIN
TAG	PWR800_CHARGE
TITLE	LABEL	PWR Charge	Test Identifier
DATE	LABEL	10/11/2022	Date
TIME	LABEL	4:12:32	Time
NOTES	NOTES	1	Notes...
	
PSTAT	PSTAT	REF3000-21114	Potentiostat
CAPACITY	QUANT	5.30000E-002	Capacity (A-hr)
CELLTYPE	SELECTOR	1	Cell Type
WORKINGCONNECTION	SELECTOR	0	Working Connection
MAXCHARGETIME	VARIABLEANDUNITS	7.20000E+003	s	2.00000E+000	hour(s)	Max Charge Time
CHARGEMODE	MULTIPARAM	0	1.00000E-001	Charge Mode	Constant Current	Amp(s)
CHARGECURRENT	QUANT	0.1	Charge Current (A)
VOLTAGEFINISH	TWOPARAM	T	2.50000E-002	7.20000E+003	Voltage Finish	I (A) <	Max Time(s)
SAMPLETIME	QUANT	1.00000E+000	Sample Period (s)
CHARGESTOPAT1	MULTIPARAM	2	1.10000E+000	Stop At 1	|Voltage| > Limit	V
CHARGESTOPAT2	MULTIPARAM	0	0.00000E+000	Stop At 2	None	N/A
AESELECTOR	AESELECTOR	0x1	T	Set Limits	AE Channels
AESBHCSELECTOR	TOGGLE	F	Save Both Half Cells
IRCOMP	TOGGLE	F	IR Measure
EOC	QUANT	0.3143941	Open Circuit (V)
SEQUENCER	TOGGLE	TRUE	Run as Sequence
PSTATMODEL	IQUANT	5	Pstat Model
PSTATSECTION	LABEL	REF3000-21114	Pstat Section
PSTATSERIALNO	LABEL	21114	Pstat Serial Number
CTRLMODE	IQUANT	0	Control Mode
ELECTROMETER	IQUANT	0	RE=0 or CS=1
IESTAB	IQUANT	0	I/E Stability
CASPEED	IQUANT	4	Control Amp Speed
CONVENTION	IQUANT	1	Current Convention
ICHRANGE	IQUANT	2	Ich Range
ICHRANGEMODE	TOGGLE	T	Ich Auto Range
ICHOFFSETENABLE	TOGGLE	F	Ich Offset Enable
ICHOFFSET	QUANT	0	Ich Offset (V)
ICHFILTER	IQUANT	1	Ich Filter
VCHRANGE	IQUANT	3	Vch Range
VCHRANGEMODE	TOGGLE	T	Vch Auto Range
VCHOFFSETENABLE	TOGGLE	F	Vch Offset Enable
VCHOFFSET	QUANT	0	Vch Offset (V)
VCHFILTER	IQUANT	1	Vch Filter
ACHRANGE	IQUANT	2	Ach Range
ACHOFFSETENABLE	TOGGLE	F	Ach Offset Enable
ACHOFFSET	QUANT	0	Ach Offset (V)
ACHFILTER	IQUANT	1	Ach Filter
IERANGELOWERLIMIT	IQUANT	9	I/E Range Lower Limit
IERANGEMODE	TOGGLE	F	I/E AutoRange
IERANGE	IQUANT	9	I/E Range
POSFEEDENABLE	TOGGLE	F	Positive Feedback IR Comp
POSFEEDRESISTANCE	QUANT	0	Positive Feedback Resistance (ohm)
ACHSELECT	IQUANT	1	Ach Select
SENSECABLEID	IQUANT	13	Sense Cable ID
PWRCABLEID	IQUANT	13	Power Cable ID
DCCALDATE	LABEL		DC Calibration Date
ACCALDATE	LABEL		AC Calibration Date
THERMOSELECT	IQUANT	1	Thermo Select
FRAMEWORKVERSION	LABEL	7.8.6	Framework Version
INSTRUMENTVERSION	LABEL	4.50	Instrument Version
COMPLIANCEVOLTAGE	IQUANT	0	Compliance Voltage
CURVE	TABLE	271
	Pt	T	Vf	Im	Vu	Pwr	Sig	Ach	Temp	IERange	Over	Vf1	Vf2	Vf3	Vf4	Vf5	Vf6	Vf7	Vf8	Pwr1	Pwr2	Pwr3	Pwr4	Pwr5	Pwr6	Pwr7	Pwr8
	#	s	V	A	V	W	V	V	deg C	#	bits	V	V	V	V	V	V	V	V	W	W	W	W	W	W	W	W
	0	1	5.47620E-001	9.98638E-002	0.00000E+000	5.46874E-002	9.94000E-001	3.75018E-002	3.39259E+001	11	...........	6.24806E-002	-3.75944E-003	5.64650E-001	6.64685E-001	-3.05132E-002	-3.96046E-002	6.54658E-001	-4.31292E-002	6.23955E-003	-3.75433E-004	5.63881E-002	6.63780E-002	-3.04716E-003	-3.95507E-003	6.53766E-002	-4.30704E-003
	1	2	6.71089E-001	9.98650E-002	0.00000E+000	6.70183E-002	9.94000E-001	3.77136E-002	3.48386E+001	11	...........	6.28533E-002	-3.89861E-003	5.64840E-001	6.64790E-001	-3.04815E-002	-3.95667E-002	6.54693E-001	-4.31742E-002	6.27685E-003	-3.89335E-004	5.64078E-002	6.63892E-002	-3.04404E-003	-3.95132E-003	6.53809E-002	-4.31159E-003
	2	3	7.96232E-001	9.98656E-002	0.00000E+000	7.95162E-002	9.94000E-001	3.79714E-002	3.60140E+001	11	...........	6.32783E-002	-3.96139E-003	5.64895E-001	6.64794E-001	-3.04882E-002	-3.95628E-002	6.54728E-001	-4.31365E-002	6.31933E-003	-3.95606E-004	5.64136E-002	6.63900E-002	-3.04472E-003	-3.95096E-003	6.53848E-002	-4.30785E-003
	3	4	9.77695E-001	9.98664E-002	0.00000E+000	9.76388E-002	9.94000E-001	3.81954E-002	3.64253E+001	11	...........	6.35931E-002	-3.88750E-003	5.64914E-001	6.64683E-001	-3.04710E-002	-3.95178E-002	6.54560E-001	-4.30883E-002	6.35081E-003	-3.88230E-004	5.64159E-002	6.63795E-002	-3.04303E-003	-3.94650E-003	6.53685E-002	-4.30308E-003
	4	4.035	1.09676E+000	9.98665E-002	0.00000E+000	1.09530E-001	9.94000E-001	3.83190E-002	3.01240E+001	11	...........	6.38770E-002	-4.09127E-003	5.65036E-001	6.64429E-001	-3.04960E-002	-3.96071E-002	6.54313E-001	-4.31944E-002	6.37917E-003	-4.08581E-004	5.64281E-002	6.63541E-002	-3.04553E-003	-3.95543E-003	6.53440E-002	-4.31368E-003
	5	5	1.10050E+000	7.90118E-002	0.00000E+000	8.69528E-002	7.86647E-001	3.79055E-002	3.95165E+001	11	...........	6.31275E-002	-3.96157E-003	5.64816E-001	6.64597E-001	-3.04798E-002	-3.95898E-002	6.54330E-001	-4.31454E-002	4.98782E-003	-3.13011E-004	4.46271E-002	5.25110E-002	-2.40827E-003	-3.12806E-003	5.16998E-002	-3.40899E-003
	6	6	1.10025E+000	6.92170E-002	0.00000E+000	7.61557E-002	6.89259E-001	3.83058E-002	3.99373E+001	11	...........	6.38068E-002	-3.94625E-003	5.64692E-001	6.64604E-001	-3.05001E-002	-3.95897E-002	6.54451E-001	-4.31362E-002	4.41652E-003	-2.73148E-004	3.90863E-002	4.60019E-002	-2.11113E-003	-2.74028E-003	4.52991E-002	-2.98576E-003
	7	7	1.10010E+000	6.66669E-002	0.00000E+000	7.33403E-002	6.63915E-001	3.80397E-002	3.90733E+001	11	...........	6.33383E-002	-3.94236E-003	5.64740E-001	6.64533E-001	-3.05333E-002	-3.96462E-002	6.54590E-001	-4.30000E-002	4.22257E-003	-2.62825E-004	3.76494E-002	4.43023E-002	-2.03556E-003	-2.64309E-003	4.36395E-002	-2.86668E-003
	8	8	1.10022E+000	6.51098E-002	0.00000E+000	7.16349E-002	6.48431E-001	3.74331E-002	3.86043E+001	11	...........	6.23874E-002	-3.94556E-003	5.64694E-001	6.64516E-001	-3.05678E-002	-3.96603E-002	6.54472E-001	-4.30412E-002	4.06203E-003	-2.56894E-004	3.67671E-002	4.32665E-002	-1.99026E-003	-2.58227E-003	4.26125E-002	-2.80241E-003
	9	9	1.10021E+000	6.36004E-002	0.00000E+000	6.99740E-002	6.33434E-001	3.77151E-002	3.85114E+001	11	...........	6.28582E-002	-4.03583E-003	5.64712E-001	6.64363E-001	-3.06364E-002	-3.97672E-002	6.54409E-001	-4.31131E-002	3.99781E-003	-2.56681E-004	3.59159E-002	4.22538E-002	-1.94849E-003	-2.52921E-003	4.16207E-002	-2.74201E-003
	10	10	1.10009E+000	6.33498E-002	0.00000E+000	6.96903E-002	6.30936E-001	3.80959E-002	3.83369E+001	11	...........	6.34997E-002	-3.97444E-003	5.64710E-001	6.64366E-001	-3.05856E-002	-3.96846E-002	6.54486E-001	-4.31315E-002	4.02269E-003	-2.51780E-004	3.57743E-002	4.20874E-002	-1.93759E-003	-2.51401E-003	4.14616E-002	-2.73237E-003
	11	11	1.10020E+000	6.29599E-002	0.00000E+000	6.92687E-002	6.27047E-001	3.73731E-002	3.92355E+001	11	...........	6.22676E-002	-3.87972E-003	5.64777E-001	6.64473E-001	-3.05326E-002	-3.96382E-002	6.54451E-001	-4.31197E-002	3.92036E-003	-2.44267E-004	3.55583E-002	4.18351E-002	-1.92233E-003	-2.49561E-003	4.12041E-002	-2.71481E-003
	12	12	1.10022E+000	6.19984E-002	0.00000E+000	6.82117E-002	6.17487E-001	3.77236E-002	3.91377E+001	11	...........	6.28194E-002	-3.92528E-003	5.64817E-001	6.64556E-001	-3.05044E-002	-3.96824E-002	6.54503E-001	-4.30833E-002	3.89470E-003	-2.43361E-004	3.50178E-002	4.12014E-002	-1.89123E-003	-2.46024E-003	4.05781E-002	-2.67110E-003
	13	13	1.10008E+000	6.20293E-002	0.00000E+000	6.82373E-002	6.17798E-001	3.75707E-002	3.89583E+001	11	...........	6.26110E-002	-3.85611E-003	5.64793E-001	6.64673E-001	-3.05717E-002	-3.96779E-002	6.54473E-001	-4.31142E-002	3.88372E-003	-2.39192E-004	3.50337E-002	4.12292E-002	-1.89634E-003	-2.46119E-003	4.05965E-002	-2.67434E-003
	14	14	1.10019E+000	6.19455E-002	0.00000E+000	6.81520E-002	6.16972E-001	3.74283E-002	3.89060E+001	11	...........	6.23654E-002	-3.86028E-003	5.64484E-001	6.64525E-001	-3.05849E-002	-3.97364E-002	6.54381E-001	-4.32447E-002	3.86326E-003	-2.39127E-004	3.49672E-002	4.11643E-002	-1.89459E-003	-2.46149E-003	4.05360E-002	-2.67882E-003
	15	15	1.10023E+000	6.10376E-002	0.00000E+000	6.71553E-002	6.07932E-001	3.71083E-002	3.86173E+001	11	...........	6.18568E-002	-3.74889E-003	5.64410E-001	6.64706E-001	-3.05256E-002	-3.96357E-002	6.54411E-001	-4.32125E-002	3.77559E-003	-2.28823E-004	3.44502E-002	4.05721E-002	-1.86321E-003	-2.41927E-003	3.99437E-002	-2.63759E-003
	16	16	1.10008E+000	6.12320E-002	0.00000E+000	6.73600E-002	6.09872E-001	3.76987E-002	3.86368E+001	11	...........	6.28031E-002	-3.92167E-003	5.64422E-001	6.64733E-001	-3.05439E-002	-3.96672E-002	6.54491E-001	-4.32653E-002	3.84556E-003	-2.40132E-004	3.45607E-002	4.07029E-002	-1.87026E-003	-2.42890E-003	4.00758E-002	-2.64922E-003
	17	17	1.10019E+000	6.10956E-002	0.00000E+000	6.72165E-002	6.08516E-001	3.71495E-002	3.78746E+001	11	...........	6.18943E-002	-3.83139E-003	5.64340E-001	6.64715E-001	-3.05418E-002	-3.96515E-002	6.54460E-001	-4.32517E-002	3.78147E-003	-2.34081E-004	3.44787E-002	4.06111E-002	-1.86597E-003	-2.42253E-003	3.99846E-002	-2.64248E-003
	18	18	1.10024E+000	6.02568E-002	0.00000E+000	6.62967E-002	6.00176E-001	3.70886E-002	3.90474E+001	11	...........	6.18028E-002	-3.85264E-003	5.64358E-001	6.64460E-001	-3.05454E-002	-3.96632E-002	6.54409E-001	-4.31750E-002	3.72404E-003	-2.32148E-004	3.40064E-002	4.00382E-002	-1.84057E-003	-2.38998E-003	3.94326E-002	-2.60159E-003
	19	19	1.10008E+000	6.04658E-002	0.00000E+000	6.65170E-002	6.02246E-001	3.75236E-002	3.85896E+001	11	...........	6.25217E-002	-3.80694E-003	5.64426E-001	6.64386E-001	-3.05281E-002	-3.96389E-002	6.54455E-001	-4.31457E-002	3.78042E-003	-2.30190E-004	3.41285E-002	4.01727E-002	-1.84590E-003	-2.39680E-003	3.95722E-002	-2.60884E-003
	20	20	1.10019E+000	6.03349E-002	0.00000E+000	6.63797E-002	6.00948E-001	3.71346E-002	3.55919E+001	11	...........	6.20287E-002	-3.78861E-003	5.64550E-001	6.64364E-001	-3.05678E-002	-3.96417E-002	6.54378E-001	-4.32426E-002	3.74250E-003	-2.28585E-004	3.40621E-002	4.00843E-002	-1.84430E-003	-2.39177E-003	3.94818E-002	-2.60904E-003
	21	21	1.10024E+000	5.96190E-002	0.00000E+000	6.55949E-002	5.93828E-001	3.69472E-002	3.73530E+001	11	...........	6.18515E-002	-3.78292E-003	5.64588E-001	6.64388E-001	-3.05789E-002	-3.96099E-002	6.54506E-001	-4.33035E-002	3.68753E-003	-2.25534E-004	3.36602E-002	3.96101E-002	-1.82308E-003	-2.36150E-003	3.90210E-002	-2.58171E-003
	22	22	1.10007E+000	5.98474E-002	0.00000E+000	6.58364E-002	5.96101E-001	3.68337E-002	3.96962E+001	11	...........	6.18294E-002	-3.75514E-003	5.64625E-001	6.64340E-001	-3.05676E-002	-3.96012E-002	6.54386E-001	-4.31878E-002	3.70033E-003	-2.24735E-004	3.37913E-002	3.97590E-002	-1.82939E-003	-2.37003E-003	3.91633E-002	-2.58468E-003
	23	23	1.10019E+000	5.97954E-002	0.00000E+000	6.57861E-002	5.95592E-001	3.70578E-002	3.80503E+001	11	...........	6.20194E-002	-3.89000E-003	5.64813E-001	6.64361E-001	-3.06201E-002	-3.96631E-002	6.54447E-001	-4.32351E-002	3.70848E-003	-2.32604E-004	3.37732E-002	3.97258E-002	-1.83094E-003	-2.37167E-003	3.91330E-002	-2.58526E-003
	24	24	1.10024E+000	5.89871E-002	0.00000E+000	6.49000E-002	5.87549E-001	3.67998E-002	3.82105E+001	11	...........	6.15835E-002	-3.84972E-003	5.64730E-001	6.64499E-001	-3.06062E-002	-3.96443E-002	6.54351E-001	-4.31628E-002	3.63263E-003	-2.27084E-004	3.33118E-002	3.91969E-002	-1.80537E-003	-2.33850E-003	3.85983E-002	-2.54605E-003
	25	25	1.10007E+000	5.91710E-002	0.00000E+000	6.50921E-002	5.89376E-001	3.67113E-002	3.88653E+001	11	...........	6.14461E-002	-3.85250E-003	5.64811E-001	6.64467E-001	-3.05810E-002	-3.96122E-002	6.54299E-001	-4.31739E-002	3.63583E-003	-2.27956E-004	3.34205E-002	3.93172E-002	-1.80951E-003	-2.34389E-003	3.87155E-002	-2.55464E-003
	26	26	1.10018E+000	5.91295E-002	0.00000E+000	6.50531E-002	5.88967E-001	3.69543E-002	3.88733E+001	11	...........	6.18285E-002	-3.94208E-003	5.65020E-001	6.64405E-001	-3.05940E-002	-3.96001E-002	6.54275E-001	-4.33056E-002	3.65588E-003	-2.33093E-004	3.34093E-002	3.92859E-002	-1.80901E-003	-2.34153E-003	3.86869E-002	-2.56063E-003
	27	27	1.10025E+000	5.83995E-002	0.00000E+000	6.42541E-002	5.81714E-001	3.68280E-002	3.72799E+001	11	...........	6.16208E-002	-3.86792E-003	5.64931E-001	6.64442E-001	-3.06304E-002	-3.96524E-002	6.54295E-001	-4.33631E-002	3.59863E-003	-2.25885E-004	3.29917E-002	3.88031E-002	-1.78880E-003	-2.31568E-003	3.82105E-002	-2.53238E-003
	28	28	1.10007E+000	5.86025E-002	0.00000E+000	6.44666E-002	5.83740E-001	3.67488E-002	3.81419E+001	11	...........	6.15154E-002	-3.97667E-003	5.64793E-001	6.64479E-001	-3.06524E-002	-3.96679E-002	6.54259E-001	-4.33290E-002	3.60496E-003	-2.33042E-004	3.30982E-002	3.89401E-002	-1.79630E-003	-2.32464E-003	3.83412E-002	-2.53919E-003
	29	29	1.10017E+000	5.86133E-002	0.00000E+000	6.44845E-002	5.83853E-001	3.65702E-002	3.77736E+001	11	...........	6.12461E-002	-4.15472E-003	5.64704E-001	6.64402E-001	-3.06797E-002	-3.96664E-002	6.54341E-001	-4.33590E-002	3.58984E-003	-2.43522E-004	3.30992E-002	3.89428E-002	-1.79824E-003	-2.32498E-003	3.83531E-002	-2.54142E-003
	30	30	1.10025E+000	5.79311E-002	0.00000E+000	6.37388E-002	5.77071E-001	3.65487E-002	3.91827E+001	11	...........	6.12036E-002	-4.15639E-003	5.64674E-001	6.64350E-001	-3.06742E-002	-3.96819E-002	6.54279E-001	-4.33912E-002	3.54559E-003	-2.40784E-004	3.27122E-002	3.84865E-002	-1.77699E-003	-2.29882E-003	3.79031E-002	-2.51370E-003
	31	31	1.10007E+000	5.79853E-002	0.00000E+000	6.37880E-002	5.77619E-001	3.67768E-002	3.83778E+001	11	...........	6.16062E-002	-4.13972E-003	5.64729E-001	6.64269E-001	-3.07356E-002	-3.97249E-002	6.54238E-001	-4.34825E-002	3.57226E-003	-2.40043E-004	3.27460E-002	3.85178E-002	-1.78221E-003	-2.30346E-003	3.79362E-002	-2.52135E-003
	32	32	1.10017E+000	5.80203E-002	0.00000E+000	6.38322E-002	5.77966E-001	3.64188E-002	3.82962E+001	11	...........	6.09717E-002	-4.09417E-003	5.64693E-001	6.64339E-001	-3.07468E-002	-3.97072E-002	6.54154E-001	-4.34982E-002	3.53759E-003	-2.37545E-004	3.27636E-002	3.85451E-002	-1.78394E-003	-2.30382E-003	3.79542E-002	-2.52378E-003
	33	33	1.10026E+000	5.73537E-002	0.00000E+000	6.31038E-002	5.71333E-001	3.66648E-002	3.82457E+001	11	...........	6.13996E-002	-4.06583E-003	5.64822E-001	6.64383E-001	-3.07437E-002	-3.96800E-002	6.54301E-001	-4.34546E-002	3.52149E-003	-2.33191E-004	3.23947E-002	3.81048E-002	-1.76327E-003	-2.27579E-003	3.75266E-002	-2.49228E-003
	34	34	1.10007E+000	5.73359E-002	0.00000E+000	6.30735E-002	5.71149E-001	3.65724E-002	3.84702E+001	11	...........	6.12267E-002	-4.03708E-003	5.64743E-001	6.64400E-001	-3.07082E-002	-3.96603E-002	6.54438E-001	-4.34197E-002	3.51049E-003	-2.31470E-004	3.23801E-002	3.80940E-002	-1.76068E-003	-2.27396E-003	3.75228E-002	-2.48951E-003
	35	35	1.10016E+000	5.74411E-002	0.00000E+000	6.31944E-002	5.72202E-001	3.65358E-002	3.87169E+001	11	...........	6.12111E-002	-4.03611E-003	5.64809E-001	6.64379E-001	-3.07587E-002	-3.97219E-002	6.54385E-001	-4.34189E-002	3.51603E-003	-2.31838E-004	3.24432E-002	3.81626E-002	-1.76682E-003	-2.28167E-003	3.75885E-002	-2.49403E-003
	36	36	1.10027E+000	5.68400E-002	0.00000E+000	6.25390E-002	5.66237E-001	3.64963E-002	3.76380E+001	11	...........	6.11074E-002	-4.04069E-003	5.64912E-001	6.64327E-001	-3.07843E-002	-3.97907E-002	6.54264E-001	-4.34939E-002	3.47334E-003	-2.29673E-004	3.21096E-002	3.77603E-002	-1.74978E-003	-2.26170E-003	3.71884E-002	-2.47219E-003
	37	37	1.10007E+000	5.69232E-002	0.00000E+000	6.26193E-002	5.67056E-001	3.65297E-002	3.87115E+001	11	...........	6.11969E-002	-4.17000E-003	5.64771E-001	6.64376E-001	-3.07543E-002	-3.97594E-002	6.54234E-001	-4.35483E-002	3.48352E-003	-2.37370E-004	3.21485E-002	3.78184E-002	-1.75063E-003	-2.26323E-003	3.72411E-002	-2.47891E-003
	38	38	1.10016E+000	5.68776E-002	0.00000E+000	6.25745E-002	5.66605E-001	3.63868E-002	3.90609E+001	11	...........	6.09554E-002	-4.24750E-003	5.64642E-001	6.64467E-001	-3.07828E-002	-3.97303E-002	6.54193E-001	-4.34036E-002	3.46700E-003	-2.41587E-004	3.21155E-002	3.77933E-002	-1.75085E-003	-2.25976E-003	3.72089E-002	-2.46869E-003
	39	39	1.10027E+000	5.63856E-002	0.00000E+000	6.20392E-002	5.61708E-001	3.64929E-002	3.69386E+001	11	...........	6.10793E-002	-4.14847E-003	5.64860E-001	6.64545E-001	-3.07054E-002	-3.96967E-002	6.54381E-001	-4.34058E-002	3.44399E-003	-2.33914E-004	3.18500E-002	3.74708E-002	-1.73134E-003	-2.23832E-003	3.68977E-002	-2.44746E-003
	40	40	1.10007E+000	5.64202E-002	0.00000E+000	6.20661E-002	5.62044E-001	3.64826E-002	3.85393E+001	11	...........	6.11054E-002	-4.10361E-003	5.64827E-001	6.64713E-001	-3.06633E-002	-3.96954E-002	6.54430E-001	-4.33568E-002	3.44758E-003	-2.31526E-004	3.18676E-002	3.75032E-002	-1.73003E-003	-2.23962E-003	3.69231E-002	-2.44620E-003
	41	41	1.10016E+000	5.64795E-002	0.00000E+000	6.21364E-002	5.62643E-001	3.64485E-002	3.81384E+001	11	...........	6.10371E-002	-4.03528E-003	5.64850E-001	6.64586E-001	-3.07371E-002	-3.97192E-002	6.54318E-001	-4.32774E-002	3.44734E-003	-2.27910E-004	3.19024E-002	3.75355E-002	-1.73601E-003	-2.24332E-003	3.69555E-002	-2.44428E-003
	42	42	1.10027E+000	5.58965E-002	0.00000E+000	6.15010E-002	5.56850E-001	3.63237E-002	3.79551E+001	11	...........	6.08286E-002	-3.93917E-003	5.64741E-001	6.64539E-001	-3.07964E-002	-3.97360E-002	6.54299E-001	-4.34596E-002	3.40010E-003	-2.20185E-004	3.15670E-002	3.71454E-002	-1.72141E-003	-2.22110E-003	3.65730E-002	-2.42924E-003
	43	43	1.10007E+000	5.58886E-002	0.00000E+000	6.14813E-002	5.56769E-001	3.64957E-002	3.85024E+001	11	...........	6.11290E-002	-4.02208E-003	5.64638E-001	6.64543E-001	-3.07587E-002	-3.96993E-002	6.54220E-001	-4.33885E-002	3.41641E-003	-2.24789E-004	3.15568E-002	3.71404E-002	-1.71906E-003	-2.21874E-003	3.65634E-002	-2.42492E-003
	44	44	1.10015E+000	5.59467E-002	0.00000E+000	6.15500E-002	5.57347E-001	3.61189E-002	3.84231E+001	11	...........	6.05024E-002	-4.16722E-003	5.64707E-001	6.64715E-001	-3.07783E-002	-3.97278E-002	6.54321E-001	-4.34717E-002	3.38491E-003	-2.33142E-004	3.15935E-002	3.71886E-002	-1.72195E-003	-2.22264E-003	3.66071E-002	-2.43210E-003
	45	45	1.10028E+000	5.53114E-002	0.00000E+000	6.08578E-002	5.51031E-001	3.63873E-002	3.91568E+001	11	...........	6.09490E-002	-4.17111E-003	5.64703E-001	6.64828E-001	-3.08015E-002	-3.97433E-002	6.54314E-001	-4.36383E-002	3.37118E-003	-2.30710E-004	3.12345E-002	3.67726E-002	-1.70368E-003	-2.19826E-003	3.61910E-002	-2.41370E-003
	46	46	1.10006E+000	5.54493E-002	0.00000E+000	6.09978E-002	5.52402E-001	3.63077E-002	3.83619E+001	11	...........	6.08119E-002	-3.99778E-003	5.64568E-001	6.64867E-001	-3.07851E-002	-3.97258E-002	6.54241E-001	-4.35307E-002	3.37198E-003	-2.21674E-004	3.13049E-002	3.68664E-002	-1.70702E-003	-2.20277E-003	3.62772E-002	-2.41375E-003
	47	47	1.10016E+000	5.54304E-002	0.00000E+000	6.09821E-002	5.52217E-001	3.61213E-002	3.60910E+001	11	...........	6.04982E-002	-3.92722E-003	5.64499E-001	6.64812E-001	-3.08274E-002	-3.97000E-002	6.54280E-001	-4.33946E-002	3.35344E-003	-2.17688E-004	3.12904E-002	3.68508E-002	-1.70877E-003	-2.20059E-003	3.62670E-002	-2.40538E-003
	48	48	1.10027E+000	5.48382E-002	0.00000E+000	6.03367E-002	5.46321E-001	3.58882E-002	3.79204E+001	11	...........	6.01143E-002	-3.85208E-003	5.64476E-001	6.64987E-001	-3.07681E-002	-3.96621E-002	6.54217E-001	-4.33568E-002	3.29656E-003	-2.11241E-004	3.09548E-002	3.64667E-002	-1.68726E-003	-2.17500E-003	3.58761E-002	-2.37761E-003
	49	49	1.10007E+000	5.49281E-002	0.00000E+000	6.04248E-002	5.47211E-001	3.67090E-002	3.84470E+001	11	...........	6.14599E-002	-4.03417E-003	5.64660E-001	6.64845E-001	-3.07267E-002	-3.96392E-002	6.54311E-001	-4.32814E-002	3.37587E-003	-2.21589E-004	3.10157E-002	3.65186E-002	-1.68776E-003	-2.17730E-003	3.59400E-002	-2.37736E-003
	50	50	1.10015E+000	5.49257E-002	0.00000E+000	6.04265E-002	5.47186E-001	3.60339E-002	3.73227E+001	11	...........	6.03640E-002	-4.03681E-003	5.64659E-001	6.64813E-001	-3.07051E-002	-3.96250E-002	6.54200E-001	-4.33282E-002	3.31554E-003	-2.21724E-004	3.10143E-002	3.65153E-002	-1.68650E-003	-2.17643E-003	3.59324E-002	-2.37983E-003
	51	51	1.10027E+000	5.43622E-002	0.00000E+000	5.98133E-002	5.41589E-001	3.61407E-002	3.80262E+001	11	...........	6.05183E-002	-3.95194E-003	5.64771E-001	6.64868E-001	-3.07194E-002	-3.96507E-002	6.54205E-001	-4.33135E-002	3.28991E-003	-2.14836E-004	3.07022E-002	3.61437E-002	-1.66998E-003	-2.15550E-003	3.55640E-002	-2.35462E-003
	52	52	1.10007E+000	5.44477E-002	0.00000E+000	5.98962E-002	5.42439E-001	3.63688E-002	3.87965E+001	11	...........	6.09165E-002	-4.04333E-003	5.64812E-001	6.64857E-001	-3.07599E-002	-3.96836E-002	6.54094E-001	-4.33761E-002	3.31676E-003	-2.20150E-004	3.07527E-002	3.61999E-002	-1.67480E-003	-2.16068E-003	3.56139E-002	-2.36173E-003
	53	53	1.10015E+000	5.44666E-002	0.00000E+000	5.99212E-002	5.42629E-001	3.58228E-002	3.80609E+001	11	...........	6.00060E-002	-4.08514E-003	5.64645E-001	6.64813E-001	-3.07810E-002	-3.97107E-002	6.54034E-001	-4.34822E-002	3.26832E-003	-2.22504E-004	3.07543E-002	3.62101E-002	-1.67654E-003	-2.16291E-003	3.56230E-002	-2.36833E-003
	54	54	1.10028E+000	5.38962E-002	0.00000E+000	5.93009E-002	5.36949E-001	3.63686E-002	3.75165E+001	11	...........	6.08937E-002	-4.00750E-003	5.64675E-001	6.64945E-001	-3.07675E-002	-3.97000E-002	6.54195E-001	-4.33375E-002	3.28194E-003	-2.15989E-004	3.04339E-002	3.58380E-002	-1.65825E-003	-2.13968E-003	3.52586E-002	-2.33573E-003
	55	55	1.10007E+000	5.38356E-002	0.00000E+000	5.92230E-002	5.36356E-001	3.62801E-002	3.86379E+001	11	...........	6.07725E-002	-3.95264E-003	5.64836E-001	6.65101E-001	-3.08043E-002	-3.97319E-002	6.54282E-001	-4.32099E-002	3.27172E-003	-2.12793E-004	3.04082E-002	3.58061E-002	-1.65837E-003	-2.13899E-003	3.52236E-002	-2.32623E-003
	56	56	1.10014E+000	5.40086E-002	0.00000E+000	5.94170E-002	5.38077E-001	3.60578E-002	3.75844E+001	11	...........	6.03951E-002	-3.91750E-003	5.64879E-001	6.65069E-001	-3.07990E-002	-3.97347E-002	6.54232E-001	-4.32351E-002	3.26186E-003	-2.11579E-004	3.05083E-002	3.59195E-002	-1.66341E-003	-2.14602E-003	3.53342E-002	-2.33507E-003
	57	57	1.10028E+000	5.34937E-002	0.00000E+000	5.88581E-002	5.32954E-001	3.61360E-002	3.85018E+001	11	...........	6.05569E-002	-4.06847E-003	5.64966E-001	6.65173E-001	-3.07964E-002	-3.97475E-002	6.54276E-001	-4.32929E-002	3.23941E-003	-2.17637E-004	3.02221E-002	3.55826E-002	-1.64741E-003	-2.12624E-003	3.49996E-002	-2.31590E-003
	58	58	1.10007E+000	5.33348E-002	0.00000E+000	5.86719E-002	5.31383E-001	3.58933E-002	3.84540E+001	11	...........	6.01432E-002	-4.09639E-003	5.64896E-001	6.65309E-001	-3.08440E-002	-3.98044E-002	6.54294E-001	-4.33386E-002	3.20773E-003	-2.18480E-004	3.01286E-002	3.54842E-002	-1.64506E-003	-2.12296E-003	3.48967E-002	-2.31146E-003
	59	59	1.10015E+000	5.34683E-002	0.00000E+000	5.88229E-002	5.32709E-001	3.59132E-002	3.78713E+001	11	...........	6.01697E-002	-4.09361E-003	5.64898E-001	6.65353E-001	-3.08175E-002	-3.97937E-002	6.54306E-001	-4.34425E-002	3.21717E-003	-2.18878E-004	3.02041E-002	3.55753E-002	-1.64776E-003	-2.12770E-003	3.49847E-002	-2.32280E-003
	60	60	1.10028E+000	5.29812E-002	0.00000E+000	5.82942E-002	5.27861E-001	3.61816E-002	3.81667E+001	11	...........	6.06110E-002	-3.97014E-003	5.64812E-001	6.65377E-001	-3.08032E-002	-3.97771E-002	6.54496E-001	-4.34300E-002	3.21124E-003	-2.10343E-004	2.99244E-002	3.52525E-002	-1.63199E-003	-2.10744E-003	3.46760E-002	-2.30097E-003
	61	61	1.10007E+000	5.28561E-002	0.00000E+000	5.81457E-002	5.26616E-001	3.62067E-002	3.84055E+001	11	...........	6.06361E-002	-4.08153E-003	5.64871E-001	6.65334E-001	-3.07632E-002	-3.97551E-002	6.54428E-001	-4.34153E-002	3.20499E-003	-2.15734E-004	2.98569E-002	3.51669E-002	-1.62602E-003	-2.10130E-003	3.45905E-002	-2.29476E-003
	62	62	1.10014E+000	5.29468E-002	0.00000E+000	5.82486E-002	5.27516E-001	3.56352E-002	3.82435E+001	11	...........	5.96789E-002	-4.05944E-003	5.64928E-001	6.65429E-001	-3.07790E-002	-3.97799E-002	6.54306E-001	-4.33790E-002	3.15980E-003	-2.14934E-004	2.99111E-002	3.52323E-002	-1.62965E-003	-2.10622E-003	3.46434E-002	-2.29678E-003
	63	63	1.10028E+000	5.25206E-002	0.00000E+000	5.77874E-002	5.23277E-001	3.60138E-002	3.77537E+001	11	...........	6.03011E-002	-4.04653E-003	5.64932E-001	6.65592E-001	-3.07022E-002	-3.97856E-002	6.54412E-001	-4.33407E-002	3.16705E-003	-2.12526E-004	2.96706E-002	3.49573E-002	-1.61250E-003	-2.08956E-003	3.43701E-002	-2.27628E-003
	64	64	1.10007E+000	5.23095E-002	0.00000E+000	5.75443E-002	5.21176E-001	3.57202E-002	3.83353E+001	11	...........	5.97929E-002	-4.09944E-003	5.64936E-001	6.65432E-001	-3.07567E-002	-3.97922E-002	6.54396E-001	-4.33706E-002	3.12774E-003	-2.14440E-004	2.95515E-002	3.48085E-002	-1.60887E-003	-2.08151E-003	3.42311E-002	-2.26869E-003
	65	65	1.10014E+000	5.25350E-002	0.00000E+000	5.77959E-002	5.23416E-001	3.61014E-002	3.83872E+001	11	...........	6.04544E-002	-4.20486E-003	5.65115E-001	6.65398E-001	-3.07268E-002	-3.97736E-002	6.54528E-001	-4.33978E-002	3.17598E-003	-2.20903E-004	2.96883E-002	3.49567E-002	-1.61423E-003	-2.08951E-003	3.43856E-002	-2.27990E-003
	66	66	1.10028E+000	5.20697E-002	0.00000E+000	5.72913E-002	5.18797E-001	3.61068E-002	3.83912E+001	11	...........	6.04690E-002	-4.19917E-003	5.64981E-001	6.65506E-001	-3.07732E-002	-3.98157E-002	6.54415E-001	-4.34310E-002	3.14861E-003	-2.18649E-004	2.94184E-002	3.46527E-002	-1.60235E-003	-2.07319E-003	3.40752E-002	-2.26144E-003
	67	67	1.10008E+000	5.18546E-002	0.00000E+000	5.70439E-002	5.16650E-001	3.59460E-002	3.74348E+001	11	...........	6.02064E-002	-4.16014E-003	5.64897E-001	6.65575E-001	-3.07243E-002	-3.97867E-002	6.54587E-001	-4.33747E-002	3.12198E-003	-2.15722E-004	2.92925E-002	3.45131E-002	-1.59320E-003	-2.06312E-003	3.39433E-002	-2.24918E-003
	68	68	1.10014E+000	5.20945E-002	0.00000E+000	5.73110E-002	5.19030E-001	3.56408E-002	3.84171E+001	11	...........	5.96858E-002	-4.04597E-003	5.64985E-001	6.65626E-001	-3.07114E-002	-3.97081E-002	6.54433E-001	-4.33814E-002	3.10930E-003	-2.10773E-004	2.94326E-002	3.46755E-002	-1.59989E-003	-2.06857E-003	3.40924E-002	-2.25993E-003
	69	69	1.10028E+000	5.16549E-002	0.00000E+000	5.68348E-002	5.14658E-001	3.61735E-002	3.77882E+001	11	...........	6.05647E-002	-4.10403E-003	5.65089E-001	6.65744E-001	-3.07079E-002	-3.96914E-002	6.54552E-001	-4.35301E-002	3.12847E-003	-2.11993E-004	2.91896E-002	3.43890E-002	-1.58622E-003	-2.05026E-003	3.38108E-002	-2.24855E-003
	70	70	1.10008E+000	5.14233E-002	0.00000E+000	5.65697E-002	5.12360E-001	3.57767E-002	3.72411E+001	11	...........	5.98882E-002	-4.07292E-003	5.65020E-001	6.65825E-001	-3.07028E-002	-3.97132E-002	6.54535E-001	-4.34904E-002	3.07965E-003	-2.09443E-004	2.90552E-002	3.42389E-002	-1.57884E-003	-2.04218E-003	3.36583E-002	-2.23642E-003
	71	71	1.10013E+000	5.16540E-002	0.00000E+000	5.68263E-002	5.14652E-001	3.57358E-002	3.88950E+001	11	...........	5.98211E-002	-4.13250E-003	5.65144E-001	6.65744E-001	-3.06986E-002	-3.97072E-002	6.54558E-001	-4.34247E-002	3.09000E-003	-2.13460E-004	2.91920E-002	3.43883E-002	-1.58571E-003	-2.05104E-003	3.38105E-002	-2.24306E-003
	72	72	1.10028E+000	5.11402E-002	0.00000E+000	5.62685E-002	5.09539E-001	3.60093E-002	3.76951E+001	11	...........	6.03079E-002	-4.12681E-003	5.65232E-001	6.65687E-001	-3.06903E-002	-3.96732E-002	6.54522E-001	-4.31803E-002	3.08416E-003	-2.11046E-004	2.89060E-002	3.40434E-002	-1.56951E-003	-2.02889E-003	3.34724E-002	-2.20825E-003
	73	73	1.10008E+000	5.09815E-002	0.00000E+000	5.60838E-002	5.07963E-001	3.58708E-002	3.80376E+001	11	...........	6.00804E-002	-4.08556E-003	5.65083E-001	6.65585E-001	-3.06510E-002	-3.96497E-002	6.54422E-001	-4.32800E-002	3.06299E-003	-2.08288E-004	2.88087E-002	3.39325E-002	-1.56263E-003	-2.02140E-003	3.33634E-002	-2.20648E-003
	74	74	1.10013E+000	5.11572E-002	0.00000E+000	5.62796E-002	5.09717E-001	3.55433E-002	3.86485E+001	11	...........	5.95292E-002	-4.03056E-003	5.64955E-001	6.65608E-001	-3.07281E-002	-3.96969E-002	6.54292E-001	-4.34160E-002	3.04535E-003	-2.06192E-004	2.89016E-002	3.40507E-002	-1.57196E-003	-2.03079E-003	3.34718E-002	-2.22104E-003
	75	75	1.10028E+000	5.06277E-002	0.00000E+000	5.57046E-002	5.04455E-001	3.59018E-002	3.74318E+001	11	...........	6.01003E-002	-4.07972E-003	5.65128E-001	6.65835E-001	-3.07193E-002	-3.97525E-002	6.54400E-001	-4.33549E-002	3.04274E-003	-2.06547E-004	2.86111E-002	3.37097E-002	-1.55525E-003	-2.01258E-003	3.31308E-002	-2.19496E-003
	76	76	1.10008E+000	5.04983E-002	0.00000E+000	5.55522E-002	5.03166E-001	3.56577E-002	3.75552E+001	11	...........	5.97346E-002	-4.10319E-003	5.65197E-001	6.65865E-001	-3.07183E-002	-3.96987E-002	6.54301E-001	-4.33192E-002	3.01649E-003	-2.07204E-004	2.85415E-002	3.36250E-002	-1.55122E-003	-2.00472E-003	3.30411E-002	-2.18754E-003
	77	77	1.10013E+000	5.06741E-002	0.00000E+000	5.57483E-002	5.04919E-001	3.56651E-002	3.80402E+001	11	...........	5.97512E-002	-4.16875E-003	5.65378E-001	6.65954E-001	-3.07821E-002	-3.97199E-002	6.54294E-001	-4.34285E-002	3.02784E-003	-2.11248E-004	2.86500E-002	3.37466E-002	-1.55985E-003	-2.01277E-003	3.31557E-002	-2.20070E-003
	78	78	1.10027E+000	5.03241E-002	0.00000E+000	5.53703E-002	5.01435E-001	3.57646E-002	3.77828E+001	11	...........	5.98846E-002	-4.10750E-003	5.65473E-001	6.65895E-001	-3.07469E-002	-3.97031E-002	6.54403E-001	-4.34179E-002	3.01364E-003	-2.06706E-004	2.84569E-002	3.35106E-002	-1.54731E-003	-1.99802E-003	3.29323E-002	-2.18497E-003
	79	79	1.10009E+000	5.00412E-002	0.00000E+000	5.50499E-002	4.98624E-001	3.54516E-002	3.85492E+001	11	...........	5.93879E-002	-4.13903E-003	5.65601E-001	6.65932E-001	-3.07797E-002	-3.97394E-002	6.54383E-001	-4.34637E-002	2.97184E-003	-2.07122E-004	2.83033E-002	3.33240E-002	-1.54025E-003	-1.98861E-003	3.27461E-002	-2.17498E-003
	80	80	1.10013E+000	5.01256E-002	0.00000E+000	5.51447E-002	4.99467E-001	3.57906E-002	3.61679E+001	11	...........	5.99378E-002	-4.14264E-003	5.65454E-001	6.66073E-001	-3.07915E-002	-3.97457E-002	6.54376E-001	-4.35500E-002	3.00442E-003	-2.07652E-004	2.83437E-002	3.33873E-002	-1.54344E-003	-1.99228E-003	3.28010E-002	-2.18297E-003
	81	81	1.10026E+000	4.97914E-002	0.00000E+000	5.47837E-002	4.96154E-001	3.55926E-002	3.78303E+001	11	...........	5.96278E-002	-4.21861E-003	5.65232E-001	6.66050E-001	-3.08717E-002	-3.98094E-002	6.54444E-001	-4.34362E-002	2.96895E-003	-2.10050E-004	2.81436E-002	3.31635E-002	-1.53714E-003	-1.98217E-003	3.25857E-002	-2.16275E-003
	82	82	1.10010E+000	4.96166E-002	0.00000E+000	5.45831E-002	4.94415E-001	3.55232E-002	3.87489E+001	11	...........	5.95092E-002	-4.25486E-003	5.65276E-001	6.65994E-001	-3.08672E-002	-3.98267E-002	6.54376E-001	-4.33807E-002	2.95264E-003	-2.11112E-004	2.80471E-002	3.30444E-002	-1.53153E-003	-1.97607E-003	3.24680E-002	-2.15240E-003
	83	83	1.10013E+000	4.97825E-002	0.00000E+000	5.47674E-002	4.96061E-001	3.58998E-002	3.62158E+001	11	...........	6.01475E-002	-4.23514E-003	5.65254E-001	6.65995E-001	-3.08267E-002	-3.98054E-002	6.54414E-001	-4.34858E-002	2.99429E-003	-2.10836E-004	2.81397E-002	3.31549E-002	-1.53463E-003	-1.98161E-003	3.25783E-002	-2.16483E-003
	84	84	1.10026E+000	4.94103E-002	0.00000E+000	5.43643E-002	4.92364E-001	3.51501E-002	3.71132E+001	11	...........	5.89117E-002	-4.07222E-003	5.64907E-001	6.65982E-001	-3.08478E-002	-3.98610E-002	6.54223E-001	-4.34221E-002	2.91084E-003	-2.01210E-004	2.79122E-002	3.29064E-002	-1.52420E-003	-1.96954E-003	3.23253E-002	-2.14550E-003
	85	85	1.10010E+000	4.91053E-002	0.00000E+000	5.40207E-002	4.89337E-001	3.56762E-002	3.74066E+001	11	...........	5.97789E-002	-4.18722E-003	5.64946E-001	6.65901E-001	-3.08549E-002	-3.98781E-002	6.54377E-001	-4.34846E-002	2.93546E-003	-2.05615E-004	2.77419E-002	3.26993E-002	-1.51514E-003	-1.95823E-003	3.21334E-002	-2.13533E-003
	86	86	1.10013E+000	4.93250E-002	0.00000E+000	5.42639E-002	4.91522E-001	3.53734E-002	3.87900E+001	11	...........	5.92783E-002	-4.18014E-003	5.65084E-001	6.65963E-001	-3.08815E-002	-3.98975E-002	6.54353E-001	-4.35432E-002	2.92390E-003	-2.06185E-004	2.78728E-002	3.28486E-002	-1.52323E-003	-1.96794E-003	3.22759E-002	-2.14777E-003
	87	87	1.10026E+000	4.90153E-002	0.00000E+000	5.39296E-002	4.88437E-001	3.57465E-002	3.76044E+001	11	...........	5.98610E-002	-4.16194E-003	5.65103E-001	6.66123E-001	-3.08394E-002	-3.98697E-002	6.54561E-001	-4.34550E-002	2.93410E-003	-2.03999E-004	2.76987E-002	3.26502E-002	-1.51160E-003	-1.95423E-003	3.20835E-002	-2.12996E-003
	88	88	1.10010E+000	4.87016E-002	0.00000E+000	5.35768E-002	4.85313E-001	3.53160E-002	3.84655E+001	11	...........	5.91489E-002	-4.07097E-003	5.65184E-001	6.66190E-001	-3.08244E-002	-3.98196E-002	6.54611E-001	-4.32637E-002	2.88064E-003	-1.98263E-004	2.75254E-002	3.24445E-002	-1.50120E-003	-1.93928E-003	3.18806E-002	-2.10701E-003
	89	89	1.10012E+000	4.89881E-002	0.00000E+000	5.38930E-002	4.88164E-001	3.55406E-002	3.85139E+001	11	...........	5.95592E-002	-4.09472E-003	5.65384E-001	6.66020E-001	-3.08556E-002	-3.98719E-002	6.54502E-001	-4.31568E-002	2.91769E-003	-2.00593E-004	2.76971E-002	3.26271E-002	-1.51156E-003	-1.95325E-003	3.20628E-002	-2.11417E-003
	90	90	1.10026E+000	4.85196E-002	0.00000E+000	5.33841E-002	4.83499E-001	3.52620E-002	3.78542E+001	11	...........	5.90610E-002	-4.02292E-003	5.65473E-001	6.65960E-001	-3.07937E-002	-3.98464E-002	6.54569E-001	-4.32389E-002	2.86561E-003	-1.95190E-004	2.74365E-002	3.23121E-002	-1.49410E-003	-1.93333E-003	3.17594E-002	-2.09793E-003
	91	91	1.10011E+000	4.82132E-002	0.00000E+000	5.30398E-002	4.80454E-001	3.54752E-002	3.75775E+001	11	...........	5.94157E-002	-4.00708E-003	5.65401E-001	6.65961E-001	-3.07539E-002	-3.97950E-002	6.54532E-001	-4.34060E-002	2.86462E-003	-1.93194E-004	2.72598E-002	3.21081E-002	-1.48274E-003	-1.91864E-003	3.15571E-002	-2.09274E-003
	92	92	1.10013E+000	4.85413E-002	0.00000E+000	5.34015E-002	4.83711E-001	3.56958E-002	3.90629E+001	11	...........	5.97843E-002	-3.98167E-003	5.65259E-001	6.65995E-001	-3.07481E-002	-3.97603E-002	6.54437E-001	-4.34442E-002	2.90201E-003	-1.93275E-004	2.74384E-002	3.23283E-002	-1.49255E-003	-1.93002E-003	3.17672E-002	-2.10884E-003
	93	93	1.10026E+000	4.81092E-002	0.00000E+000	5.29325E-002	4.79419E-001	3.52705E-002	3.79861E+001	11	...........	5.90374E-002	-3.94097E-003	5.65055E-001	6.65870E-001	-3.07585E-002	-3.97569E-002	6.54425E-001	-4.33144E-002	2.84024E-003	-1.89597E-004	2.71844E-002	3.20345E-002	-1.47977E-003	-1.91268E-003	3.14839E-002	-2.08382E-003
	94	94	1.10011E+000	4.77153E-002	0.00000E+000	5.24919E-002	4.75501E-001	3.51979E-002	3.63253E+001	11	...........	5.89969E-002	-3.88486E-003	5.64854E-001	6.66016E-001	-3.07446E-002	-3.97579E-002	6.54475E-001	-4.33385E-002	2.81506E-003	-1.85367E-004	2.69522E-002	3.17791E-002	-1.46699E-003	-1.89706E-003	3.12285E-002	-2.06791E-003
	95	95	1.10013E+000	4.80602E-002	0.00000E+000	5.28724E-002	4.78931E-001	3.54721E-002	3.72650E+001	11	...........	5.95915E-002	-4.03847E-003	5.64877E-001	6.66015E-001	-3.07383E-002	-3.97300E-002	6.54491E-001	-4.34281E-002	2.86398E-003	-1.94090E-004	2.71481E-002	3.20088E-002	-1.47729E-003	-1.90943E-003	3.14549E-002	-2.08716E-003
	96	96	1.10026E+000	4.78020E-002	0.00000E+000	5.25945E-002	4.76359E-001	3.56058E-002	3.86725E+001	11	...........	5.96656E-002	-3.89681E-003	5.64865E-001	6.66013E-001	-3.07225E-002	-3.97182E-002	6.54551E-001	-4.33432E-002	2.85213E-003	-1.86275E-004	2.70017E-002	3.18367E-002	-1.46860E-003	-1.89861E-003	3.12888E-002	-2.07189E-003
	97	97	1.10011E+000	4.74138E-002	0.00000E+000	5.21605E-002	4.72489E-001	3.53399E-002	3.73913E+001	11	...........	5.91601E-002	-3.84333E-003	5.64657E-001	6.65901E-001	-3.06737E-002	-3.96061E-002	6.54527E-001	-4.31864E-002	2.80501E-003	-1.82227E-004	2.67725E-002	3.15729E-002	-1.45436E-003	-1.87787E-003	3.10336E-002	-2.04763E-003
	98	98	1.10012E+000	4.76293E-002	0.00000E+000	5.23980E-002	4.74639E-001	3.49198E-002	3.74375E+001	11	...........	5.84729E-002	-3.84944E-003	5.64552E-001	6.65794E-001	-3.06808E-002	-3.96283E-002	6.54483E-001	-4.33537E-002	2.78502E-003	-1.83346E-004	2.68892E-002	3.17113E-002	-1.46131E-003	-1.88747E-003	3.11726E-002	-2.06491E-003
	99	99	1.10025E+000	4.73893E-002	0.00000E+000	5.21403E-002	4.72255E-001	3.56287E-002	3.83044E+001	11	...........	5.96718E-002	-4.06861E-003	5.64627E-001	6.65742E-001	-3.07043E-002	-3.96526E-002	6.54392E-001	-4.33442E-002	2.82781E-003	-1.92809E-004	2.67573E-002	3.15491E-002	-1.45506E-003	-1.87911E-003	3.10112E-002	-2.05405E-003
	100	100	1.10012E+000	4.68966E-002	0.00000E+000	5.15917E-002	4.67360E-001	3.50557E-002	3.74641E+001	11	...........	5.87237E-002	-4.04375E-003	5.64639E-001	6.65633E-001	-3.07007E-002	-3.96728E-002	6.54333E-001	-4.32711E-002	2.75394E-003	-1.89638E-004	2.64796E-002	3.12159E-002	-1.43976E-003	-1.86052E-003	3.06860E-002	-2.02927E-003
	101	101	1.10012E+000	4.71984E-002	0.00000E+000	5.19241E-002	4.70367E-001	3.54868E-002	3.93898E+001	11	...........	5.94374E-002	-3.98819E-003	5.64813E-001	6.65670E-001	-3.07325E-002	-3.97318E-002	6.54282E-001	-4.31560E-002	2.80535E-003	-1.88237E-004	2.66583E-002	3.14186E-002	-1.45053E-003	-1.87528E-003	3.08811E-002	-2.03689E-003
	102	102	1.10025E+000	4.70045E-002	0.00000E+000	5.17167E-002	4.68440E-001	3.53758E-002	3.74880E+001	11	...........	5.92549E-002	-4.04000E-003	5.64759E-001	6.65452E-001	-3.07544E-002	-3.97679E-002	6.54260E-001	-4.32007E-002	2.78524E-003	-1.89898E-004	2.65462E-002	3.12792E-002	-1.44560E-003	-1.86927E-003	3.07532E-002	-2.03063E-003
	103	103	1.10012E+000	4.65558E-002	0.00000E+000	5.12171E-002	4.63981E-001	3.50025E-002	3.77502E+001	11	...........	5.86351E-002	-3.91653E-003	5.64750E-001	6.65342E-001	-3.07531E-002	-3.97017E-002	6.54218E-001	-4.33126E-002	2.72981E-003	-1.82337E-004	2.62924E-002	3.09756E-002	-1.43173E-003	-1.84834E-003	3.04577E-002	-2.01646E-003
	104	104	1.10012E+000	4.67644E-002	0.00000E+000	5.14465E-002	4.66052E-001	3.50350E-002	3.83554E+001	11	...........	5.86842E-002	-3.98833E-003	5.64711E-001	6.65289E-001	-3.07640E-002	-3.97271E-002	6.54241E-001	-4.32924E-002	2.74433E-003	-1.86512E-004	2.64084E-002	3.11118E-002	-1.43866E-003	-1.85781E-003	3.05952E-002	-2.02454E-003
	105	105	1.10025E+000	4.66228E-002	0.00000E+000	5.12966E-002	4.64652E-001	3.53330E-002	3.86412E+001	11	...........	5.92069E-002	-4.09472E-003	5.64794E-001	6.65321E-001	-3.08254E-002	-3.97283E-002	6.54367E-001	-4.33318E-002	2.76040E-003	-1.90908E-004	2.63323E-002	3.10192E-002	-1.43717E-003	-1.85225E-003	3.05085E-002	-2.02025E-003
	106	106	1.10013E+000	4.62117E-002	0.00000E+000	5.08388E-002	4.60562E-001	3.52511E-002	3.84242E+001	11	...........	5.90585E-002	-4.05556E-003	5.64952E-001	6.65233E-001	-3.08240E-002	-3.97444E-002	6.54425E-001	-4.32471E-002	2.72919E-003	-1.87414E-004	2.61074E-002	3.07416E-002	-1.42443E-003	-1.83666E-003	3.02421E-002	-1.99852E-003
	107	107	1.10012E+000	4.63521E-002	0.00000E+000	5.09929E-002	4.61959E-001	3.48839E-002	3.71132E+001	11	...........	5.84221E-002	-4.02042E-003	5.64844E-001	6.65284E-001	-3.08239E-002	-3.97768E-002	6.54370E-001	-4.32392E-002	2.70798E-003	-1.86355E-004	2.61817E-002	3.08373E-002	-1.42875E-003	-1.84374E-003	3.03314E-002	-2.00422E-003
	108	108	1.10024E+000	4.61239E-002	0.00000E+000	5.07475E-002	4.59688E-001	3.52675E-002	3.65659E+001	11	...........	5.90653E-002	-4.03417E-003	5.64720E-001	6.65329E-001	-3.08036E-002	-3.97858E-002	6.54392E-001	-4.33089E-002	2.72432E-003	-1.86072E-004	2.60471E-002	3.06876E-002	-1.42078E-003	-1.83508E-003	3.01831E-002	-1.99758E-003
	109	109	1.10013E+000	4.57965E-002	0.00000E+000	5.03821E-002	4.56421E-001	3.51046E-002	3.83229E+001	11	...........	5.88011E-002	-4.02875E-003	5.64704E-001	6.65416E-001	-3.07828E-002	-3.97299E-002	6.54256E-001	-4.32729E-002	2.69288E-003	-1.84503E-004	2.58615E-002	3.04737E-002	-1.40974E-003	-1.81949E-003	2.99626E-002	-1.98175E-003
	110	110	1.10012E+000	4.59786E-002	0.00000E+000	5.05820E-002	4.58228E-001	3.52891E-002	3.71672E+001	11	...........	5.90703E-002	-4.03556E-003	5.64686E-001	6.65535E-001	-3.07240E-002	-3.96833E-002	6.54326E-001	-4.32719E-002	2.71597E-003	-1.85549E-004	2.59635E-002	3.06004E-002	-1.41265E-003	-1.82459E-003	3.00850E-002	-1.98958E-003
	111	111	1.10024E+000	4.57865E-002	0.00000E+000	5.03760E-002	4.56320E-001	3.49306E-002	3.78219E+001	11	...........	5.84879E-002	-4.15819E-003	5.64482E-001	6.65513E-001	-3.06990E-002	-3.97037E-002	6.54279E-001	-4.33307E-002	2.67796E-003	-1.90389E-004	2.58457E-002	3.04715E-002	-1.40560E-003	-1.81790E-003	2.99571E-002	-1.98396E-003
	112	112	1.10014E+000	4.53419E-002	0.00000E+000	4.98824E-002	4.51897E-001	3.53634E-002	3.60668E+001	11	...........	5.91968E-002	-3.98222E-003	5.64419E-001	6.65547E-001	-3.06831E-002	-3.96479E-002	6.54396E-001	-4.32703E-002	2.68410E-003	-1.80562E-004	2.55919E-002	3.01772E-002	-1.39123E-003	-1.79771E-003	2.96716E-002	-1.96196E-003
	113	113	1.10011E+000	4.55955E-002	0.00000E+000	5.01602E-002	4.54432E-001	3.49854E-002	3.74613E+001	11	...........	5.85858E-002	-3.96389E-003	5.64272E-001	6.65499E-001	-3.07533E-002	-3.97637E-002	6.54315E-001	-4.32307E-002	2.67125E-003	-1.80735E-004	2.57282E-002	3.03438E-002	-1.40221E-003	-1.81305E-003	2.98338E-002	-1.97112E-003
	114	114	1.10024E+000	4.54413E-002	0.00000E+000	4.99962E-002	4.52897E-001	3.50012E-002	3.74509E+001	11	...........	5.86251E-002	-4.06028E-003	5.64326E-001	6.65413E-001	-3.07631E-002	-3.97750E-002	6.54335E-001	-4.32601E-002	2.66400E-003	-1.84504E-004	2.56437E-002	3.02373E-002	-1.39791E-003	-1.80743E-003	2.97338E-002	-1.96580E-003
	115	115	1.10014E+000	4.49963E-002	0.00000E+000	4.95023E-002	4.48477E-001	3.53340E-002	3.68538E+001	11	...........	5.91712E-002	-4.08181E-003	5.64448E-001	6.65293E-001	-3.07351E-002	-3.97939E-002	6.54276E-001	-4.33226E-002	2.66249E-003	-1.83666E-004	2.53981E-002	2.99357E-002	-1.38297E-003	-1.79058E-003	2.94400E-002	-1.94936E-003
	116	116	1.10011E+000	4.51634E-002	0.00000E+000	4.96848E-002	4.50133E-001	3.46182E-002	3.80036E+001	11	...........	5.79807E-002	-3.94667E-003	5.64494E-001	6.65292E-001	-3.06918E-002	-3.97840E-002	6.54314E-001	-4.33937E-002	2.61860E-003	-1.78245E-004	2.54944E-002	3.00468E-002	-1.38615E-003	-1.79678E-003	2.95510E-002	-1.95981E-003
	117	117	1.10023E+000	4.50116E-002	0.00000E+000	4.95233E-002	4.48627E-001	3.50190E-002	3.70260E+001	11	...........	5.86350E-002	-4.09125E-003	5.64537E-001	6.65095E-001	-3.07224E-002	-3.97981E-002	6.54264E-001	-4.33797E-002	2.63925E-003	-1.84154E-004	2.54107E-002	2.99370E-002	-1.38286E-003	-1.79137E-003	2.94494E-002	-1.95259E-003
	118	118	1.10015E+000	4.46292E-002	0.00000E+000	4.90986E-002	4.44812E-001	3.53388E-002	3.89880E+001	11	...........	5.91786E-002	-3.95931E-003	5.64501E-001	6.65075E-001	-3.06575E-002	-3.97547E-002	6.54251E-001	-4.33583E-002	2.64109E-003	-1.76700E-004	2.51932E-002	2.96817E-002	-1.36822E-003	-1.77422E-003	2.91986E-002	-1.93505E-003
	119	119	1.10012E+000	4.48750E-002	0.00000E+000	4.93676E-002	4.47264E-001	3.49468E-002	3.73407E+001	11	...........	5.85362E-002	-4.00639E-003	5.64674E-001	6.65050E-001	-3.06718E-002	-3.97565E-002	6.54198E-001	-4.34367E-002	2.62681E-003	-1.79787E-004	2.53397E-002	2.98441E-002	-1.37640E-003	-1.78407E-003	2.93571E-002	-1.94922E-003
	120	120	1.10023E+000	4.45903E-002	0.00000E+000	4.90596E-002	4.44442E-001	3.48485E-002	3.77077E+001	11	...........	5.83942E-002	-3.96958E-003	5.64714E-001	6.65066E-001	-3.07075E-002	-3.98100E-002	6.54205E-001	-4.33969E-002	2.60381E-003	-1.77005E-004	2.51808E-002	2.96555E-002	-1.36926E-003	-1.77514E-003	2.91712E-002	-1.93508E-003
	121	121	1.10015E+000	4.41429E-002	0.00000E+000	4.85638E-002	4.39994E-001	3.50807E-002	3.70329E+001	11	...........	5.87729E-002	-3.99194E-003	5.64827E-001	6.64971E-001	-3.07308E-002	-3.98010E-002	6.54201E-001	-4.33218E-002	2.59441E-003	-1.76216E-004	2.49331E-002	2.93537E-002	-1.35655E-003	-1.75693E-003	2.88783E-002	-1.91235E-003
	122	122	1.10011E+000	4.43840E-002	0.00000E+000	4.88273E-002	4.42389E-001	3.44968E-002	3.82462E+001	11	...........	5.78004E-002	-3.97569E-003	5.64810E-001	6.64907E-001	-3.07485E-002	-3.98175E-002	6.54186E-001	-4.34993E-002	2.56542E-003	-1.76457E-004	2.50685E-002	2.95112E-002	-1.36474E-003	-1.76726E-003	2.90354E-002	-1.93067E-003
	123	123	1.10023E+000	4.41898E-002	0.00000E+000	4.86188E-002	4.40459E-001	3.50175E-002	3.71115E+001	11	...........	5.86519E-002	-4.02014E-003	5.65080E-001	6.64922E-001	-3.07483E-002	-3.98332E-002	6.54200E-001	-4.36074E-002	2.59182E-003	-1.77649E-004	2.49707E-002	2.93828E-002	-1.35876E-003	-1.76022E-003	2.89090E-002	-1.92700E-003
	124	124	1.10016E+000	4.38045E-002	0.00000E+000	4.81919E-002	4.36629E-001	3.49071E-002	3.66423E+001	11	...........	5.84611E-002	-4.01250E-003	5.65043E-001	6.64957E-001	-3.07772E-002	-3.98183E-002	6.54252E-001	-4.34906E-002	2.56086E-003	-1.75766E-004	2.47514E-002	2.91281E-002	-1.34818E-003	-1.74422E-003	2.86592E-002	-1.90508E-003
	125	125	1.10011E+000	4.40442E-002	0.00000E+000	4.84532E-002	4.39008E-001	3.49276E-002	3.71306E+001	11	...........	5.84817E-002	-4.03833E-003	5.65159E-001	6.65049E-001	-3.07756E-002	-3.97858E-002	6.54179E-001	-4.33964E-002	2.57578E-003	-1.77865E-004	2.48920E-002	2.92915E-002	-1.35548E-003	-1.75234E-003	2.88128E-002	-1.91136E-003
	126	126	1.10023E+000	4.39296E-002	0.00000E+000	4.83325E-002	4.37873E-001	3.47355E-002	3.75701E+001	11	...........	5.81651E-002	-4.12444E-003	5.65092E-001	6.65131E-001	-3.07943E-002	-3.97933E-002	6.54226E-001	-4.35189E-002	2.55517E-003	-1.81185E-004	2.48243E-002	2.92190E-002	-1.35278E-003	-1.74811E-003	2.87399E-002	-1.91177E-003
	127	127	1.10016E+000	4.34122E-002	0.00000E+000	4.77604E-002	4.32727E-001	3.48347E-002	3.81646E+001	11	...........	5.83357E-002	-4.11264E-003	5.65029E-001	6.65051E-001	-3.07743E-002	-3.98276E-002	6.54261E-001	-4.34743E-002	2.53248E-003	-1.78539E-004	2.45291E-002	2.88713E-002	-1.33598E-003	-1.72901E-003	2.84029E-002	-1.88732E-003
	128	128	1.10011E+000	4.35789E-002	0.00000E+000	4.79417E-002	4.34386E-001	3.47849E-002	3.65054E+001	11	...........	5.82857E-002	-3.98722E-003	5.64879E-001	6.65070E-001	-3.07790E-002	-3.98149E-002	6.54360E-001	-4.35544E-002	2.54003E-003	-1.73759E-004	2.46168E-002	2.89830E-002	-1.34132E-003	-1.73509E-003	2.85163E-002	-1.89806E-003
	129	129	1.10022E+000	4.35080E-002	0.00000E+000	4.78683E-002	4.33680E-001	3.45373E-002	3.57151E+001	11	...........	5.78732E-002	-4.03111E-003	5.64811E-001	6.65142E-001	-3.07208E-002	-3.98271E-002	6.54164E-001	-4.33743E-002	2.51795E-003	-1.75386E-004	2.45738E-002	2.89390E-002	-1.33660E-003	-1.73280E-003	2.84614E-002	-1.88713E-003
	130	130	1.10017E+000	4.31866E-002	0.00000E+000	4.75124E-002	4.30491E-001	3.51802E-002	3.81282E+001	11	...........	5.89294E-002	-4.04667E-003	5.64738E-001	6.65183E-001	-3.07681E-002	-3.98892E-002	6.54243E-001	-4.34671E-002	2.54496E-003	-1.74762E-004	2.43891E-002	2.87270E-002	-1.32877E-003	-1.72268E-003	2.82545E-002	-1.87719E-003
	131	131	1.10010E+000	4.32871E-002	0.00000E+000	4.76204E-002	4.31492E-001	3.43585E-002	3.90136E+001	11	...........	5.75997E-002	-4.20486E-003	5.64681E-001	6.65184E-001	-3.08239E-002	-3.99285E-002	6.54366E-001	-4.35029E-002	2.49333E-003	-1.82016E-004	2.44434E-002	2.87939E-002	-1.33428E-003	-1.72839E-003	2.83256E-002	-1.88312E-003
	132	132	1.10022E+000	4.31768E-002	0.00000E+000	4.75038E-002	4.30389E-001	3.47959E-002	3.67347E+001	11	...........	5.82944E-002	-4.18792E-003	5.64820E-001	6.65484E-001	-3.07774E-002	-3.98932E-002	6.54400E-001	-4.34193E-002	2.51697E-003	-1.80821E-004	2.43871E-002	2.87335E-002	-1.32887E-003	-1.72246E-003	2.82549E-002	-1.87471E-003
	133	133	1.10018E+000	4.26881E-002	0.00000E+000	4.69644E-002	4.25528E-001	3.49657E-002	3.55778E+001	11	...........	5.85804E-002	-4.03486E-003	5.64835E-001	6.65610E-001	-3.07769E-002	-3.98707E-002	6.54385E-001	-4.32710E-002	2.50069E-003	-1.72241E-004	2.41118E-002	2.84137E-002	-1.31381E-003	-1.70201E-003	2.79345E-002	-1.84716E-003
	134	134	1.10010E+000	4.29574E-002	0.00000E+000	4.72575E-002	4.28200E-001	3.43523E-002	3.78227E+001	11	...........	5.75543E-002	-4.15569E-003	5.64698E-001	6.65728E-001	-3.07726E-002	-3.98456E-002	6.54446E-001	-4.32983E-002	2.47239E-003	-1.78518E-004	2.42580E-002	2.85979E-002	-1.32191E-003	-1.71166E-003	2.81133E-002	-1.85999E-003
	135	135	1.10022E+000	4.28785E-002	0.00000E+000	4.71756E-002	4.27417E-001	3.50209E-002	3.68112E+001	11	...........	5.86726E-002	-4.16653E-003	5.64829E-001	6.65789E-001	-3.07632E-002	-3.98392E-002	6.54462E-001	-4.33356E-002	2.51579E-003	-1.78654E-004	2.42190E-002	2.85480E-002	-1.31908E-003	-1.70824E-003	2.80624E-002	-1.85816E-003
	136	136	1.10017E+000	4.22940E-002	0.00000E+000	4.65308E-002	4.21605E-001	3.43961E-002	3.73452E+001	11	...........	5.76132E-002	-4.01236E-003	5.64756E-001	6.65826E-001	-3.07574E-002	-3.98662E-002	6.54500E-001	-4.32961E-002	2.43669E-003	-1.69699E-004	2.38858E-002	2.81605E-002	-1.30085E-003	-1.68610E-003	2.76814E-002	-1.83117E-003
	137	137	1.10011E+000	4.24816E-002	0.00000E+000	4.67343E-002	4.23469E-001	3.48397E-002	3.79041E+001	11	...........	5.83371E-002	-4.02583E-003	5.64681E-001	6.65911E-001	-3.07644E-002	-3.98712E-002	6.54487E-001	-4.32565E-002	2.47825E-003	-1.71024E-004	2.39885E-002	2.82889E-002	-1.30692E-003	-1.69379E-003	2.78037E-002	-1.83761E-003
	138	138	1.10020E+000	4.25035E-002	0.00000E+000	4.67625E-002	4.23683E-001	3.47070E-002	3.83568E+001	11	...........	5.81322E-002	-4.11833E-003	5.64746E-001	6.65791E-001	-3.07604E-002	-3.98856E-002	6.54392E-001	-4.32950E-002	2.47082E-003	-1.75044E-004	2.40037E-002	2.82984E-002	-1.30742E-003	-1.69528E-003	2.78140E-002	-1.84019E-003
	139	139	1.10018E+000	4.19371E-002	0.00000E+000	4.61385E-002	4.18061E-001	3.45322E-002	3.75600E+001	11	...........	5.78350E-002	-4.11042E-003	5.64739E-001	6.65692E-001	-3.07571E-002	-3.99226E-002	6.54448E-001	-4.33175E-002	2.42543E-003	-1.72379E-004	2.36835E-002	2.79172E-002	-1.28986E-003	-1.67424E-003	2.74456E-002	-1.81661E-003
	140	140	1.10010E+000	4.21687E-002	0.00000E+000	4.63899E-002	4.20364E-001	3.45114E-002	3.80083E+001	11	...........	5.78153E-002	-4.12917E-003	5.64781E-001	6.65833E-001	-3.07581E-002	-3.98924E-002	6.54528E-001	-4.34243E-002	2.43800E-003	-1.74122E-004	2.38161E-002	2.80773E-002	-1.29703E-003	-1.68221E-003	2.76006E-002	-1.83115E-003
	141	141	1.10020E+000	4.20869E-002	0.00000E+000	4.63042E-002	4.19549E-001	3.46648E-002	3.77065E+001	11	...........	5.80582E-002	-4.11264E-003	5.64700E-001	6.66049E-001	-3.07578E-002	-3.98986E-002	6.54591E-001	-4.34796E-002	2.44349E-003	-1.73088E-004	2.37665E-002	2.80319E-002	-1.29450E-003	-1.67921E-003	2.75497E-002	-1.82992E-003
	142	142	1.10019E+000	4.16374E-002	0.00000E+000	4.58089E-002	4.15081E-001	3.44337E-002	3.77952E+001	11	...........	5.76967E-002	-4.06944E-003	5.64687E-001	6.66031E-001	-3.07704E-002	-3.99228E-002	6.54470E-001	-4.35336E-002	2.40234E-003	-1.69441E-004	2.35121E-002	2.77318E-002	-1.28120E-003	-1.66228E-003	2.72504E-002	-1.81262E-003
	143	143	1.10010E+000	4.18256E-002	0.00000E+000	4.60126E-002	4.16951E-001	3.46586E-002	3.84563E+001	11	...........	5.80635E-002	-4.06361E-003	5.64773E-001	6.65999E-001	-3.07582E-002	-3.99279E-002	6.54590E-001	-4.35339E-002	2.42854E-003	-1.69963E-004	2.36220E-002	2.78558E-002	-1.28648E-003	-1.67001E-003	2.73786E-002	-1.82083E-003
	144	144	1.10019E+000	4.17370E-002	0.00000E+000	4.59188E-002	4.16074E-001	3.44648E-002	3.71142E+001	11	...........	5.77386E-002	-4.18875E-003	5.64771E-001	6.65841E-001	-3.07789E-002	-3.99633E-002	6.54632E-001	-4.34919E-002	2.40984E-003	-1.74826E-004	2.35718E-002	2.77902E-002	-1.28462E-003	-1.66795E-003	2.73224E-002	-1.81522E-003
	145	145	1.10019E+000	4.12895E-002	0.00000E+000	4.54264E-002	4.11625E-001	3.43479E-002	3.87176E+001	11	...........	5.75457E-002	-4.05375E-003	5.64541E-001	6.65785E-001	-3.07397E-002	-3.99576E-002	6.54662E-001	-4.34758E-002	2.37604E-003	-1.67377E-004	2.33096E-002	2.74899E-002	-1.26923E-003	-1.64983E-003	2.70307E-002	-1.79510E-003
	146	146	1.10010E+000	4.13026E-002	0.00000E+000	4.54372E-002	4.11754E-001	3.43698E-002	3.63317E+001	11	...........	5.75783E-002	-3.92556E-003	5.64480E-001	6.65773E-001	-3.07694E-002	-3.99654E-002	6.54649E-001	-4.34633E-002	2.37814E-003	-1.62136E-004	2.33145E-002	2.74982E-002	-1.27086E-003	-1.65068E-003	2.70387E-002	-1.79515E-003
	147	147	1.10019E+000	4.13730E-002	0.00000E+000	4.55182E-002	4.12452E-001	3.44616E-002	3.56958E+001	11	...........	5.77146E-002	-3.89611E-003	5.64303E-001	6.65948E-001	-3.07404E-002	-3.99276E-002	6.54489E-001	-4.34460E-002	2.38782E-003	-1.61194E-004	2.33469E-002	2.75523E-002	-1.27182E-003	-1.65193E-003	2.70782E-002	-1.79749E-003
	148	148	1.10020E+000	4.09407E-002	0.00000E+000	4.50430E-002	4.08160E-001	3.47783E-002	3.85288E+001	11	...........	5.82568E-002	-3.86875E-003	5.64332E-001	6.65953E-001	-3.07062E-002	-3.99464E-002	6.54405E-001	-4.35151E-002	2.38508E-003	-1.58389E-004	2.31042E-002	2.72646E-002	-1.25714E-003	-1.63543E-003	2.67918E-002	-1.78154E-003
	149	149	1.10010E+000	4.10034E-002	0.00000E+000	4.51079E-002	4.08776E-001	3.43445E-002	3.73154E+001	11	...........	5.75379E-002	-4.04569E-003	5.64392E-001	6.65974E-001	-3.07100E-002	-3.98981E-002	6.54252E-001	-4.33451E-002	2.35925E-003	-1.65887E-004	2.31420E-002	2.73072E-002	-1.25921E-003	-1.63595E-003	2.68265E-002	-1.77730E-003
	150	150	1.10019E+000	4.09792E-002	0.00000E+000	4.50849E-002	4.08546E-001	3.42750E-002	3.64872E+001	11	...........	5.74353E-002	-4.13028E-003	5.64159E-001	6.65729E-001	-3.07479E-002	-3.99676E-002	6.54296E-001	-4.33843E-002	2.35365E-003	-1.69256E-004	2.31188E-002	2.72811E-002	-1.26003E-003	-1.63784E-003	2.68126E-002	-1.77786E-003
	151	151	1.10020E+000	4.05610E-002	0.00000E+000	4.46252E-002	4.04387E-001	3.43265E-002	3.80428E+001	11	...........	5.75207E-002	-4.11778E-003	5.64272E-001	6.65560E-001	-3.07693E-002	-3.99660E-002	6.54353E-001	-4.33679E-002	2.33309E-003	-1.67021E-004	2.28874E-002	2.69957E-002	-1.24803E-003	-1.62106E-003	2.65412E-002	-1.75904E-003
	152	152	1.10010E+000	4.06642E-002	0.00000E+000	4.47347E-002	4.05410E-001	3.44751E-002	3.76999E+001	11	...........	5.77604E-002	-4.09722E-003	5.64556E-001	6.65679E-001	-3.07460E-002	-3.99082E-002	6.54396E-001	-4.35099E-002	2.34878E-003	-1.66610E-004	2.29572E-002	2.70693E-002	-1.25026E-003	-1.62283E-003	2.66105E-002	-1.76929E-003
	153	153	1.10019E+000	4.06847E-002	0.00000E+000	4.47607E-002	4.05612E-001	3.43742E-002	3.76671E+001	11	...........	5.76140E-002	-4.02833E-003	5.64551E-001	6.65788E-001	-3.07564E-002	-3.98954E-002	6.54522E-001	-4.33554E-002	2.34401E-003	-1.63891E-004	2.29686E-002	2.70874E-002	-1.25131E-003	-1.62313E-003	2.66290E-002	-1.76390E-003
	154	154	1.10021E+000	4.02312E-002	0.00000E+000	4.42627E-002	4.01107E-001	3.44341E-002	3.73092E+001	11	...........	5.76967E-002	-4.18236E-003	5.64460E-001	6.65853E-001	-3.07546E-002	-3.98987E-002	6.54459E-001	-4.34903E-002	2.32121E-003	-1.68261E-004	2.27089E-002	2.67880E-002	-1.23729E-003	-1.60517E-003	2.63297E-002	-1.74967E-003
	155	155	1.10010E+000	4.03749E-002	0.00000E+000	4.44165E-002	4.02533E-001	3.41772E-002	3.79241E+001	11	...........	5.72796E-002	-4.16375E-003	5.64339E-001	6.65905E-001	-3.07286E-002	-3.98582E-002	6.54525E-001	-4.36164E-002	2.31266E-003	-1.68111E-004	2.27851E-002	2.68859E-002	-1.24067E-003	-1.60927E-003	2.64264E-002	-1.76101E-003
	156	156	1.10018E+000	4.03575E-002	0.00000E+000	4.44004E-002	4.02353E-001	3.44452E-002	3.70219E+001	11	...........	5.77062E-002	-4.08639E-003	5.64356E-001	6.65960E-001	-3.07229E-002	-3.98510E-002	6.54612E-001	-4.35121E-002	2.32888E-003	-1.64916E-004	2.27760E-002	2.68764E-002	-1.23990E-003	-1.60828E-003	2.64185E-002	-1.75604E-003
	157	157	1.10021E+000	3.98615E-002	0.00000E+000	4.38562E-002	3.97433E-001	3.40828E-002	3.80317E+001	11	...........	5.71147E-002	-4.05319E-003	5.64365E-001	6.65873E-001	-3.07432E-002	-3.98979E-002	6.54360E-001	-4.34886E-002	2.27668E-003	-1.61566E-004	2.24964E-002	2.65427E-002	-1.22547E-003	-1.59039E-003	2.60838E-002	-1.73352E-003
	158	158	1.10010E+000	3.99893E-002	0.00000E+000	4.39923E-002	3.98706E-001	3.45283E-002	3.63824E+001	11	...........	5.78468E-002	-4.11014E-003	5.64438E-001	6.65641E-001	-3.07797E-002	-3.99226E-002	6.54389E-001	-4.34799E-002	2.31326E-003	-1.64362E-004	2.25715E-002	2.66186E-002	-1.23086E-003	-1.59648E-003	2.61686E-002	-1.73873E-003
	159	159	1.10017E+000	4.00173E-002	0.00000E+000	4.40259E-002	3.98982E-001	3.39257E-002	3.75410E+001	11	...........	5.68772E-002	-3.97042E-003	5.64446E-001	6.65639E-001	-3.07619E-002	-3.98887E-002	6.54469E-001	-4.35089E-002	2.27607E-003	-1.58885E-004	2.25876E-002	2.66371E-002	-1.23101E-003	-1.59624E-003	2.61901E-002	-1.74111E-003
	160	160	1.10022E+000	3.95409E-002	0.00000E+000	4.35038E-002	3.94246E-001	3.42296E-002	3.67714E+001	11	...........	5.73708E-002	-4.14597E-003	5.64435E-001	6.65600E-001	-3.08026E-002	-3.99142E-002	6.54490E-001	-4.35372E-002	2.26849E-003	-1.63935E-004	2.23183E-002	2.63184E-002	-1.21796E-003	-1.57824E-003	2.58791E-002	-1.72150E-003
	161	161	1.10010E+000	3.96217E-002	0.00000E+000	4.35877E-002	3.95047E-001	3.42247E-002	3.83839E+001	11	...........	5.73664E-002	-4.08319E-003	5.64624E-001	6.65600E-001	-3.07664E-002	-3.98982E-002	6.54576E-001	-4.36814E-002	2.27295E-003	-1.61783E-004	2.23713E-002	2.63722E-002	-1.21902E-003	-1.58083E-003	2.59354E-002	-1.73073E-003
	162	162	1.10017E+000	3.97234E-002	0.00000E+000	4.37025E-002	3.96059E-001	3.42571E-002	3.74785E+001	11	...........	5.74060E-002	-4.07792E-003	5.64616E-001	6.65386E-001	-3.07460E-002	-3.98896E-002	6.54458E-001	-4.36697E-002	2.28036E-003	-1.61989E-004	2.24285E-002	2.64314E-002	-1.22133E-003	-1.58455E-003	2.59973E-002	-1.73471E-003
	163	163	1.10022E+000	3.92629E-002	0.00000E+000	4.31979E-002	3.91481E-001	3.41134E-002	3.78460E+001	11	...........	5.71426E-002	-4.15667E-003	5.64617E-001	6.65373E-001	-3.07385E-002	-3.99024E-002	6.54381E-001	-4.36542E-002	2.24359E-003	-1.63203E-004	2.21685E-002	2.61245E-002	-1.20688E-003	-1.56668E-003	2.56929E-002	-1.71399E-003
	164	164	1.10010E+000	3.93322E-002	0.00000E+000	4.32693E-002	3.92168E-001	3.42721E-002	3.68929E+001	11	...........	5.74457E-002	-4.29847E-003	5.64563E-001	6.65346E-001	-3.07401E-002	-3.98906E-002	6.54492E-001	-4.35415E-002	2.25947E-003	-1.69068E-004	2.22055E-002	2.61695E-002	-1.20908E-003	-1.56898E-003	2.57426E-002	-1.71258E-003
	165	165	1.10017E+000	3.94063E-002	0.00000E+000	4.33536E-002	3.92903E-001	3.37506E-002	3.83826E+001	11	...........	5.65635E-002	-4.19306E-003	5.64532E-001	6.65464E-001	-3.07414E-002	-3.98912E-002	6.54367E-001	-4.35062E-002	2.22896E-003	-1.65233E-004	2.22461E-002	2.62235E-002	-1.21141E-003	-1.57197E-003	2.57862E-002	-1.71442E-003
	166	166	1.10023E+000	3.89179E-002	0.00000E+000	4.28186E-002	3.88052E-001	3.45040E-002	3.82473E+001	11	...........	5.78344E-002	-4.22556E-003	5.64554E-001	6.65590E-001	-3.07678E-002	-3.98985E-002	6.54511E-001	-4.33689E-002	2.25080E-003	-1.64450E-004	2.19713E-002	2.59034E-002	-1.19742E-003	-1.55277E-003	2.54722E-002	-1.68783E-003
	167	167	1.10010E+000	3.90619E-002	0.00000E+000	4.29718E-002	3.89485E-001	3.41844E-002	3.67577E+001	11	...........	5.72661E-002	-4.18125E-003	5.64556E-001	6.65784E-001	-3.07012E-002	-3.98521E-002	6.54411E-001	-4.33169E-002	2.23692E-003	-1.63327E-004	2.20526E-002	2.60068E-002	-1.19925E-003	-1.55670E-003	2.55625E-002	-1.69204E-003
	168	168	1.10017E+000	3.90626E-002	0.00000E+000	4.29753E-002	3.89493E-001	3.38130E-002	3.84730E+001	11	...........	5.66772E-002	-4.10722E-003	5.64489E-001	6.65705E-001	-3.07687E-002	-3.98386E-002	6.54577E-001	-4.33869E-002	2.21396E-003	-1.60439E-004	2.20504E-002	2.60042E-002	-1.20191E-003	-1.55620E-003	2.55695E-002	-1.69481E-003
	169	169	1.10023E+000	3.85529E-002	0.00000E+000	4.24173E-002	3.84425E-001	3.43217E-002	3.72264E+001	11	...........	5.74950E-002	-4.12528E-003	5.64477E-001	6.65632E-001	-3.08010E-002	-3.98419E-002	6.54500E-001	-4.33558E-002	2.21660E-003	-1.59042E-004	2.17623E-002	2.56621E-002	-1.18747E-003	-1.53602E-003	2.52329E-002	-1.67150E-003
	170	170	1.10009E+000	3.86640E-002	0.00000E+000	4.25340E-002	3.85523E-001	3.39022E-002	3.80541E+001	11	...........	5.68112E-002	-4.01708E-003	5.64420E-001	6.65723E-001	-3.07547E-002	-3.98233E-002	6.54485E-001	-4.34492E-002	2.19655E-003	-1.55317E-004	2.18227E-002	2.57395E-002	-1.18910E-003	-1.53973E-003	2.53050E-002	-1.67992E-003
	171	171	1.10017E+000	3.86843E-002	0.00000E+000	4.25591E-002	3.85729E-001	3.42757E-002	3.73449E+001	11	...........	5.74203E-002	-4.08986E-003	5.64474E-001	6.65764E-001	-3.08099E-002	-3.98200E-002	6.54593E-001	-4.34739E-002	2.22126E-003	-1.58213E-004	2.18363E-002	2.57546E-002	-1.19186E-003	-1.54041E-003	2.53225E-002	-1.68176E-003
	172	172	1.10023E+000	3.82805E-002	0.00000E+000	4.21175E-002	3.81710E-001	3.40318E-002	3.86368E+001	11	...........	5.70703E-002	-4.12708E-003	5.64521E-001	6.65820E-001	-3.07672E-002	-3.98067E-002	6.54376E-001	-4.33496E-002	2.18468E-003	-1.57987E-004	2.16101E-002	2.54879E-002	-1.17778E-003	-1.52382E-003	2.50499E-002	-1.65944E-003
	173	173	1.10009E+000	3.83377E-002	0.00000E+000	4.21750E-002	3.82284E-001	3.39247E-002	3.76921E+001	11	...........	5.68487E-002	-4.10625E-003	5.64856E-001	6.65731E-001	-3.08101E-002	-3.98012E-002	6.54326E-001	-4.34262E-002	2.17945E-003	-1.57424E-004	2.16553E-002	2.55226E-002	-1.18119E-003	-1.52589E-003	2.50854E-002	-1.66486E-003
	174	174	1.10016E+000	3.83717E-002	0.00000E+000	4.22151E-002	3.82625E-001	3.40778E-002	3.77505E+001	11	...........	5.71050E-002	-4.11708E-003	5.64899E-001	6.65671E-001	-3.08171E-002	-3.98260E-002	6.54236E-001	-4.34650E-002	2.19122E-003	-1.57980E-004	2.16761E-002	2.55429E-002	-1.18250E-003	-1.52819E-003	2.51042E-002	-1.66783E-003
	175	175	1.10024E+000	3.79967E-002	0.00000E+000	4.18055E-002	3.78896E-001	3.42118E-002	3.82293E+001	11	...........	5.73483E-002	-4.02681E-003	5.64573E-001	6.65687E-001	-3.08044E-002	-3.98199E-002	6.54241E-001	-4.34822E-002	2.17905E-003	-1.53005E-004	2.14519E-002	2.52939E-002	-1.17047E-003	-1.51302E-003	2.48590E-002	-1.65218E-003
	176	176	1.10009E+000	3.79926E-002	0.00000E+000	4.17954E-002	3.78844E-001	3.40044E-002	3.86049E+001	11	...........	5.69907E-002	-3.99542E-003	5.64695E-001	6.65870E-001	-3.07761E-002	-3.97769E-002	6.54264E-001	-4.34201E-002	2.16523E-003	-1.51796E-004	2.14542E-002	2.52982E-002	-1.16927E-003	-1.51123E-003	2.48572E-002	-1.64965E-003
	177	177	1.10016E+000	3.80073E-002	0.00000E+000	4.18140E-002	3.79000E-001	3.37161E-002	3.91983E+001	11	...........	5.64628E-002	-4.06194E-003	5.64765E-001	6.65846E-001	-3.07701E-002	-3.98014E-002	6.54248E-001	-4.35153E-002	2.14600E-003	-1.54383E-004	2.14652E-002	2.53070E-002	-1.16949E-003	-1.51274E-003	2.48662E-002	-1.65390E-003
	178	178	1.10024E+000	3.76293E-002	0.00000E+000	4.14013E-002	3.75247E-001	3.43531E-002	3.62346E+001	11	...........	5.75749E-002	-4.25639E-003	5.64836E-001	6.65860E-001	-3.07939E-002	-3.98289E-002	6.54280E-001	-4.35924E-002	2.16650E-003	-1.60165E-004	2.12544E-002	2.50558E-002	-1.15875E-003	-1.49873E-003	2.46201E-002	-1.64035E-003
	179	179	1.10009E+000	3.77290E-002	0.00000E+000	4.15054E-002	3.76230E-001	3.40100E-002	3.82885E+001	11	...........	5.69932E-002	-4.07819E-003	5.65060E-001	6.65813E-001	-3.07279E-002	-3.98003E-002	6.54452E-001	-4.35456E-002	2.15030E-003	-1.53866E-004	2.13191E-002	2.51205E-002	-1.15933E-003	-1.50163E-003	2.46918E-002	-1.64293E-003
	180	180	1.10016E+000	3.77290E-002	0.00000E+000	4.15079E-002	3.76235E-001	3.38707E-002	3.71639E+001	11	...........	5.67678E-002	-4.17458E-003	5.65062E-001	6.65747E-001	-3.07386E-002	-3.97987E-002	6.54421E-001	-4.35169E-002	2.14179E-003	-1.57503E-004	2.13192E-002	2.51180E-002	-1.15974E-003	-1.50157E-003	2.46906E-002	-1.64185E-003
	181	181	1.10024E+000	3.73195E-002	0.00000E+000	4.10603E-002	3.72157E-001	3.39490E-002	3.77090E+001	11	...........	5.68749E-002	-4.21181E-003	5.65029E-001	6.66005E-001	-3.06787E-002	-3.97792E-002	6.54513E-001	-4.34125E-002	2.12254E-003	-1.57182E-004	2.10866E-002	2.48550E-002	-1.14491E-003	-1.48454E-003	2.44261E-002	-1.62013E-003
	182	182	1.10009E+000	3.73568E-002	0.00000E+000	4.10960E-002	3.72525E-001	3.39030E-002	3.76458E+001	11	...........	5.67924E-002	-4.24514E-003	5.65116E-001	6.66122E-001	-3.06435E-002	-3.97487E-002	6.54522E-001	-4.34312E-002	2.12158E-003	-1.58585E-004	2.11109E-002	2.48842E-002	-1.14474E-003	-1.48489E-003	2.44508E-002	-1.62245E-003
	183	183	1.10016E+000	3.74055E-002	0.00000E+000	4.11519E-002	3.73013E-001	3.39692E-002	3.80613E+001	11	...........	5.69256E-002	-4.15944E-003	5.64760E-001	6.66070E-001	-3.06683E-002	-3.97711E-002	6.54548E-001	-4.34453E-002	2.12933E-003	-1.55586E-004	2.11251E-002	2.49147E-002	-1.14717E-003	-1.48766E-003	2.44837E-002	-1.62509E-003
	184	184	1.10024E+000	3.69921E-002	0.00000E+000	4.07002E-002	3.68899E-001	3.37638E-002	3.77378E+001	11	...........	5.65774E-002	-4.03167E-003	5.64728E-001	6.65943E-001	-3.06493E-002	-3.97444E-002	6.54607E-001	-4.34781E-002	2.09291E-003	-1.49140E-004	2.08904E-002	2.46346E-002	-1.13378E-003	-1.47023E-003	2.42153E-002	-1.60834E-003
	185	185	1.10010E+000	3.70000E-002	0.00000E+000	4.07038E-002	3.68975E-001	3.41900E-002	3.83001E+001	11	...........	5.72635E-002	-3.98042E-003	5.64912E-001	6.65929E-001	-3.05974E-002	-3.97521E-002	6.54589E-001	-4.35189E-002	2.11875E-003	-1.47276E-004	2.09018E-002	2.46394E-002	-1.13210E-003	-1.47083E-003	2.42198E-002	-1.61020E-003
	186	186	1.10015E+000	3.70611E-002	0.00000E+000	4.07728E-002	3.69582E-001	3.37918E-002	3.74895E+001	11	...........	5.66519E-002	-4.03861E-003	5.64785E-001	6.66029E-001	-3.06700E-002	-3.97521E-002	6.54488E-001	-4.35994E-002	2.09959E-003	-1.49675E-004	2.09316E-002	2.46838E-002	-1.13666E-003	-1.47326E-003	2.42561E-002	-1.61584E-003
	187	187	1.10024E+000	3.67672E-002	0.00000E+000	4.04528E-002	3.66668E-001	3.39130E-002	3.90351E+001	11	...........	5.68264E-002	-4.05111E-003	5.64771E-001	6.66087E-001	-3.07333E-002	-3.97703E-002	6.54434E-001	-4.36728E-002	2.08935E-003	-1.48948E-004	2.07650E-002	2.44901E-002	-1.12998E-003	-1.46224E-003	2.40617E-002	-1.60572E-003
	188	188	1.10010E+000	3.66991E-002	0.00000E+000	4.03727E-002	3.65994E-001	3.36963E-002	3.91210E+001	11	...........	5.64756E-002	-4.15542E-003	5.64726E-001	6.66132E-001	-3.07754E-002	-3.98082E-002	6.54330E-001	-4.36310E-002	2.07260E-003	-1.52500E-004	2.07250E-002	2.44465E-002	-1.12943E-003	-1.46093E-003	2.40134E-002	-1.60122E-003
	189	189	1.10015E+000	3.67869E-002	0.00000E+000	4.04711E-002	3.66862E-001	3.37831E-002	3.78307E+001	11	...........	5.66083E-002	-4.03556E-003	5.64837E-001	6.66206E-001	-3.07403E-002	-3.97614E-002	6.54416E-001	-4.34864E-002	2.08245E-003	-1.48456E-004	2.07786E-002	2.45077E-002	-1.13084E-003	-1.46270E-003	2.40740E-002	-1.59973E-003
	190	190	1.10025E+000	3.64008E-002	0.00000E+000	4.00498E-002	3.63020E-001	3.39471E-002	3.84749E+001	11	...........	5.68590E-002	-4.07833E-003	5.64942E-001	6.66485E-001	-3.07422E-002	-3.97382E-002	6.54439E-001	-4.34433E-002	2.06971E-003	-1.48454E-004	2.05643E-002	2.42606E-002	-1.11904E-003	-1.44650E-003	2.38221E-002	-1.58137E-003
	191	191	1.10010E+000	3.63606E-002	0.00000E+000	4.00003E-002	3.62620E-001	3.37388E-002	3.72560E+001	11	...........	5.65278E-002	-4.06056E-003	5.65043E-001	6.66473E-001	-3.07335E-002	-3.97354E-002	6.54569E-001	-4.35982E-002	2.05538E-003	-1.47644E-004	2.05453E-002	2.42333E-002	-1.11749E-003	-1.44480E-003	2.38005E-002	-1.58525E-003
	192	192	1.10014E+000	3.64694E-002	0.00000E+000	4.01215E-002	3.63706E-001	3.38956E-002	3.82869E+001	11	...........	5.67947E-002	-3.98667E-003	5.65108E-001	6.66504E-001	-3.07615E-002	-3.97729E-002	6.54495E-001	-4.35711E-002	2.07127E-003	-1.45391E-004	2.06091E-002	2.43070E-002	-1.12185E-003	-1.45049E-003	2.38690E-002	-1.58901E-003
	193	193	1.10025E+000	3.61917E-002	0.00000E+000	3.98198E-002	3.60946E-001	3.38532E-002	3.88638E+001	11	...........	5.67369E-002	-3.98569E-003	5.65198E-001	6.66554E-001	-3.07971E-002	-3.97774E-002	6.54481E-001	-4.35381E-002	2.05341E-003	-1.44249E-004	2.04555E-002	2.41237E-002	-1.11460E-003	-1.43961E-003	2.36868E-002	-1.57572E-003
	194	194	1.10010E+000	3.60455E-002	0.00000E+000	3.96537E-002	3.59494E-001	3.36947E-002	3.84538E+001	11	...........	5.64872E-002	-3.97847E-003	5.65245E-001	6.66617E-001	-3.07822E-002	-3.97775E-002	6.54377E-001	-4.35624E-002	2.03611E-003	-1.43406E-004	2.03746E-002	2.40286E-002	-1.10956E-003	-1.43380E-003	2.35874E-002	-1.57023E-003
	195	195	1.10015E+000	3.61761E-002	0.00000E+000	3.97990E-002	3.60799E-001	3.36337E-002	3.73182E+001	11	...........	5.64072E-002	-4.01083E-003	5.65236E-001	6.66735E-001	-3.08304E-002	-3.98390E-002	6.54346E-001	-4.36543E-002	2.04059E-003	-1.45096E-004	2.04480E-002	2.41199E-002	-1.11532E-003	-1.44122E-003	2.36717E-002	-1.57924E-003
	196	196	1.10024E+000	3.58264E-002	0.00000E+000	3.94177E-002	3.57316E-001	3.38069E-002	3.91651E+001	11	...........	5.67039E-002	-4.07861E-003	5.65366E-001	6.66645E-001	-3.07949E-002	-3.98451E-002	6.54361E-001	-4.35156E-002	2.03149E-003	-1.46122E-004	2.02550E-002	2.38835E-002	-1.10327E-003	-1.42751E-003	2.34434E-002	-1.55900E-003
	197	197	1.10010E+000	3.57773E-002	0.00000E+000	3.93586E-002	3.56829E-001	3.36794E-002	3.73875E+001	11	...........	5.64382E-002	-4.04444E-003	5.65241E-001	6.66711E-001	-3.07843E-002	-3.98381E-002	6.54279E-001	-4.35614E-002	2.01921E-003	-1.44699E-004	2.02228E-002	2.38531E-002	-1.10138E-003	-1.42530E-003	2.34083E-002	-1.55851E-003
	198	198	1.10014E+000	3.58455E-002	0.00000E+000	3.94352E-002	3.57502E-001	3.35838E-002	3.89294E+001	11	...........	5.63025E-002	-4.01528E-003	5.65226E-001	6.66806E-001	-3.08000E-002	-3.97617E-002	6.54194E-001	-4.35668E-002	2.01819E-003	-1.43930E-004	2.02608E-002	2.39020E-002	-1.10404E-003	-1.42528E-003	2.34499E-002	-1.56167E-003
	199	199	1.10024E+000	3.55687E-002	0.00000E+000	3.91343E-002	3.54747E-001	3.38957E-002	3.77246E+001	11	...........	5.68225E-002	-4.09278E-003	5.65451E-001	6.66685E-001	-3.07722E-002	-3.97476E-002	6.54272E-001	-4.35410E-002	2.02110E-003	-1.45575E-004	2.01124E-002	2.37131E-002	-1.09453E-003	-1.41377E-003	2.32716E-002	-1.54870E-003
	200	200	1.10011E+000	3.54227E-002	0.00000E+000	3.89687E-002	3.53296E-001	3.35896E-002	3.75448E+001	11	...........	5.62954E-002	-4.01347E-003	5.65272E-001	6.66697E-001	-3.07832E-002	-3.97501E-002	6.54311E-001	-4.35293E-002	1.99414E-003	-1.42168E-004	2.00235E-002	2.36162E-002	-1.09042E-003	-1.40806E-003	2.31775E-002	-1.54193E-003
	201	201	1.10014E+000	3.55542E-002	0.00000E+000	3.91145E-002	3.54597E-001	3.34472E-002	3.77896E+001	11	...........	5.60479E-002	-3.99014E-003	5.65143E-001	6.66708E-001	-3.07543E-002	-3.97218E-002	6.54333E-001	-4.35465E-002	1.99274E-003	-1.41866E-004	2.00932E-002	2.37043E-002	-1.09344E-003	-1.41228E-003	2.32643E-002	-1.54826E-003
	202	202	1.10025E+000	3.52792E-002	0.00000E+000	3.88159E-002	3.51869E-001	3.39172E-002	3.75867E+001	11	...........	5.68482E-002	-4.09972E-003	5.65202E-001	6.66612E-001	-3.08006E-002	-3.97868E-002	6.54258E-001	-4.34740E-002	2.00556E-003	-1.44635E-004	1.99399E-002	2.35176E-002	-1.08662E-003	-1.40365E-003	2.30817E-002	-1.53373E-003
	203	203	1.10011E+000	3.51184E-002	0.00000E+000	3.86341E-002	3.50266E-001	3.34990E-002	3.74600E+001	11	...........	5.61532E-002	-3.98056E-003	5.65273E-001	6.66545E-001	-3.07315E-002	-3.97582E-002	6.54371E-001	-4.35946E-002	1.97201E-003	-1.39791E-004	1.98515E-002	2.34080E-002	-1.07924E-003	-1.39625E-003	2.29805E-002	-1.53097E-003
	204	204	1.10014E+000	3.52591E-002	0.00000E+000	3.87899E-002	3.51668E-001	3.35844E-002	3.80353E+001	11	...........	5.62942E-002	-4.04708E-003	5.65243E-001	6.66477E-001	-3.07611E-002	-3.97692E-002	6.54405E-001	-4.34826E-002	1.98488E-003	-1.42696E-004	1.99299E-002	2.34994E-002	-1.08461E-003	-1.40222E-003	2.30737E-002	-1.53316E-003
	205	205	1.10024E+000	3.49607E-002	0.00000E+000	3.84652E-002	3.48709E-001	3.35267E-002	3.67245E+001	11	...........	5.61782E-002	-4.08208E-003	5.65293E-001	6.66326E-001	-3.07428E-002	-3.97826E-002	6.54472E-001	-4.34012E-002	1.96403E-003	-1.42713E-004	1.97630E-002	2.32952E-002	-1.07479E-003	-1.39083E-003	2.28808E-002	-1.51734E-003
	206	206	1.10011E+000	3.48716E-002	0.00000E+000	3.83625E-002	3.47817E-001	3.36042E-002	3.89565E+001	11	...........	5.63056E-002	-4.17097E-003	5.65225E-001	6.66218E-001	-3.07443E-002	-3.97560E-002	6.54427E-001	-4.33621E-002	1.96347E-003	-1.45449E-004	1.97103E-002	2.32321E-002	-1.07210E-003	-1.38635E-003	2.28209E-002	-1.51211E-003
	207	207	1.10014E+000	3.49667E-002	0.00000E+000	3.84683E-002	3.48760E-001	3.39081E-002	3.75424E+001	11	...........	5.67836E-002	-4.24764E-003	5.65237E-001	6.66099E-001	-3.06824E-002	-3.97375E-002	6.54493E-001	-4.34387E-002	1.98553E-003	-1.48526E-004	1.97644E-002	2.32913E-002	-1.07286E-003	-1.38949E-003	2.28854E-002	-1.51891E-003
	208	208	1.10024E+000	3.46801E-002	0.00000E+000	3.81565E-002	3.45911E-001	3.34234E-002	3.77932E+001	11	...........	5.59987E-002	-4.16167E-003	5.65074E-001	6.66054E-001	-3.07553E-002	-3.97960E-002	6.54474E-001	-4.35333E-002	1.94204E-003	-1.44327E-004	1.95968E-002	2.30988E-002	-1.06660E-003	-1.38013E-003	2.26972E-002	-1.50974E-003
	209	209	1.10011E+000	3.45202E-002	0.00000E+000	3.79758E-002	3.44321E-001	3.36412E-002	3.72750E+001	11	...........	5.63672E-002	-4.13917E-003	5.64983E-001	6.66119E-001	-3.07272E-002	-3.97600E-002	6.54534E-001	-4.34692E-002	1.94581E-003	-1.42885E-004	1.95033E-002	2.29946E-002	-1.06071E-003	-1.37252E-003	2.25946E-002	-1.50056E-003
	210	210	1.10014E+000	3.46492E-002	0.00000E+000	3.81191E-002	3.45609E-001	3.35472E-002	3.74645E+001	11	...........	5.62236E-002	-4.21778E-003	5.64919E-001	6.65963E-001	-3.07939E-002	-3.97804E-002	6.54413E-001	-4.35943E-002	1.94810E-003	-1.46143E-004	1.95740E-002	2.30751E-002	-1.06698E-003	-1.37836E-003	2.26749E-002	-1.51051E-003
	211	211	1.10024E+000	3.43422E-002	0.00000E+000	3.77847E-002	3.42558E-001	3.34831E-002	3.57814E+001	11	...........	5.61162E-002	-4.28444E-003	5.64800E-001	6.66065E-001	-3.08012E-002	-3.97611E-002	6.54505E-001	-4.36354E-002	1.92716E-003	-1.47137E-004	1.93965E-002	2.28741E-002	-1.05778E-003	-1.36548E-003	2.24771E-002	-1.49854E-003
	212	212	1.10011E+000	3.41948E-002	0.00000E+000	3.76180E-002	3.41085E-001	3.34709E-002	3.83147E+001	11	...........	5.60921E-002	-4.15181E-003	5.64797E-001	6.66076E-001	-3.07708E-002	-3.97483E-002	6.54471E-001	-4.35481E-002	1.91806E-003	-1.41970E-004	1.93131E-002	2.27764E-002	-1.05220E-003	-1.35919E-003	2.23795E-002	-1.48912E-003
	213	213	1.10014E+000	3.43658E-002	0.00000E+000	3.78071E-002	3.42786E-001	3.36524E-002	3.74484E+001	11	...........	5.63825E-002	-4.15347E-003	5.64843E-001	6.66030E-001	-3.07537E-002	-3.97479E-002	6.54681E-001	-4.34193E-002	1.93763E-003	-1.42737E-004	1.94113E-002	2.28886E-002	-1.05688E-003	-1.36597E-003	2.24986E-002	-1.49214E-003
	214	214	1.10024E+000	3.40916E-002	0.00000E+000	3.75090E-002	3.40061E-001	3.34483E-002	3.63321E+001	11	...........	5.60340E-002	-4.10611E-003	5.64938E-001	6.65988E-001	-3.07694E-002	-3.97471E-002	6.54472E-001	-4.34565E-002	1.91029E-003	-1.39984E-004	1.92597E-002	2.27046E-002	-1.04898E-003	-1.35504E-003	2.23120E-002	-1.48150E-003
	215	215	1.10011E+000	3.39272E-002	0.00000E+000	3.73237E-002	3.38431E-001	3.32510E-002	3.71859E+001	11	...........	5.57315E-002	-4.17708E-003	5.64964E-001	6.65992E-001	-3.07956E-002	-3.97631E-002	6.54298E-001	-4.34367E-002	1.89082E-003	-1.41717E-004	1.91677E-002	2.25952E-002	-1.04481E-003	-1.34905E-003	2.21985E-002	-1.47369E-003
	216	216	1.10014E+000	3.40810E-002	0.00000E+000	3.74938E-002	3.39955E-001	3.37311E-002	3.79212E+001	11	...........	5.65115E-002	-4.16167E-003	5.64846E-001	6.66107E-001	-3.08154E-002	-3.97917E-002	6.54366E-001	-4.33504E-002	1.92597E-003	-1.41834E-004	1.92505E-002	2.27016E-002	-1.05022E-003	-1.35614E-003	2.23015E-002	-1.47743E-003
	217	217	1.10024E+000	3.37953E-002	0.00000E+000	3.71829E-002	3.37116E-001	3.32557E-002	3.78531E+001	11	...........	5.57743E-002	-4.22167E-003	5.64846E-001	6.66152E-001	-3.08061E-002	-3.97964E-002	6.54467E-001	-4.33578E-002	1.88491E-003	-1.42672E-004	1.90891E-002	2.25128E-002	-1.04110E-003	-1.34493E-003	2.21179E-002	-1.46529E-003
	218	218	1.10012E+000	3.36160E-002	0.00000E+000	3.69816E-002	3.35330E-001	3.36172E-002	3.70560E+001	11	...........	5.63265E-002	-4.13528E-003	5.64942E-001	6.66147E-001	-3.07703E-002	-3.97712E-002	6.54681E-001	-4.35417E-002	1.89347E-003	-1.39012E-004	1.89911E-002	2.23932E-002	-1.03437E-003	-1.33695E-003	2.20078E-002	-1.46370E-003
	219	219	1.10013E+000	3.37961E-002	0.00000E+000	3.71802E-002	3.37122E-001	3.33604E-002	3.78645E+001	11	...........	5.58707E-002	-4.14639E-003	5.64808E-001	6.65945E-001	-3.07742E-002	-3.97612E-002	6.54574E-001	-4.35393E-002	1.88821E-003	-1.40132E-004	1.90883E-002	2.25063E-002	-1.04005E-003	-1.34377E-003	2.21220E-002	-1.47146E-003
	220	220	1.10024E+000	3.35927E-002	0.00000E+000	3.69600E-002	3.35104E-001	3.34705E-002	3.76161E+001	11	...........	5.60974E-002	-4.07014E-003	5.64899E-001	6.65858E-001	-3.08039E-002	-3.98039E-002	6.54423E-001	-4.35500E-002	1.88446E-003	-1.36727E-004	1.89765E-002	2.23679E-002	-1.03479E-003	-1.33712E-003	2.19838E-002	-1.46296E-003
	221	221	1.10012E+000	3.33777E-002	0.00000E+000	3.67194E-002	3.32963E-001	3.34721E-002	3.78893E+001	11	...........	5.61153E-002	-4.10347E-003	5.64870E-001	6.65778E-001	-3.08010E-002	-3.97943E-002	6.54482E-001	-4.35554E-002	1.87300E-003	-1.36964E-004	1.88540E-002	2.22221E-002	-1.02806E-003	-1.32824E-003	2.18451E-002	-1.45378E-003
	222	222	1.10014E+000	3.35061E-002	0.00000E+000	3.68613E-002	3.34244E-001	3.31867E-002	3.66148E+001	11	...........	5.56356E-002	-4.14444E-003	5.64768E-001	6.65614E-001	-3.09000E-002	-3.98444E-002	6.54397E-001	-4.35796E-002	1.86413E-003	-1.38864E-004	1.89232E-002	2.23022E-002	-1.03534E-003	-1.33503E-003	2.19263E-002	-1.46018E-003
	223	223	1.10024E+000	3.33335E-002	0.00000E+000	3.66747E-002	3.32530E-001	3.34942E-002	3.87154E+001	11	...........	5.61018E-002	-4.17472E-003	5.64812E-001	6.65837E-001	-3.08399E-002	-3.98207E-002	6.54334E-001	-4.35106E-002	1.87007E-003	-1.39158E-004	1.88272E-002	2.21947E-002	-1.02800E-003	-1.32736E-003	2.18112E-002	-1.45036E-003
	224	224	1.10012E+000	3.30354E-002	0.00000E+000	3.63430E-002	3.29565E-001	3.36773E-002	3.75331E+001	11	...........	5.64286E-002	-4.17403E-003	5.64898E-001	6.65951E-001	-3.08124E-002	-3.98278E-002	6.54389E-001	-4.34115E-002	1.86414E-003	-1.37891E-004	1.86617E-002	2.20000E-002	-1.01790E-003	-1.31573E-003	2.16180E-002	-1.43412E-003
	225	225	1.10013E+000	3.32311E-002	0.00000E+000	3.65586E-002	3.31502E-001	3.29107E-002	3.66356E+001	11	...........	5.51421E-002	-4.00097E-003	5.64816E-001	6.66001E-001	-3.07996E-002	-3.98171E-002	6.54481E-001	-4.34093E-002	1.83243E-003	-1.32957E-004	1.87695E-002	2.21320E-002	-1.02350E-003	-1.32317E-003	2.17491E-002	-1.44254E-003
	226	226	1.10024E+000	3.30227E-002	0.00000E+000	3.63328E-002	3.29435E-001	3.37302E-002	3.82789E+001	11	...........	5.65346E-002	-3.95417E-003	5.64858E-001	6.66046E-001	-3.07764E-002	-3.98279E-002	6.54555E-001	-4.34293E-002	1.86693E-003	-1.30577E-004	1.86531E-002	2.19947E-002	-1.01632E-003	-1.31523E-003	2.16152E-002	-1.43415E-003
	227	227	1.10012E+000	3.28230E-002	0.00000E+000	3.61093E-002	3.27459E-001	3.33056E-002	3.76475E+001	11	...........	5.58289E-002	-4.09736E-003	5.64751E-001	6.66002E-001	-3.08293E-002	-3.98881E-002	6.54536E-001	-4.35414E-002	1.83247E-003	-1.34488E-004	1.85368E-002	2.18602E-002	-1.01191E-003	-1.30924E-003	2.14838E-002	-1.42916E-003
	228	228	1.10013E+000	3.29074E-002	0.00000E+000	3.62024E-002	3.28289E-001	3.31210E-002	3.74127E+001	11	...........	5.54858E-002	-4.07597E-003	5.64719E-001	6.66102E-001	-3.07812E-002	-3.98421E-002	6.54664E-001	-4.35497E-002	1.82589E-003	-1.34130E-004	1.85834E-002	2.19197E-002	-1.01293E-003	-1.31110E-003	2.15433E-002	-1.43311E-003
	229	229	1.10023E+000	3.27697E-002	0.00000E+000	3.60544E-002	3.26922E-001	3.32124E-002	3.67388E+001	11	...........	5.56661E-002	-4.04236E-003	5.64657E-001	6.66114E-001	-3.07737E-002	-3.98224E-002	6.54610E-001	-4.34311E-002	1.82416E-003	-1.32467E-004	1.85036E-002	2.18284E-002	-1.00845E-003	-1.30497E-003	2.14514E-002	-1.42323E-003
	230	230	1.10013E+000	3.25605E-002	0.00000E+000	3.58207E-002	3.24841E-001	3.35131E-002	3.76488E+001	11	...........	5.61197E-002	-3.94278E-003	5.64496E-001	6.66376E-001	-3.07489E-002	-3.97979E-002	6.54636E-001	-4.34360E-002	1.82729E-003	-1.28379E-004	1.83803E-002	2.16976E-002	-1.00120E-003	-1.29584E-003	2.13153E-002	-1.41430E-003
	231	231	1.10013E+000	3.26974E-002	0.00000E+000	3.59715E-002	3.26194E-001	3.32883E-002	3.83211E+001	11	...........	5.57599E-002	-3.99333E-003	5.64453E-001	6.66367E-001	-3.07285E-002	-3.98092E-002	6.54671E-001	-4.33797E-002	1.82320E-003	-1.30572E-004	1.84561E-002	2.17885E-002	-1.00474E-003	-1.30166E-003	2.14060E-002	-1.41840E-003
	232	232	1.10023E+000	3.24874E-002	0.00000E+000	3.57435E-002	3.24118E-001	3.32306E-002	3.76514E+001	11	...........	5.57082E-002	-4.20736E-003	5.64322E-001	6.66419E-001	-3.08160E-002	-3.98954E-002	6.54587E-001	-4.34910E-002	1.80981E-003	-1.36686E-004	1.83333E-002	2.16502E-002	-1.00113E-003	-1.29610E-003	2.12658E-002	-1.41291E-003
	233	233	1.10013E+000	3.22423E-002	0.00000E+000	3.54707E-002	3.21682E-001	3.33145E-002	3.74120E+001	11	...........	5.58471E-002	-4.23722E-003	5.64272E-001	6.66524E-001	-3.08272E-002	-3.99042E-002	6.54522E-001	-4.34150E-002	1.80064E-003	-1.36618E-004	1.81934E-002	2.14903E-002	-9.93940E-004	-1.28660E-003	2.11033E-002	-1.39980E-003
	234	234	1.10013E+000	3.23934E-002	0.00000E+000	3.56369E-002	3.23182E-001	3.31774E-002	3.80141E+001	11	...........	5.55914E-002	-4.08986E-003	5.64319E-001	6.66703E-001	-3.08190E-002	-3.98358E-002	6.54516E-001	-4.34378E-002	1.80079E-003	-1.32484E-004	1.82802E-002	2.15967E-002	-9.98332E-004	-1.29042E-003	2.12020E-002	-1.40710E-003
	235	235	1.10023E+000	3.22335E-002	0.00000E+000	3.54642E-002	3.21599E-001	3.33247E-002	3.76202E+001	11	...........	5.58557E-002	-4.19958E-003	5.64436E-001	6.66607E-001	-3.08665E-002	-3.98949E-002	6.54478E-001	-4.35254E-002	1.80042E-003	-1.35367E-004	1.81937E-002	2.14871E-002	-9.94936E-004	-1.28595E-003	2.10961E-002	-1.40298E-003
	236	236	1.10013E+000	3.19505E-002	0.00000E+000	3.51498E-002	3.18790E-001	3.31169E-002	3.79448E+001	11	...........	5.55056E-002	-4.12333E-003	5.64361E-001	6.66554E-001	-3.09018E-002	-3.99151E-002	6.54532E-001	-4.35926E-002	1.77343E-003	-1.31743E-004	1.80316E-002	2.12967E-002	-9.87328E-004	-1.27531E-003	2.09126E-002	-1.39281E-003
	237	237	1.10013E+000	3.21315E-002	0.00000E+000	3.53488E-002	3.20585E-001	3.30758E-002	3.78596E+001	11	...........	5.54614E-002	-4.10542E-003	5.64413E-001	6.66588E-001	-3.09143E-002	-3.99310E-002	6.54576E-001	-4.35603E-002	1.78205E-003	-1.31913E-004	1.81354E-002	2.14184E-002	-9.93322E-004	-1.28304E-003	2.10325E-002	-1.39965E-003
	238	238	1.10022E+000	3.19874E-002	0.00000E+000	3.51933E-002	3.19150E-001	3.34274E-002	3.73494E+001	11	...........	5.60058E-002	-4.05972E-003	5.64311E-001	6.66515E-001	-3.08669E-002	-3.99412E-002	6.54609E-001	-4.35075E-002	1.79148E-003	-1.29860E-004	1.80508E-002	2.13201E-002	-9.87354E-004	-1.27762E-003	2.09392E-002	-1.39169E-003
	239	239	1.10014E+000	3.16622E-002	0.00000E+000	3.48327E-002	3.15914E-001	3.30480E-002	3.76642E+001	11	...........	5.54076E-002	-4.15931E-003	5.64396E-001	6.66696E-001	-3.08608E-002	-3.99047E-002	6.54552E-001	-4.35408E-002	1.75433E-003	-1.31693E-004	1.78700E-002	2.11091E-002	-9.77121E-004	-1.26347E-003	2.07245E-002	-1.37860E-003
	240	240	1.10013E+000	3.18364E-002	0.00000E+000	3.50241E-002	3.17646E-001	3.32318E-002	3.75819E+001	11	...........	5.56879E-002	-4.07292E-003	5.64462E-001	6.66764E-001	-3.08565E-002	-3.98949E-002	6.54661E-001	-4.36026E-002	1.77290E-003	-1.29667E-004	1.79704E-002	2.12273E-002	-9.82360E-004	-1.27011E-003	2.08420E-002	-1.38815E-003
	241	241	1.10022E+000	3.17250E-002	0.00000E+000	3.49046E-002	3.16547E-001	3.29108E-002	3.83688E+001	11	...........	5.51622E-002	-4.18722E-003	5.64478E-001	6.66649E-001	-3.08817E-002	-3.99246E-002	6.54652E-001	-4.37085E-002	1.75002E-003	-1.32840E-004	1.79081E-002	2.11494E-002	-9.79721E-004	-1.26661E-003	2.07688E-002	-1.38665E-003
	242	242	1.10014E+000	3.13984E-002	0.00000E+000	3.45427E-002	3.13303E-001	3.34056E-002	3.60674E+001	11	...........	5.59901E-002	-4.28917E-003	5.64668E-001	6.66605E-001	-3.09093E-002	-3.99692E-002	6.54537E-001	-4.36226E-002	1.75800E-003	-1.34673E-004	1.77297E-002	2.09303E-002	-9.70503E-004	-1.25497E-003	2.05514E-002	-1.36968E-003
	243	243	1.10013E+000	3.15889E-002	0.00000E+000	3.47518E-002	3.15199E-001	3.29148E-002	3.80411E+001	11	...........	5.52044E-002	-4.21861E-003	5.64661E-001	6.66517E-001	-3.09754E-002	-4.00054E-002	6.54397E-001	-4.35893E-002	1.74385E-003	-1.33261E-004	1.78370E-002	2.10545E-002	-9.78478E-004	-1.26373E-003	2.06717E-002	-1.37694E-003
	244	244	1.10022E+000	3.14859E-002	0.00000E+000	3.46414E-002	3.14174E-001	3.32230E-002	3.77189E+001	11	...........	5.56781E-002	-4.29194E-003	5.64714E-001	6.66421E-001	-3.09528E-002	-4.00001E-002	6.54421E-001	-4.37003E-002	1.75308E-003	-1.35136E-004	1.77806E-002	2.09829E-002	-9.74577E-004	-1.25944E-003	2.06051E-002	-1.37594E-003
	245	245	1.10014E+000	3.11419E-002	0.00000E+000	3.42605E-002	3.10747E-001	3.27262E-002	3.79995E+001	11	...........	5.48889E-002	-4.06694E-003	5.64592E-001	6.66437E-001	-3.09160E-002	-3.99560E-002	6.54450E-001	-4.36246E-002	1.70934E-003	-1.26652E-004	1.75825E-002	2.07541E-002	-9.62781E-004	-1.24430E-003	2.03808E-002	-1.35855E-003
	246	246	1.10013E+000	3.13446E-002	0.00000E+000	3.44831E-002	3.12757E-001	3.33121E-002	3.87562E+001	11	...........	5.58203E-002	-4.02653E-003	5.64773E-001	6.66435E-001	-3.08835E-002	-3.99392E-002	6.54525E-001	-4.37411E-002	1.74966E-003	-1.26210E-004	1.77026E-002	2.08891E-002	-9.68029E-004	-1.25188E-003	2.05158E-002	-1.37105E-003
	247	247	1.10022E+000	3.12393E-002	0.00000E+000	3.43700E-002	3.11711E-001	3.31852E-002	3.83817E+001	11	...........	5.56310E-002	-4.10319E-003	5.64920E-001	6.66462E-001	-3.08749E-002	-3.99087E-002	6.54503E-001	-4.36825E-002	1.73787E-003	-1.28181E-004	1.76477E-002	2.08198E-002	-9.64508E-004	-1.24672E-003	2.04462E-002	-1.36461E-003
	248	248	1.10014E+000	3.08933E-002	0.00000E+000	3.39871E-002	3.08270E-001	3.28155E-002	3.72278E+001	11	...........	5.50011E-002	-4.00139E-003	5.64960E-001	6.66532E-001	-3.08431E-002	-3.98915E-002	6.54457E-001	-4.35053E-002	1.69916E-003	-1.23616E-004	1.74535E-002	2.05914E-002	-9.52843E-004	-1.23238E-003	2.02183E-002	-1.34402E-003
	249	249	1.10013E+000	3.10691E-002	0.00000E+000	3.41799E-002	3.10015E-001	3.31374E-002	3.82656E+001	11	...........	5.55089E-002	-3.97014E-003	5.64833E-001	6.66455E-001	-3.08275E-002	-3.98856E-002	6.54414E-001	-4.34331E-002	1.72461E-003	-1.23348E-004	1.75488E-002	2.07061E-002	-9.57781E-004	-1.23921E-003	2.03320E-002	-1.34942E-003
	250	250	1.10022E+000	3.09617E-002	0.00000E+000	3.40646E-002	3.08949E-001	3.27806E-002	3.79811E+001	11	...........	5.49471E-002	-3.93625E-003	5.64707E-001	6.66483E-001	-3.08407E-002	-3.98969E-002	6.54402E-001	-4.33444E-002	1.70126E-003	-1.21873E-004	1.74843E-002	2.06355E-002	-9.54882E-004	-1.23528E-003	2.02614E-002	-1.34202E-003
	251	251	1.10015E+000	3.06786E-002	0.00000E+000	3.37510E-002	3.06142E-001	3.31281E-002	3.79581E+001	11	...........	5.55219E-002	-4.05000E-003	5.64591E-001	6.66383E-001	-3.08817E-002	-3.99551E-002	6.54269E-001	-4.33619E-002	1.70334E-003	-1.24248E-004	1.73209E-002	2.04437E-002	-9.47407E-004	-1.22577E-003	2.00721E-002	-1.33028E-003
	252	252	1.10013E+000	3.08415E-002	0.00000E+000	3.39297E-002	3.07759E-001	3.31151E-002	3.84711E+001	11	...........	5.55115E-002	-4.19333E-003	5.64610E-001	6.66447E-001	-3.08561E-002	-3.99056E-002	6.54204E-001	-4.34132E-002	1.71206E-003	-1.29329E-004	1.74134E-002	2.05542E-002	-9.51649E-004	-1.23075E-003	2.01767E-002	-1.33893E-003
	253	253	1.10021E+000	3.07593E-002	0.00000E+000	3.38417E-002	3.06944E-001	3.28317E-002	3.83406E+001	11	...........	5.50493E-002	-4.18819E-003	5.64753E-001	6.66475E-001	-3.08644E-002	-3.99583E-002	6.54188E-001	-4.34914E-002	1.69328E-003	-1.28826E-004	1.73714E-002	2.05003E-002	-9.49369E-004	-1.22909E-003	2.01224E-002	-1.33777E-003
	254	254	1.10015E+000	3.04192E-002	0.00000E+000	3.34657E-002	3.03563E-001	3.30174E-002	3.77713E+001	11	...........	5.53410E-002	-4.29764E-003	5.64717E-001	6.66582E-001	-3.08496E-002	-3.99454E-002	6.54151E-001	-4.36383E-002	1.68343E-003	-1.30731E-004	1.71782E-002	2.02769E-002	-9.38420E-004	-1.21511E-003	1.98988E-002	-1.32744E-003
	255	255	1.10013E+000	3.05462E-002	0.00000E+000	3.36048E-002	3.04827E-001	3.28037E-002	3.70302E+001	11	...........	5.49853E-002	-4.31625E-003	5.64691E-001	6.66515E-001	-3.08760E-002	-3.99387E-002	6.54136E-001	-4.37203E-002	1.67959E-003	-1.31845E-004	1.72492E-002	2.03595E-002	-9.43143E-004	-1.21998E-003	1.99814E-002	-1.33549E-003
	256	256	1.10021E+000	3.04798E-002	0.00000E+000	3.35341E-002	3.04168E-001	3.31460E-002	3.76276E+001	11	...........	5.55547E-002	-4.15069E-003	5.64666E-001	6.66453E-001	-3.08675E-002	-3.99422E-002	6.54308E-001	-4.37236E-002	1.69330E-003	-1.26512E-004	1.72109E-002	2.03134E-002	-9.40834E-004	-1.21743E-003	1.99432E-002	-1.33269E-003
	257	257	1.10015E+000	3.01850E-002	0.00000E+000	3.32081E-002	3.01239E-001	3.29777E-002	3.80084E+001	11	...........	5.52912E-002	-4.15014E-003	5.64490E-001	6.66338E-001	-3.08700E-002	-3.99710E-002	6.54340E-001	-4.37115E-002	1.66896E-003	-1.25272E-004	1.70391E-002	2.01134E-002	-9.31810E-004	-1.20652E-003	1.97512E-002	-1.31943E-003
	258	258	1.10013E+000	3.03089E-002	0.00000E+000	3.33436E-002	3.02471E-001	3.27681E-002	3.90497E+001	11	...........	5.49653E-002	-4.17486E-003	5.64466E-001	6.66386E-001	-3.08964E-002	-3.99861E-002	6.54256E-001	-4.36119E-002	1.66593E-003	-1.26535E-004	1.71083E-002	2.01974E-002	-9.36434E-004	-1.21193E-003	1.98297E-002	-1.32183E-003
	259	259	1.10021E+000	3.02228E-002	0.00000E+000	3.32514E-002	3.01619E-001	3.30063E-002	3.80528E+001	11	...........	5.54664E-002	-4.28042E-003	5.64367E-001	6.66384E-001	-3.09292E-002	-4.00275E-002	6.54249E-001	-4.37075E-002	1.67635E-003	-1.29366E-004	1.70568E-002	2.01400E-002	-9.34767E-004	-1.20974E-003	1.97733E-002	-1.32096E-003
	260	260	1.10016E+000	2.98963E-002	0.00000E+000	3.28906E-002	2.98373E-001	3.29283E-002	3.72126E+001	11	...........	5.51894E-002	-4.33361E-003	5.64474E-001	6.66532E-001	-3.09440E-002	-4.00465E-002	6.54216E-001	-4.36800E-002	1.64996E-003	-1.29559E-004	1.68757E-002	1.99269E-002	-9.25113E-004	-1.19724E-003	1.95586E-002	-1.30587E-003
	261	261	1.10013E+000	3.00672E-002	0.00000E+000	3.30777E-002	3.00070E-001	3.26983E-002	3.78446E+001	11	...........	5.48400E-002	-4.09986E-003	5.64443E-001	6.66645E-001	-3.08761E-002	-4.00368E-002	6.54229E-001	-4.36479E-002	1.64889E-003	-1.23271E-004	1.69712E-002	2.00442E-002	-9.28359E-004	-1.20380E-003	1.96709E-002	-1.31237E-003
	262	262	1.10021E+000	3.00007E-002	0.00000E+000	3.30070E-002	2.99402E-001	3.29520E-002	3.74495E+001	11	...........	5.52293E-002	-4.11931E-003	5.64318E-001	6.66823E-001	-3.08147E-002	-3.99739E-002	6.54335E-001	-4.36068E-002	1.65692E-003	-1.23582E-004	1.69299E-002	2.00051E-002	-9.24462E-004	-1.19924E-003	1.96305E-002	-1.30823E-003
	263	263	1.10016E+000	2.96785E-002	0.00000E+000	3.26511E-002	2.96205E-001	3.29833E-002	3.83962E+001	11	...........	5.53085E-002	-4.23653E-003	5.64213E-001	6.66860E-001	-3.08465E-002	-4.00036E-002	6.54303E-001	-4.36215E-002	1.64147E-003	-1.25734E-004	1.67450E-002	1.97914E-002	-9.15479E-004	-1.18725E-003	1.94187E-002	-1.29462E-003
	264	264	1.10013E+000	2.98178E-002	0.00000E+000	3.28034E-002	2.97590E-001	3.26281E-002	3.86514E+001	11	...........	5.47007E-002	-4.21653E-003	5.64104E-001	6.66897E-001	-3.08803E-002	-4.00083E-002	6.54167E-001	-4.34436E-002	1.63105E-003	-1.25728E-004	1.68203E-002	1.98854E-002	-9.20782E-004	-1.19296E-003	1.95058E-002	-1.29539E-003
	265	265	1.10020E+000	2.97702E-002	0.00000E+000	3.27533E-002	2.97114E-001	3.28793E-002	3.76275E+001	11	...........	5.50979E-002	-4.15778E-003	5.64116E-001	6.66835E-001	-3.08383E-002	-4.00187E-002	6.54134E-001	-4.34194E-002	1.64028E-003	-1.23778E-004	1.67939E-002	1.98518E-002	-9.18064E-004	-1.19137E-003	1.94737E-002	-1.29261E-003
	266	266	1.10016E+000	2.94424E-002	0.00000E+000	3.23914E-002	2.93856E-001	3.29406E-002	3.76171E+001	11	...........	5.52078E-002	-4.15458E-003	5.64287E-001	6.66789E-001	-3.08446E-002	-4.00315E-002	6.54209E-001	-4.35431E-002	1.62545E-003	-1.22321E-004	1.66140E-002	1.96319E-002	-9.08138E-004	-1.17862E-003	1.92615E-002	-1.28201E-003
	267	267	1.10013E+000	2.95896E-002	0.00000E+000	3.25523E-002	2.95322E-001	3.28256E-002	3.81244E+001	11	...........	5.50304E-002	-4.10736E-003	5.64165E-001	6.66609E-001	-3.08821E-002	-4.01044E-002	6.54197E-001	-4.35774E-002	1.62833E-003	-1.21535E-004	1.66934E-002	1.97247E-002	-9.13789E-004	-1.18668E-003	1.93574E-002	-1.28944E-003
	268	268	1.10020E+000	2.94811E-002	0.00000E+000	3.24351E-002	2.94250E-001	3.26077E-002	3.75867E+001	11	...........	5.46779E-002	-4.25514E-003	5.64188E-001	6.66522E-001	-3.09090E-002	-4.01507E-002	6.54180E-001	-4.36408E-002	1.61197E-003	-1.25446E-004	1.66329E-002	1.96498E-002	-9.11233E-004	-1.18369E-003	1.92860E-002	-1.28658E-003
	269	269	1.10017E+000	2.91821E-002	0.00000E+000	3.21051E-002	2.91276E-001	3.28942E-002	3.57233E+001	11	...........	5.51646E-002	-4.20903E-003	5.64300E-001	6.66638E-001	-3.08704E-002	-4.01557E-002	6.54064E-001	-4.35790E-002	1.60982E-003	-1.22828E-004	1.64674E-002	1.94539E-002	-9.00862E-004	-1.17183E-003	1.90869E-002	-1.27173E-003
	270	269.907	1.10020E+000	2.93816E-002	0.00000E+000	3.23256E-002	2.93257E-001	3.27570E-002	3.85923E+001	11	...........	5.48850E-002	-4.14032E-003	5.64386E-001	6.66625E-001	-3.08687E-002	-4.00936E-002	6.54081E-001	-4.35898E-002	1.61261E-003	-1.21649E-004	1.65826E-002	1.95865E-002	-9.06971E-004	-1.17801E-003	1.92179E-002	-1.28074E-003
STARTTIMEOFFSET	QUANT	374604.4	Start Time Offset (s)
