EXPLAIN
TAG	PWR800_CHARGE
TITLE	LABEL	PWR Charge	Test Identifier
DATE	LABEL	10/17/2022	Date
TIME	LABEL	17:00:52	Time
NOTES	NOTES	1	Notes...
	
PSTAT	PSTAT	REF3000-21114	Potentiostat
CAPACITY	QUANT	5.30000E-002	Capacity (A-hr)
CELLTYPE	SELECTOR	1	Cell Type
WORKINGCONNECTION	SELECTOR	0	Working Connection
MAXCHARGETIME	VARIABLEANDUNITS	7.20000E+003	s	2.00000E+000	hour(s)	Max Charge Time
CHARGEMODE	MULTIPARAM	0	1.00000E-001	Charge Mode	Constant Current	Amp(s)
CHARGECURRENT	QUANT	0.1	Charge Current (A)
VOLTAGEFINISH	TWOPARAM	T	2.50000E-002	7.20000E+003	Voltage Finish	I (A) <	Max Time(s)
SAMPLETIME	QUANT	1.00000E+000	Sample Period (s)
CHARGESTOPAT1	MULTIPARAM	2	1.10000E+000	Stop At 1	|Voltage| > Limit	V
CHARGESTOPAT2	MULTIPARAM	0	0.00000E+000	Stop At 2	None	N/A
AESELECTOR	AESELECTOR	0x1	T	Set Limits	AE Channels
AESBHCSELECTOR	TOGGLE	F	Save Both Half Cells
IRCOMP	TOGGLE	F	IR Measure
EOC	QUANT	0.2660168	Open Circuit (V)
SEQUENCER	TOGGLE	TRUE	Run as Sequence
PSTATMODEL	IQUANT	5	Pstat Model
PSTATSECTION	LABEL	REF3000-21114	Pstat Section
PSTATSERIALNO	LABEL	21114	Pstat Serial Number
CTRLMODE	IQUANT	0	Control Mode
ELECTROMETER	IQUANT	0	RE=0 or CS=1
IESTAB	IQUANT	0	I/E Stability
CASPEED	IQUANT	4	Control Amp Speed
CONVENTION	IQUANT	1	Current Convention
ICHRANGE	IQUANT	2	Ich Range
ICHRANGEMODE	TOGGLE	T	Ich Auto Range
ICHOFFSETENABLE	TOGGLE	F	Ich Offset Enable
ICHOFFSET	QUANT	0	Ich Offset (V)
ICHFILTER	IQUANT	1	Ich Filter
VCHRANGE	IQUANT	3	Vch Range
VCHRANGEMODE	TOGGLE	T	Vch Auto Range
VCHOFFSETENABLE	TOGGLE	F	Vch Offset Enable
VCHOFFSET	QUANT	0	Vch Offset (V)
VCHFILTER	IQUANT	1	Vch Filter
ACHRANGE	IQUANT	2	Ach Range
ACHOFFSETENABLE	TOGGLE	F	Ach Offset Enable
ACHOFFSET	QUANT	0	Ach Offset (V)
ACHFILTER	IQUANT	1	Ach Filter
IERANGELOWERLIMIT	IQUANT	9	I/E Range Lower Limit
IERANGEMODE	TOGGLE	F	I/E AutoRange
IERANGE	IQUANT	9	I/E Range
POSFEEDENABLE	TOGGLE	F	Positive Feedback IR Comp
POSFEEDRESISTANCE	QUANT	0	Positive Feedback Resistance (ohm)
ACHSELECT	IQUANT	1	Ach Select
SENSECABLEID	IQUANT	13	Sense Cable ID
PWRCABLEID	IQUANT	13	Power Cable ID
DCCALDATE	LABEL		DC Calibration Date
ACCALDATE	LABEL		AC Calibration Date
THERMOSELECT	IQUANT	1	Thermo Select
FRAMEWORKVERSION	LABEL	7.8.6	Framework Version
INSTRUMENTVERSION	LABEL	4.50	Instrument Version
COMPLIANCEVOLTAGE	IQUANT	0	Compliance Voltage
CURVE	TABLE	50
	Pt	T	Vf	Im	Vu	Pwr	Sig	Ach	Temp	IERange	Over	Vf1	Vf2	Vf3	Vf4	Vf5	Vf6	Vf7	Vf8	Pwr1	Pwr2	Pwr3	Pwr4	Pwr5	Pwr6	Pwr7	Pwr8
	#	s	V	A	V	W	V	V	deg C	#	bits	V	V	V	V	V	V	V	V	W	W	W	W	W	W	W	W
	0	1	5.63740E-001	9.98425E-002	0.00000E+000	5.62852E-002	9.94000E-001	3.72843E-002	4.01873E+001	11	...........	6.19203E-002	-5.16069E-003	5.91241E-001	5.54358E-001	-2.78244E-002	-3.87118E-002	6.89206E-001	-4.39849E-002	6.18228E-003	-5.15257E-004	5.90310E-002	5.53485E-002	-2.77806E-003	-3.86508E-003	6.88120E-002	-4.39156E-003
	1	2	8.13182E-001	9.98433E-002	0.00000E+000	8.11908E-002	9.94000E-001	3.78403E-002	4.33331E+001	11	...........	6.28711E-002	-5.13639E-003	5.91374E-001	5.54186E-001	-2.78133E-002	-3.87119E-002	6.89174E-001	-4.40067E-002	6.27726E-003	-5.12834E-004	5.90447E-002	5.53317E-002	-2.77698E-003	-3.86513E-003	6.88094E-002	-4.39377E-003
	2	2.115	1.07083E+000	9.98440E-002	0.00000E+000	1.06916E-001	9.94000E-001	3.84254E-002	4.87266E+001	11	...........	6.38792E-002	-5.22705E-003	5.91553E-001	5.54173E-001	-2.77693E-002	-3.87331E-002	6.89215E-001	-4.39469E-002	6.37796E-003	-5.21890E-004	5.90630E-002	5.53308E-002	-2.77260E-003	-3.86727E-003	6.88140E-002	-4.38783E-003
	3	3	1.10078E+000	6.38901E-002	0.00000E+000	7.03292E-002	6.36487E-001	3.82085E-002	4.86891E+001	11	...........	6.34353E-002	-5.20009E-003	5.91509E-001	5.54163E-001	-2.78071E-002	-3.87305E-002	6.89134E-001	-4.39233E-002	4.05289E-003	-3.32234E-004	3.77915E-002	3.54055E-002	-1.77660E-003	-2.47450E-003	4.40288E-002	-2.80626E-003
	4	4	1.10027E+000	4.59950E-002	0.00000E+000	5.06071E-002	4.58549E-001	3.79178E-002	4.74177E+001	11	...........	6.29867E-002	-5.13986E-003	5.91564E-001	5.54124E-001	-2.78117E-002	-3.87433E-002	6.89060E-001	-4.39188E-002	2.89707E-003	-2.36408E-004	2.72090E-002	2.54869E-002	-1.27920E-003	-1.78200E-003	3.16933E-002	-2.02004E-003
	5	5	1.10025E+000	4.03863E-002	0.00000E+000	4.44351E-002	4.02782E-001	3.78516E-002	4.58565E+001	11	...........	6.28880E-002	-4.91264E-003	5.91725E-001	5.54034E-001	-2.78065E-002	-3.87456E-002	6.89188E-001	-4.39664E-002	2.53981E-003	-1.98403E-004	2.38976E-002	2.23754E-002	-1.12300E-003	-1.56479E-003	2.78337E-002	-1.77564E-003
	6	6	1.10016E+000	3.76434E-002	0.00000E+000	4.14137E-002	3.75513E-001	3.79794E-002	4.52639E+001	11	...........	6.30724E-002	-4.97194E-003	5.91873E-001	5.54212E-001	-2.77975E-002	-3.87596E-002	6.89190E-001	-4.39538E-002	2.37426E-003	-1.87161E-004	2.22801E-002	2.08624E-002	-1.04639E-003	-1.45904E-003	2.59434E-002	-1.65457E-003
	7	7	1.10020E+000	3.58548E-002	0.00000E+000	3.94473E-002	3.57727E-001	3.79822E-002	4.55395E+001	11	...........	6.30892E-002	-5.10972E-003	5.91790E-001	5.54267E-001	-2.78047E-002	-3.87581E-002	6.89196E-001	-4.39340E-002	2.26205E-003	-1.83208E-004	2.12185E-002	1.98731E-002	-9.96932E-004	-1.38966E-003	2.47110E-002	-1.57525E-003
	8	8	1.10022E+000	3.42661E-002	0.00000E+000	3.77004E-002	3.41927E-001	3.74649E-002	4.53277E+001	11	...........	6.23428E-002	-5.07694E-003	5.91764E-001	5.54378E-001	-2.78128E-002	-3.87665E-002	6.89102E-001	-4.39031E-002	2.13624E-003	-1.73967E-004	2.02774E-002	1.89964E-002	-9.53034E-004	-1.32838E-003	2.36128E-002	-1.50438E-003
	9	9	1.10015E+000	3.33567E-002	0.00000E+000	3.66973E-002	3.32886E-001	3.80410E-002	4.50350E+001	11	...........	6.31807E-002	-5.07083E-003	5.91858E-001	5.54346E-001	-2.78176E-002	-3.87440E-002	6.89135E-001	-4.37758E-002	2.10750E-003	-1.69146E-004	1.97424E-002	1.84911E-002	-9.27905E-004	-1.29237E-003	2.29873E-002	-1.46022E-003
	10	10	1.10019E+000	3.26735E-002	0.00000E+000	3.59469E-002	3.26095E-001	3.80900E-002	4.36403E+001	11	...........	6.32407E-002	-5.04278E-003	5.91979E-001	5.54263E-001	-2.78308E-002	-3.87446E-002	6.88889E-001	-4.37857E-002	2.06629E-003	-1.64765E-004	1.93420E-002	1.81097E-002	-9.09331E-004	-1.26592E-003	2.25084E-002	-1.43063E-003
	11	11	1.10022E+000	3.18605E-002	0.00000E+000	3.50534E-002	3.18012E-001	3.75392E-002	4.34083E+001	11	...........	6.23517E-002	-4.99361E-003	5.91941E-001	5.54333E-001	-2.78064E-002	-3.87511E-002	6.89035E-001	-4.37361E-002	1.98655E-003	-1.59099E-004	1.88595E-002	1.76613E-002	-8.85924E-004	-1.23463E-003	2.19530E-002	-1.39345E-003
	12	12	1.10014E+000	3.15166E-002	0.00000E+000	3.46727E-002	3.14593E-001	3.79152E-002	4.48253E+001	11	...........	6.29775E-002	-5.03264E-003	5.92037E-001	5.54403E-001	-2.78110E-002	-3.87381E-002	6.89039E-001	-4.38471E-002	1.98484E-003	-1.58612E-004	1.86590E-002	1.74729E-002	-8.76507E-004	-1.22089E-003	2.17162E-002	-1.38191E-003
	13	13	1.10018E+000	3.12153E-002	0.00000E+000	3.43424E-002	3.11602E-001	3.79451E-002	4.42122E+001	11	...........	6.30122E-002	-5.00806E-003	5.92120E-001	5.54361E-001	-2.78136E-002	-3.87528E-002	6.89099E-001	-4.38615E-002	1.96695E-003	-1.56328E-004	1.84832E-002	1.73046E-002	-8.68210E-004	-1.20968E-003	2.15104E-002	-1.36915E-003
	14	14	1.10021E+000	3.07251E-002	0.00000E+000	3.38042E-002	3.06727E-001	3.78582E-002	4.42381E+001	11	...........	6.28846E-002	-4.95056E-003	5.92201E-001	5.54465E-001	-2.78086E-002	-3.87194E-002	6.89126E-001	-4.38604E-002	1.93214E-003	-1.52106E-004	1.81954E-002	1.70360E-002	-8.54423E-004	-1.18966E-003	2.11735E-002	-1.34762E-003
	15	15	1.10014E+000	3.05865E-002	0.00000E+000	3.36494E-002	3.05346E-001	3.77943E-002	4.53052E+001	11	...........	6.27683E-002	-4.99583E-003	5.92079E-001	5.54553E-001	-2.78294E-002	-3.86890E-002	6.89192E-001	-4.38697E-002	1.91986E-003	-1.52805E-004	1.81096E-002	1.69618E-002	-8.51205E-004	-1.18336E-003	2.10800E-002	-1.34182E-003
	16	16	1.10018E+000	3.04432E-002	0.00000E+000	3.34929E-002	3.03923E-001	3.77709E-002	4.50507E+001	11	...........	6.27368E-002	-4.92639E-003	5.92152E-001	5.54444E-001	-2.78356E-002	-3.86792E-002	6.89168E-001	-4.38624E-002	1.90991E-003	-1.49975E-004	1.80270E-002	1.68790E-002	-8.47403E-004	-1.17752E-003	2.09805E-002	-1.33531E-003
	17	17	1.10021E+000	3.00594E-002	0.00000E+000	3.30718E-002	3.00114E-001	3.76567E-002	4.15305E+001	11	...........	6.25596E-002	-4.87889E-003	5.92266E-001	5.54470E-001	-2.78344E-002	-3.87194E-002	6.89193E-001	-4.38187E-002	1.88050E-003	-1.46656E-004	1.78032E-002	1.66670E-002	-8.36686E-004	-1.16388E-003	2.07167E-002	-1.31716E-003
	18	18	1.10014E+000	3.00177E-002	0.00000E+000	3.30236E-002	2.99696E-001	3.78146E-002	4.40810E+001	11	...........	6.27854E-002	-4.91917E-003	5.92390E-001	5.54380E-001	-2.78522E-002	-3.87164E-002	6.89230E-001	-4.39189E-002	1.88467E-003	-1.47662E-004	1.77822E-002	1.66412E-002	-8.36059E-004	-1.16218E-003	2.06891E-002	-1.31834E-003
	19	19	1.10017E+000	2.99991E-002	0.00000E+000	3.30042E-002	2.99513E-001	3.78905E-002	4.48874E+001	11	...........	6.29414E-002	-5.02222E-003	5.92604E-001	5.54420E-001	-2.78515E-002	-3.86978E-002	6.89263E-001	-4.39499E-002	1.88818E-003	-1.50662E-004	1.77776E-002	1.66321E-002	-8.35520E-004	-1.16090E-003	2.06772E-002	-1.31846E-003
	20	20	1.10022E+000	2.96574E-002	0.00000E+000	3.26295E-002	2.96116E-001	3.75661E-002	4.32568E+001	11	...........	6.25935E-002	-4.99042E-003	5.92593E-001	5.54570E-001	-2.78710E-002	-3.86799E-002	6.89366E-001	-4.39474E-002	1.85636E-003	-1.48003E-004	1.75747E-002	1.64471E-002	-8.26580E-004	-1.14714E-003	2.04448E-002	-1.30336E-003
	21	21	1.10014E+000	2.96191E-002	0.00000E+000	3.25851E-002	2.95737E-001	3.74846E-002	4.36885E+001	11	...........	6.25890E-002	-4.91403E-003	5.92552E-001	5.54624E-001	-2.78779E-002	-3.86632E-002	6.89450E-001	-4.39031E-002	1.85383E-003	-1.45549E-004	1.75508E-002	1.64274E-002	-8.25718E-004	-1.14517E-003	2.04209E-002	-1.30037E-003
	22	22	1.10017E+000	2.96092E-002	0.00000E+000	3.25752E-002	2.95638E-001	3.75058E-002	4.37557E+001	11	...........	6.26222E-002	-4.86917E-003	5.92603E-001	5.54516E-001	-2.78664E-002	-3.86781E-002	6.89346E-001	-4.39515E-002	1.85419E-003	-1.44172E-004	1.75465E-002	1.64188E-002	-8.25101E-004	-1.14523E-003	2.04110E-002	-1.30137E-003
	23	23	1.10022E+000	2.93274E-002	0.00000E+000	3.22664E-002	2.92839E-001	3.73653E-002	4.26196E+001	11	...........	6.23917E-002	-4.99514E-003	5.92426E-001	5.54337E-001	-2.78682E-002	-3.86886E-002	6.89269E-001	-4.38433E-002	1.82978E-003	-1.46494E-004	1.73743E-002	1.62572E-002	-8.17300E-004	-1.13463E-003	2.02144E-002	-1.28581E-003
	24	24	1.10014E+000	2.93220E-002	0.00000E+000	3.22583E-002	2.92783E-001	3.75904E-002	4.41809E+001	11	...........	6.27610E-002	-5.02639E-003	5.92614E-001	5.54343E-001	-2.78775E-002	-3.86981E-002	6.89234E-001	-4.39429E-002	1.84028E-003	-1.47384E-004	1.73766E-002	1.62544E-002	-8.17423E-004	-1.13470E-003	2.02097E-002	-1.28849E-003
	25	25	1.10017E+000	2.93438E-002	0.00000E+000	3.22832E-002	2.93000E-001	3.75614E-002	4.39251E+001	11	...........	6.27069E-002	-5.01250E-003	5.92568E-001	5.54357E-001	-2.78637E-002	-3.86929E-002	6.89162E-001	-4.39289E-002	1.84006E-003	-1.47086E-004	1.73882E-002	1.62670E-002	-8.17630E-004	-1.13540E-003	2.02227E-002	-1.28904E-003
	26	26	1.10022E+000	2.90784E-002	0.00000E+000	3.19925E-002	2.90361E-001	3.73629E-002	4.36591E+001	11	...........	6.23801E-002	-5.02819E-003	5.92378E-001	5.54544E-001	-2.78404E-002	-3.87076E-002	6.89185E-001	-4.38612E-002	1.81391E-003	-1.46212E-004	1.72254E-002	1.61252E-002	-8.09554E-004	-1.12556E-003	2.00404E-002	-1.27541E-003
	27	27	1.10014E+000	2.90362E-002	0.00000E+000	3.19439E-002	2.89948E-001	3.74462E-002	4.33881E+001	11	...........	6.25097E-002	-5.05611E-003	5.92256E-001	5.54446E-001	-2.78197E-002	-3.86864E-002	6.89369E-001	-4.39042E-002	1.81504E-003	-1.46810E-004	1.71969E-002	1.60990E-002	-8.07779E-004	-1.12331E-003	2.00167E-002	-1.27481E-003
	28	28	1.10017E+000	2.90728E-002	0.00000E+000	3.19850E-002	2.90318E-001	3.74682E-002	4.43701E+001	11	...........	6.25382E-002	-4.99181E-003	5.92238E-001	5.54372E-001	-2.78404E-002	-3.86950E-002	6.89539E-001	-4.40290E-002	1.81816E-003	-1.45126E-004	1.72180E-002	1.61171E-002	-8.09399E-004	-1.12497E-003	2.00468E-002	-1.28005E-003
	29	29	1.10022E+000	2.88228E-002	0.00000E+000	3.17113E-002	2.87832E-001	3.73002E-002	4.36455E+001	11	...........	6.22804E-002	-4.86208E-003	5.92275E-001	5.54396E-001	-2.78407E-002	-3.87137E-002	6.89344E-001	-4.39889E-002	1.79510E-003	-1.40139E-004	1.70710E-002	1.59792E-002	-8.02447E-004	-1.11584E-003	1.98688E-002	-1.26788E-003
	30	30	1.10014E+000	2.88024E-002	0.00000E+000	3.16867E-002	2.87631E-001	3.73822E-002	4.31454E+001	11	...........	6.24081E-002	-4.89403E-003	5.92365E-001	5.54595E-001	-2.78331E-002	-3.87067E-002	6.89272E-001	-4.38585E-002	1.79750E-003	-1.40960E-004	1.70615E-002	1.59737E-002	-8.01659E-004	-1.11485E-003	1.98527E-002	-1.26323E-003
	31	31	1.10017E+000	2.88458E-002	0.00000E+000	3.17353E-002	2.88061E-001	3.72993E-002	4.29193E+001	11	...........	6.22792E-002	-4.83694E-003	5.92401E-001	5.54664E-001	-2.78181E-002	-3.87193E-002	6.89256E-001	-4.38176E-002	1.79649E-003	-1.39526E-004	1.70883E-002	1.59997E-002	-8.02435E-004	-1.11689E-003	1.98821E-002	-1.26396E-003
	32	32	1.10022E+000	2.86329E-002	0.00000E+000	3.15024E-002	2.85946E-001	3.73892E-002	4.37262E+001	11	...........	6.24211E-002	-4.90431E-003	5.92389E-001	5.54593E-001	-2.78350E-002	-3.87046E-002	6.89415E-001	-4.38701E-002	1.78729E-003	-1.40424E-004	1.69618E-002	1.58796E-002	-7.96996E-004	-1.10822E-003	1.97399E-002	-1.25613E-003
	33	33	1.10014E+000	2.85793E-002	0.00000E+000	3.14413E-002	2.85414E-001	3.73782E-002	4.39892E+001	11	...........	6.24053E-002	-4.90694E-003	5.92379E-001	5.54530E-001	-2.78132E-002	-3.87215E-002	6.89358E-001	-4.40442E-002	1.78350E-003	-1.40237E-004	1.69298E-002	1.58481E-002	-7.94881E-004	-1.10663E-003	1.97014E-002	-1.25875E-003
	34	34	1.10017E+000	2.86199E-002	0.00000E+000	3.14866E-002	2.85810E-001	3.73492E-002	4.42814E+001	11	...........	6.23569E-002	-4.92042E-003	5.92138E-001	5.54544E-001	-2.78401E-002	-3.87040E-002	6.89251E-001	-4.39651E-002	1.78465E-003	-1.40822E-004	1.69469E-002	1.58710E-002	-7.96781E-004	-1.10770E-003	1.97263E-002	-1.25828E-003
	35	35	1.10022E+000	2.84055E-002	0.00000E+000	3.12523E-002	2.83681E-001	3.72244E-002	4.38257E+001	11	...........	6.21514E-002	-4.92875E-003	5.91964E-001	5.54487E-001	-2.78544E-002	-3.86986E-002	6.89262E-001	-4.39950E-002	1.76544E-003	-1.40003E-004	1.68150E-002	1.57505E-002	-7.91219E-004	-1.09925E-003	1.95788E-002	-1.24970E-003
	36	36	1.10014E+000	2.83586E-002	0.00000E+000	3.11984E-002	2.83212E-001	3.72699E-002	4.33165E+001	11	...........	6.21987E-002	-4.94917E-003	5.91888E-001	5.54483E-001	-2.78517E-002	-3.86937E-002	6.89264E-001	-4.40110E-002	1.76387E-003	-1.40351E-004	1.67851E-002	1.57243E-002	-7.89833E-004	-1.09730E-003	1.95465E-002	-1.24809E-003
	37	37	1.10017E+000	2.84200E-002	0.00000E+000	3.12667E-002	2.83825E-001	3.73018E-002	4.45585E+001	11	...........	6.22786E-002	-4.83972E-003	5.91831E-001	5.54445E-001	-2.78381E-002	-3.86696E-002	6.89361E-001	-4.39046E-002	1.76996E-003	-1.37545E-004	1.68199E-002	1.57573E-002	-7.91158E-004	-1.09899E-003	1.95916E-002	-1.24777E-003
	38	38	1.10022E+000	2.82320E-002	0.00000E+000	3.10614E-002	2.81953E-001	3.71755E-002	4.43333E+001	11	...........	6.20669E-002	-4.85000E-003	5.91766E-001	5.54490E-001	-2.78271E-002	-3.86799E-002	6.89302E-001	-4.38628E-002	1.75227E-003	-1.36925E-004	1.67067E-002	1.56544E-002	-7.85614E-004	-1.09201E-003	1.94604E-002	-1.23833E-003
	39	39	1.10014E+000	2.81521E-002	0.00000E+000	3.09714E-002	2.81157E-001	3.73616E-002	4.37379E+001	11	...........	6.23901E-002	-4.89542E-003	5.91740E-001	5.54379E-001	-2.78276E-002	-3.86961E-002	6.89412E-001	-4.38004E-002	1.75641E-003	-1.37816E-004	1.66587E-002	1.56069E-002	-7.83407E-004	-1.08938E-003	1.94084E-002	-1.23307E-003
	40	40	1.10017E+000	2.82171E-002	0.00000E+000	3.10435E-002	2.81806E-001	3.71498E-002	4.37334E+001	11	...........	6.20376E-002	-4.84986E-003	5.91754E-001	5.54181E-001	-2.78333E-002	-3.86775E-002	6.89520E-001	-4.39062E-002	1.75052E-003	-1.36849E-004	1.66976E-002	1.56374E-002	-7.85377E-004	-1.09137E-003	1.94563E-002	-1.23891E-003
	41	41	1.10022E+000	2.80126E-002	0.00000E+000	3.08199E-002	2.79770E-001	3.72172E-002	4.32227E+001	11	...........	6.21500E-002	-5.04889E-003	5.91638E-001	5.54149E-001	-2.78375E-002	-3.86828E-002	6.89457E-001	-4.38547E-002	1.74098E-003	-1.41432E-004	1.65733E-002	1.55231E-002	-7.79800E-004	-1.08360E-003	1.93135E-002	-1.22848E-003
	42	42	1.10014E+000	2.79594E-002	0.00000E+000	3.07593E-002	2.79240E-001	3.71090E-002	4.36330E+001	11	...........	6.19481E-002	-4.93514E-003	5.91588E-001	5.54175E-001	-2.78410E-002	-3.86718E-002	6.89369E-001	-4.36858E-002	1.73203E-003	-1.37983E-004	1.65404E-002	1.54944E-002	-7.78416E-004	-1.08124E-003	1.92743E-002	-1.22143E-003
	43	43	1.10017E+000	2.79994E-002	0.00000E+000	3.08040E-002	2.79639E-001	3.72375E-002	4.37175E+001	11	...........	6.21764E-002	-5.00694E-003	5.91486E-001	5.54159E-001	-2.78254E-002	-3.86882E-002	6.89298E-001	-4.37644E-002	1.74090E-003	-1.40192E-004	1.65613E-002	1.55161E-002	-7.79095E-004	-1.08325E-003	1.92999E-002	-1.22538E-003
	44	44	1.10022E+000	2.78172E-002	0.00000E+000	3.06050E-002	2.77829E-001	3.70822E-002	4.31408E+001	11	...........	6.19264E-002	-4.90333E-003	5.91482E-001	5.54239E-001	-2.78306E-002	-3.86943E-002	6.89315E-001	-4.38749E-002	1.72262E-003	-1.36397E-004	1.64534E-002	1.54174E-002	-7.74169E-004	-1.07637E-003	1.91748E-002	-1.22048E-003
	45	45	1.10014E+000	2.77680E-002	0.00000E+000	3.05488E-002	2.77341E-001	3.71352E-002	4.36001E+001	11	...........	6.20035E-002	-4.85847E-003	5.91597E-001	5.54256E-001	-2.78417E-002	-3.86806E-002	6.89397E-001	-4.39528E-002	1.72171E-003	-1.34910E-004	1.64275E-002	1.53906E-002	-7.73108E-004	-1.07408E-003	1.91432E-002	-1.22048E-003
	46	46	1.10016E+000	2.78249E-002	0.00000E+000	3.06120E-002	2.77909E-001	3.72708E-002	4.43832E+001	11	...........	6.22135E-002	-4.90972E-003	5.91554E-001	5.54434E-001	-2.78162E-002	-3.86762E-002	6.89364E-001	-4.40500E-002	1.73108E-003	-1.36613E-004	1.64599E-002	1.54271E-002	-7.73985E-004	-1.07616E-003	1.91815E-002	-1.22569E-003
	47	47	1.10022E+000	2.76504E-002	0.00000E+000	3.04214E-002	2.76170E-001	3.70227E-002	4.27716E+001	11	...........	6.18154E-002	-4.90389E-003	5.91515E-001	5.54388E-001	-2.78022E-002	-3.86979E-002	6.89466E-001	-4.39944E-002	1.70922E-003	-1.35594E-004	1.63556E-002	1.53290E-002	-7.68742E-004	-1.07001E-003	1.90640E-002	-1.21646E-003
	48	48	1.10014E+000	2.75899E-002	0.00000E+000	3.03528E-002	2.75568E-001	3.72551E-002	4.44646E+001	11	...........	6.22092E-002	-4.88958E-003	5.91577E-001	5.54449E-001	-2.78058E-002	-3.87361E-002	6.89426E-001	-4.39899E-002	1.71634E-003	-1.34903E-004	1.63215E-002	1.52972E-002	-7.67159E-004	-1.06872E-003	1.90212E-002	-1.21367E-003
	49	48.3133	1.10028E+000	2.77568E-002	0.00000E+000	3.05403E-002	2.77230E-001	3.71186E-002	4.25849E+001	11	...........	6.19792E-002	-4.92863E-003	5.91608E-001	5.54410E-001	-2.78094E-002	-3.87642E-002	6.89472E-001	-4.40058E-002	1.72034E-003	-1.36803E-004	1.64211E-002	1.53887E-002	-7.71899E-004	-1.07597E-003	1.91375E-002	-1.22146E-003
STARTTIMEOFFSET	QUANT	938949.8	Start Time Offset (s)
