EXPLAIN
TAG	PWR800_CHARGE
TITLE	LABEL	PWR Charge	Test Identifier
DATE	LABEL	10/15/2022	Date
TIME	LABEL	5:09:24	Time
NOTES	NOTES	1	Notes...
	
PSTAT	PSTAT	REF3000-21114	Potentiostat
CAPACITY	QUANT	5.30000E-002	Capacity (A-hr)
CELLTYPE	SELECTOR	1	Cell Type
WORKINGCONNECTION	SELECTOR	0	Working Connection
MAXCHARGETIME	VARIABLEANDUNITS	7.20000E+003	s	2.00000E+000	hour(s)	Max Charge Time
CHARGEMODE	MULTIPARAM	0	1.00000E-001	Charge Mode	Constant Current	Amp(s)
CHARGECURRENT	QUANT	0.1	Charge Current (A)
VOLTAGEFINISH	TWOPARAM	T	2.50000E-002	7.20000E+003	Voltage Finish	I (A) <	Max Time(s)
SAMPLETIME	QUANT	1.00000E+000	Sample Period (s)
CHARGESTOPAT1	MULTIPARAM	2	1.10000E+000	Stop At 1	|Voltage| > Limit	V
CHARGESTOPAT2	MULTIPARAM	0	0.00000E+000	Stop At 2	None	N/A
AESELECTOR	AESELECTOR	0x1	T	Set Limits	AE Channels
AESBHCSELECTOR	TOGGLE	F	Save Both Half Cells
IRCOMP	TOGGLE	F	IR Measure
EOC	QUANT	0.2722291	Open Circuit (V)
SEQUENCER	TOGGLE	TRUE	Run as Sequence
PSTATMODEL	IQUANT	5	Pstat Model
PSTATSECTION	LABEL	REF3000-21114	Pstat Section
PSTATSERIALNO	LABEL	21114	Pstat Serial Number
CTRLMODE	IQUANT	0	Control Mode
ELECTROMETER	IQUANT	0	RE=0 or CS=1
IESTAB	IQUANT	0	I/E Stability
CASPEED	IQUANT	4	Control Amp Speed
CONVENTION	IQUANT	1	Current Convention
ICHRANGE	IQUANT	2	Ich Range
ICHRANGEMODE	TOGGLE	T	Ich Auto Range
ICHOFFSETENABLE	TOGGLE	F	Ich Offset Enable
ICHOFFSET	QUANT	0	Ich Offset (V)
ICHFILTER	IQUANT	1	Ich Filter
VCHRANGE	IQUANT	3	Vch Range
VCHRANGEMODE	TOGGLE	T	Vch Auto Range
VCHOFFSETENABLE	TOGGLE	F	Vch Offset Enable
VCHOFFSET	QUANT	0	Vch Offset (V)
VCHFILTER	IQUANT	1	Vch Filter
ACHRANGE	IQUANT	2	Ach Range
ACHOFFSETENABLE	TOGGLE	F	Ach Offset Enable
ACHOFFSET	QUANT	0	Ach Offset (V)
ACHFILTER	IQUANT	1	Ach Filter
IERANGELOWERLIMIT	IQUANT	9	I/E Range Lower Limit
IERANGEMODE	TOGGLE	F	I/E AutoRange
IERANGE	IQUANT	9	I/E Range
POSFEEDENABLE	TOGGLE	F	Positive Feedback IR Comp
POSFEEDRESISTANCE	QUANT	0	Positive Feedback Resistance (ohm)
ACHSELECT	IQUANT	1	Ach Select
SENSECABLEID	IQUANT	13	Sense Cable ID
PWRCABLEID	IQUANT	13	Power Cable ID
DCCALDATE	LABEL		DC Calibration Date
ACCALDATE	LABEL		AC Calibration Date
THERMOSELECT	IQUANT	1	Thermo Select
FRAMEWORKVERSION	LABEL	7.8.6	Framework Version
INSTRUMENTVERSION	LABEL	4.50	Instrument Version
COMPLIANCEVOLTAGE	IQUANT	0	Compliance Voltage
CURVE	TABLE	164
	Pt	T	Vf	Im	Vu	Pwr	Sig	Ach	Temp	IERange	Over	Vf1	Vf2	Vf3	Vf4	Vf5	Vf6	Vf7	Vf8	Pwr1	Pwr2	Pwr3	Pwr4	Pwr5	Pwr6	Pwr7	Pwr8
	#	s	V	A	V	W	V	V	deg C	#	bits	V	V	V	V	V	V	V	V	W	W	W	W	W	W	W	W
	0	1	5.48742E-001	9.98565E-002	0.00000E+000	5.47954E-002	9.94000E-001	4.05873E-002	4.13616E+001	11	...........	6.74114E-002	-4.73958E-003	5.94687E-001	5.87987E-001	-2.80161E-002	-3.80908E-002	6.90565E-001	-4.26656E-002	6.73146E-003	-4.73278E-004	5.93833E-002	5.87144E-002	-2.79759E-003	-3.80362E-003	6.89574E-002	-4.26043E-003
	1	2	7.10452E-001	9.98564E-002	0.00000E+000	7.09432E-002	9.94000E-001	4.07530E-002	4.26467E+001	11	...........	6.77194E-002	-4.78500E-003	5.94814E-001	5.87924E-001	-2.80072E-002	-3.80893E-002	6.90444E-001	-4.26668E-002	6.76222E-003	-4.77813E-004	5.93959E-002	5.87080E-002	-2.79670E-003	-3.80346E-003	6.89453E-002	-4.26055E-003
	2	2.605	9.56987E-001	9.98573E-002	0.00000E+000	9.55621E-002	9.94000E-001	4.15295E-002	4.84060E+001	11	...........	6.89851E-002	-4.92860E-003	5.94945E-001	5.87894E-001	-2.80243E-002	-3.81017E-002	6.90417E-001	-4.26770E-002	6.88866E-003	-4.92157E-004	5.94096E-002	5.87055E-002	-2.79843E-003	-3.80473E-003	6.89432E-002	-4.26161E-003
	3	3	1.10143E+000	7.81918E-002	0.00000E+000	8.61230E-002	7.78549E-001	4.16133E-002	5.04040E+001	11	...........	6.91470E-002	-5.11111E-003	5.95046E-001	5.87805E-001	-2.80890E-002	-3.80548E-002	6.90473E-001	-4.26849E-002	5.40673E-003	-3.99647E-004	4.65277E-002	4.59616E-002	-2.19633E-003	-2.97558E-003	5.39894E-002	-3.33761E-003
	4	4	1.10054E+000	5.81455E-002	0.00000E+000	6.39912E-002	5.79215E-001	4.09739E-002	4.91406E+001	11	...........	6.80429E-002	-4.90750E-003	5.94996E-001	5.87732E-001	-2.80314E-002	-3.80421E-002	6.90427E-001	-4.26868E-002	3.95639E-003	-2.85349E-004	3.45963E-002	3.41740E-002	-1.62990E-003	-2.21198E-003	4.01452E-002	-2.48204E-003
	5	5	1.10051E+000	5.02179E-002	0.00000E+000	5.52654E-002	5.00386E-001	4.12982E-002	4.77234E+001	11	...........	6.86028E-002	-4.74847E-003	5.94918E-001	5.87771E-001	-2.80415E-002	-3.80687E-002	6.90431E-001	-4.27161E-002	3.44509E-003	-2.38458E-004	2.98755E-002	2.95166E-002	-1.40819E-003	-1.91173E-003	3.46720E-002	-2.14511E-003
	6	6	1.10044E+000	4.65852E-002	0.00000E+000	5.12640E-002	4.64271E-001	4.09833E-002	4.80282E+001	11	...........	6.80706E-002	-4.74958E-003	5.94785E-001	5.87928E-001	-2.80456E-002	-3.80617E-002	6.90298E-001	-4.26699E-002	3.17108E-003	-2.21260E-004	2.77082E-002	2.73887E-002	-1.30651E-003	-1.77311E-003	3.21576E-002	-1.98778E-003
	7	7	1.10037E+000	4.50060E-002	0.00000E+000	4.95234E-002	4.48568E-001	4.10726E-002	4.91972E+001	11	...........	6.81942E-002	-4.64972E-003	5.94791E-001	5.87906E-001	-2.80379E-002	-3.80361E-002	6.90202E-001	-4.27032E-002	3.06915E-003	-2.09266E-004	2.67692E-002	2.64593E-002	-1.26188E-003	-1.71185E-003	3.10632E-002	-1.92190E-003
	8	8	1.10046E+000	4.38949E-002	0.00000E+000	4.83047E-002	4.37519E-001	4.11393E-002	4.71716E+001	11	...........	6.83168E-002	-4.63972E-003	5.94667E-001	5.87867E-001	-2.79700E-002	-3.80217E-002	6.90305E-001	-4.27310E-002	2.99876E-003	-2.03660E-004	2.61029E-002	2.58043E-002	-1.22774E-003	-1.66896E-003	3.03008E-002	-1.87567E-003
	9	9	1.10042E+000	4.26804E-002	0.00000E+000	4.69665E-002	4.25444E-001	4.08132E-002	4.82422E+001	11	...........	6.83353E-002	-4.58681E-003	5.94765E-001	5.87921E-001	-2.79187E-002	-3.80374E-002	6.90134E-001	-4.26892E-002	2.91658E-003	-1.95767E-004	2.53848E-002	2.50927E-002	-1.19158E-003	-1.62345E-003	2.94552E-002	-1.82199E-003
	10	10	1.10036E+000	4.23895E-002	0.00000E+000	4.66438E-002	4.22546E-001	4.11085E-002	4.70579E+001	11	...........	6.82596E-002	-4.63042E-003	5.94668E-001	5.87927E-001	-2.78615E-002	-3.80358E-002	6.90244E-001	-4.26662E-002	2.89349E-003	-1.96281E-004	2.52077E-002	2.49219E-002	-1.18104E-003	-1.61232E-003	2.92591E-002	-1.80860E-003
	11	11	1.10045E+000	4.19890E-002	0.00000E+000	4.62067E-002	4.18570E-001	4.10516E-002	4.76217E+001	11	...........	6.81868E-002	-4.64194E-003	5.94473E-001	5.87918E-001	-2.78774E-002	-3.80233E-002	6.90250E-001	-4.26744E-002	2.86310E-003	-1.94911E-004	2.49613E-002	2.46861E-002	-1.17054E-003	-1.59656E-003	2.89829E-002	-1.79186E-003
	12	12	1.10042E+000	4.13249E-002	0.00000E+000	4.54749E-002	4.11967E-001	4.10275E-002	4.69155E+001	11	...........	6.81239E-002	-4.61250E-003	5.94585E-001	5.88049E-001	-2.79142E-002	-3.79929E-002	6.90090E-001	-4.26987E-002	2.81521E-003	-1.90611E-004	2.45711E-002	2.43010E-002	-1.15355E-003	-1.57005E-003	2.85179E-002	-1.76452E-003
	13	13	1.10036E+000	4.12871E-002	0.00000E+000	4.54306E-002	4.11590E-001	4.09299E-002	4.80923E+001	11	...........	6.79708E-002	-4.59778E-003	5.94730E-001	5.88069E-001	-2.79217E-002	-3.79668E-002	6.90197E-001	-4.26871E-002	2.80632E-003	-1.89829E-004	2.45547E-002	2.42797E-002	-1.15281E-003	-1.56754E-003	2.84962E-002	-1.76243E-003
	14	14	1.10044E+000	4.11410E-002	0.00000E+000	4.52733E-002	4.10139E-001	4.11235E-002	4.85992E+001	11	...........	6.82917E-002	-4.70333E-003	5.94775E-001	5.88023E-001	-2.78975E-002	-3.79667E-002	6.90265E-001	-4.26792E-002	2.80959E-003	-1.93500E-004	2.44697E-002	2.41919E-002	-1.14773E-003	-1.56199E-003	2.83982E-002	-1.75586E-003
	15	15	1.10043E+000	4.05942E-002	0.00000E+000	4.46710E-002	4.04702E-001	4.09791E-002	4.81721E+001	11	...........	6.80628E-002	-4.69431E-003	5.94652E-001	5.88059E-001	-2.78601E-002	-3.79539E-002	6.90327E-001	-4.27090E-002	2.76295E-003	-1.90561E-004	2.41394E-002	2.38718E-002	-1.13096E-003	-1.54071E-003	2.80232E-002	-1.73374E-003
	16	16	1.10036E+000	4.06058E-002	0.00000E+000	4.46808E-002	4.04816E-001	4.07089E-002	4.49525E+001	11	...........	6.76081E-002	-4.66444E-003	5.94606E-001	5.88241E-001	-2.79253E-002	-3.79756E-002	6.90292E-001	-4.27204E-002	2.74528E-003	-1.89403E-004	2.41444E-002	2.38860E-002	-1.13393E-003	-1.54203E-003	2.80298E-002	-1.73470E-003
	17	17	1.10044E+000	4.06057E-002	0.00000E+000	4.46841E-002	4.04815E-001	4.11004E-002	4.75358E+001	11	...........	6.82594E-002	-4.57181E-003	5.94455E-001	5.88265E-001	-2.79981E-002	-3.80001E-002	6.90224E-001	-4.27046E-002	2.77172E-003	-1.85641E-004	2.41383E-002	2.38869E-002	-1.13688E-003	-1.54302E-003	2.80271E-002	-1.73405E-003
	18	18	1.10043E+000	4.00878E-002	0.00000E+000	4.41138E-002	3.99667E-001	4.10121E-002	4.85944E+001	11	...........	6.80940E-002	-4.55694E-003	5.94458E-001	5.88150E-001	-2.78997E-002	-3.80071E-002	6.90265E-001	-4.26818E-002	2.72974E-003	-1.82678E-004	2.38305E-002	2.35777E-002	-1.11844E-003	-1.52362E-003	2.76712E-002	-1.71102E-003
	19	19	1.10036E+000	4.01211E-002	0.00000E+000	4.41476E-002	3.99995E-001	4.08507E-002	4.68400E+001	11	...........	6.78163E-002	-4.55792E-003	5.94367E-001	5.88113E-001	-2.78415E-002	-3.80153E-002	6.90194E-001	-4.26918E-002	2.72086E-003	-1.82869E-004	2.38467E-002	2.35957E-002	-1.11703E-003	-1.52522E-003	2.76914E-002	-1.71284E-003
	20	20	1.10043E+000	4.01134E-002	0.00000E+000	4.41421E-002	3.99919E-001	4.07330E-002	4.80311E+001	11	...........	6.78751E-002	-4.50264E-003	5.94478E-001	5.88085E-001	-2.79204E-002	-3.80104E-002	6.90112E-001	-4.26756E-002	2.72270E-003	-1.80616E-004	2.38466E-002	2.35901E-002	-1.11998E-003	-1.52473E-003	2.76828E-002	-1.71186E-003
	21	21	1.10044E+000	3.96562E-002	0.00000E+000	4.36391E-002	3.95376E-001	4.05650E-002	4.60896E+001	11	...........	6.77329E-002	-4.55097E-003	5.94591E-001	5.88141E-001	-2.79012E-002	-3.79871E-002	6.90140E-001	-4.26743E-002	2.68603E-003	-1.80474E-004	2.35792E-002	2.33234E-002	-1.10646E-003	-1.50642E-003	2.73683E-002	-1.69230E-003
	22	22	1.10035E+000	3.97121E-002	0.00000E+000	4.36973E-002	3.95934E-001	4.04381E-002	4.78429E+001	11	...........	6.75201E-002	-4.57153E-003	5.94668E-001	5.88264E-001	-2.78568E-002	-3.79947E-002	6.90281E-001	-4.26792E-002	2.68137E-003	-1.81545E-004	2.36155E-002	2.33612E-002	-1.10625E-003	-1.50885E-003	2.74125E-002	-1.69488E-003
	23	23	1.10043E+000	3.97245E-002	0.00000E+000	4.37140E-002	3.96056E-001	4.06401E-002	4.65496E+001	11	...........	6.78612E-002	-4.56056E-003	5.94767E-001	5.88187E-001	-2.79586E-002	-3.80206E-002	6.90223E-001	-4.26857E-002	2.69575E-003	-1.81166E-004	2.36268E-002	2.33654E-002	-1.11064E-003	-1.51035E-003	2.74187E-002	-1.69567E-003
	24	24	1.10044E+000	3.93239E-002	0.00000E+000	4.32736E-002	3.92073E-001	4.05933E-002	4.80742E+001	11	...........	6.77879E-002	-4.52278E-003	5.94605E-001	5.88151E-001	-2.80425E-002	-3.80175E-002	6.90290E-001	-4.26696E-002	2.66568E-003	-1.77853E-004	2.33822E-002	2.31284E-002	-1.10274E-003	-1.49500E-003	2.71449E-002	-1.67793E-003
	25	25	1.10035E+000	3.93628E-002	0.00000E+000	4.33129E-002	3.92459E-001	4.04197E-002	4.74214E+001	11	...........	6.74862E-002	-4.56000E-003	5.94731E-001	5.88214E-001	-2.80069E-002	-3.80117E-002	6.90301E-001	-4.26736E-002	2.65645E-003	-1.79494E-004	2.34103E-002	2.31537E-002	-1.10243E-003	-1.49624E-003	2.71722E-002	-1.67975E-003
	26	26	1.10042E+000	3.93689E-002	0.00000E+000	4.33225E-002	3.92524E-001	4.03701E-002	4.66041E+001	11	...........	6.73890E-002	-4.49653E-003	5.94540E-001	5.88305E-001	-2.79021E-002	-3.79925E-002	6.90346E-001	-4.26782E-002	2.65303E-003	-1.77023E-004	2.34064E-002	2.31609E-002	-1.09847E-003	-1.49572E-003	2.71782E-002	-1.68019E-003
	27	27	1.10045E+000	3.89729E-002	0.00000E+000	4.28876E-002	3.88577E-001	4.04902E-002	4.62317E+001	11	...........	6.76076E-002	-4.50792E-003	5.94453E-001	5.88227E-001	-2.78547E-002	-3.79906E-002	6.90127E-001	-4.27160E-002	2.63486E-003	-1.75686E-004	2.31675E-002	2.29249E-002	-1.08558E-003	-1.48060E-003	2.68962E-002	-1.66476E-003
	28	28	1.10035E+000	3.90591E-002	0.00000E+000	4.29787E-002	3.89440E-001	4.05663E-002	4.83396E+001	11	...........	6.77279E-002	-4.41083E-003	5.94463E-001	5.88218E-001	-2.78657E-002	-3.79762E-002	6.90100E-001	-4.27310E-002	2.64539E-003	-1.72283E-004	2.32192E-002	2.29753E-002	-1.08841E-003	-1.48332E-003	2.69547E-002	-1.66903E-003
	29	29	1.10042E+000	3.90916E-002	0.00000E+000	4.30173E-002	3.89763E-001	4.04423E-002	4.80334E+001	11	...........	6.75239E-002	-4.43264E-003	5.94611E-001	5.88350E-001	-2.79004E-002	-3.79875E-002	6.90181E-001	-4.27046E-002	2.63962E-003	-1.73279E-004	2.32443E-002	2.29995E-002	-1.09067E-003	-1.48499E-003	2.69803E-002	-1.66939E-003
	30	30	1.10045E+000	3.85845E-002	0.00000E+000	4.24603E-002	3.84721E-001	4.01781E-002	4.52246E+001	11	...........	6.70803E-002	-4.55667E-003	5.94447E-001	5.88483E-001	-2.79419E-002	-3.80022E-002	6.90261E-001	-4.26947E-002	2.58826E-003	-1.75817E-004	2.29364E-002	2.27063E-002	-1.07813E-003	-1.46630E-003	2.66334E-002	-1.64735E-003
	31	31	1.10035E+000	3.87175E-002	0.00000E+000	4.26028E-002	3.86044E-001	4.04703E-002	4.63735E+001	11	...........	6.75674E-002	-4.54556E-003	5.94584E-001	5.88585E-001	-2.80067E-002	-3.79703E-002	6.90349E-001	-4.26732E-002	2.61604E-003	-1.75992E-004	2.30208E-002	2.27885E-002	-1.08435E-003	-1.47011E-003	2.67286E-002	-1.65220E-003
	32	32	1.10042E+000	3.87840E-002	0.00000E+000	4.26785E-002	3.86702E-001	4.04315E-002	4.84115E+001	11	...........	6.75024E-002	-4.52792E-003	5.94617E-001	5.88672E-001	-2.81121E-002	-3.79650E-002	6.90355E-001	-4.26817E-002	2.61801E-003	-1.75611E-004	2.30616E-002	2.28311E-002	-1.09030E-003	-1.47243E-003	2.67747E-002	-1.65537E-003
	33	33	1.10045E+000	3.83324E-002	0.00000E+000	4.21830E-002	3.82210E-001	4.02943E-002	4.69736E+001	11	...........	6.72718E-002	-4.55347E-003	5.94493E-001	5.88591E-001	-2.81636E-002	-3.79578E-002	6.90353E-001	-4.26833E-002	2.57869E-003	-1.74545E-004	2.27883E-002	2.25621E-002	-1.07958E-003	-1.45501E-003	2.64629E-002	-1.63615E-003
	34	34	1.10035E+000	3.84101E-002	0.00000E+000	4.22646E-002	3.82987E-001	4.02147E-002	4.77505E+001	11	...........	6.71322E-002	-4.51514E-003	5.94308E-001	5.88882E-001	-2.81275E-002	-3.79418E-002	6.90506E-001	-4.27007E-002	2.57856E-003	-1.73427E-004	2.28275E-002	2.26191E-002	-1.08038E-003	-1.45735E-003	2.65224E-002	-1.64014E-003
	35	35	1.10042E+000	3.84520E-002	0.00000E+000	4.23132E-002	3.83403E-001	4.03805E-002	4.59630E+001	11	...........	6.74171E-002	-4.57653E-003	5.94332E-001	5.88953E-001	-2.80411E-002	-3.79189E-002	6.90577E-001	-4.27069E-002	2.59232E-003	-1.75977E-004	2.28532E-002	2.26464E-002	-1.07824E-003	-1.45806E-003	2.65540E-002	-1.64217E-003
	36	36	1.10046E+000	3.80208E-002	0.00000E+000	4.18403E-002	3.79121E-001	4.00426E-002	4.66571E+001	11	...........	6.68604E-002	-4.47639E-003	5.94244E-001	5.89204E-001	-2.79412E-002	-3.79201E-002	6.90409E-001	-4.27275E-002	2.54209E-003	-1.70196E-004	2.25936E-002	2.24020E-002	-1.06235E-003	-1.44175E-003	2.62499E-002	-1.62453E-003
	37	37	1.10035E+000	3.81229E-002	0.00000E+000	4.19485E-002	3.80133E-001	4.02769E-002	4.69808E+001	11	...........	6.72565E-002	-4.54583E-003	5.94231E-001	5.89290E-001	-2.79272E-002	-3.79207E-002	6.90495E-001	-4.26907E-002	2.56402E-003	-1.73300E-004	2.26538E-002	2.24654E-002	-1.06467E-003	-1.44565E-003	2.63237E-002	-1.62749E-003
	38	38	1.10041E+000	3.81895E-002	0.00000E+000	4.20243E-002	3.80797E-001	4.03831E-002	4.80813E+001	11	...........	6.74275E-002	-4.64264E-003	5.94162E-001	5.89234E-001	-2.79583E-002	-3.79486E-002	6.90475E-001	-4.27178E-002	2.57502E-003	-1.77300E-004	2.26908E-002	2.25026E-002	-1.06771E-003	-1.44924E-003	2.63689E-002	-1.63137E-003
	39	39	1.10046E+000	3.77681E-002	0.00000E+000	4.15623E-002	3.76608E-001	4.02035E-002	4.66756E+001	11	...........	6.71261E-002	-4.60639E-003	5.94084E-001	5.89126E-001	-2.79674E-002	-3.79808E-002	6.90456E-001	-4.26926E-002	2.53523E-003	-1.73975E-004	2.24374E-002	2.22502E-002	-1.05627E-003	-1.43446E-003	2.60772E-002	-1.61242E-003
	40	40	1.10035E+000	3.78013E-002	0.00000E+000	4.15946E-002	3.76938E-001	4.00746E-002	4.77372E+001	11	...........	6.69212E-002	-4.53500E-003	5.94042E-001	5.88997E-001	-2.79668E-002	-3.80018E-002	6.90278E-001	-4.26994E-002	2.52971E-003	-1.71429E-004	2.24556E-002	2.22648E-002	-1.05718E-003	-1.43652E-003	2.60934E-002	-1.61410E-003
	41	41	1.10041E+000	3.78755E-002	0.00000E+000	4.16786E-002	3.77677E-001	4.01237E-002	4.52739E+001	11	...........	6.69887E-002	-4.43958E-003	5.94026E-001	5.89088E-001	-2.79669E-002	-3.80212E-002	6.90440E-001	-4.27121E-002	2.53723E-003	-1.68151E-004	2.24990E-002	2.23120E-002	-1.05926E-003	-1.44007E-003	2.61507E-002	-1.61774E-003
	42	42	1.10046E+000	3.75243E-002	0.00000E+000	4.12941E-002	3.74184E-001	4.01877E-002	4.75247E+001	11	...........	6.70997E-002	-4.52792E-003	5.93966E-001	5.88938E-001	-2.79762E-002	-3.80414E-002	6.90557E-001	-4.26982E-002	2.51787E-003	-1.69907E-004	2.22882E-002	2.20995E-002	-1.04979E-003	-1.42748E-003	2.59127E-002	-1.60222E-003
	43	43	1.10035E+000	3.75430E-002	0.00000E+000	4.13103E-002	3.74367E-001	4.01453E-002	4.70631E+001	11	...........	6.69907E-002	-4.57472E-003	5.93982E-001	5.89177E-001	-2.79774E-002	-3.80546E-002	6.90621E-001	-4.26892E-002	2.51503E-003	-1.71749E-004	2.22999E-002	2.21195E-002	-1.05035E-003	-1.42868E-003	2.59280E-002	-1.60268E-003
	44	44	1.10041E+000	3.76035E-002	0.00000E+000	4.13792E-002	3.74969E-001	4.00771E-002	4.65423E+001	11	...........	6.69147E-002	-4.55444E-003	5.93963E-001	5.89300E-001	-2.79785E-002	-3.80504E-002	6.90610E-001	-4.27342E-002	2.51623E-003	-1.71263E-004	2.23351E-002	2.21597E-002	-1.05209E-003	-1.43083E-003	2.59693E-002	-1.60695E-003
	45	45	1.10047E+000	3.72166E-002	0.00000E+000	4.09557E-002	3.71119E-001	4.02515E-002	4.76494E+001	11	...........	6.72168E-002	-4.54444E-003	5.94050E-001	5.89220E-001	-2.79772E-002	-3.80268E-002	6.90577E-001	-4.26846E-002	2.50158E-003	-1.69129E-004	2.21085E-002	2.19288E-002	-1.04122E-003	-1.41523E-003	2.57010E-002	-1.58858E-003
	46	46	1.10035E+000	3.71952E-002	0.00000E+000	4.09277E-002	3.70910E-001	3.99072E-002	4.44880E+001	11	...........	6.66293E-002	-4.53472E-003	5.94105E-001	5.89163E-001	-2.79676E-002	-3.80372E-002	6.90648E-001	-4.27096E-002	2.47829E-003	-1.68670E-004	2.20979E-002	2.19140E-002	-1.04026E-003	-1.41480E-003	2.56888E-002	-1.58859E-003
	47	47	1.10041E+000	3.73254E-002	0.00000E+000	4.10731E-002	3.72203E-001	4.01366E-002	4.71865E+001	11	...........	6.70169E-002	-4.49736E-003	5.94189E-001	5.89101E-001	-2.79650E-002	-3.80197E-002	6.90579E-001	-4.26947E-002	2.50143E-003	-1.67866E-004	2.21783E-002	2.19884E-002	-1.04380E-003	-1.41910E-003	2.57761E-002	-1.59360E-003
	48	48	1.10047E+000	3.69430E-002	0.00000E+000	4.06546E-002	3.68403E-001	4.01016E-002	4.64069E+001	11	...........	6.69478E-002	-4.49986E-003	5.94058E-001	5.89091E-001	-2.79525E-002	-3.80256E-002	6.90502E-001	-4.27881E-002	2.47325E-003	-1.66238E-004	2.19463E-002	2.17628E-002	-1.03265E-003	-1.40478E-003	2.55092E-002	-1.58072E-003
	49	49	1.10035E+000	3.69622E-002	0.00000E+000	4.06713E-002	3.68595E-001	3.99741E-002	4.75195E+001	11	...........	6.67404E-002	-4.41028E-003	5.93930E-001	5.89059E-001	-2.79446E-002	-3.80221E-002	6.90399E-001	-4.27424E-002	2.46688E-003	-1.63014E-004	2.19530E-002	2.17729E-002	-1.03289E-003	-1.40538E-003	2.55187E-002	-1.57985E-003
	50	50	1.10041E+000	3.70609E-002	0.00000E+000	4.07820E-002	3.69574E-001	4.01800E-002	4.54153E+001	11	...........	6.70653E-002	-4.46986E-003	5.93881E-001	5.89088E-001	-2.79183E-002	-3.80232E-002	6.90483E-001	-4.26728E-002	2.48550E-003	-1.65657E-004	2.20098E-002	2.18321E-002	-1.03468E-003	-1.40917E-003	2.55899E-002	-1.58149E-003
	51	51	1.10047E+000	3.66379E-002	0.00000E+000	4.03189E-002	3.65368E-001	3.98516E-002	4.68300E+001	11	...........	6.65236E-002	-4.44694E-003	5.93818E-001	5.89173E-001	-2.79135E-002	-3.80299E-002	6.90467E-001	-4.26832E-002	2.43729E-003	-1.62927E-004	2.17563E-002	2.15860E-002	-1.02269E-003	-1.39333E-003	2.52973E-002	-1.56382E-003
	52	52	1.10035E+000	3.67224E-002	0.00000E+000	4.04074E-002	3.66210E-001	4.00698E-002	4.76512E+001	11	...........	6.68897E-002	-4.52222E-003	5.93900E-001	5.89249E-001	-2.79136E-002	-3.80411E-002	6.90525E-001	-4.27294E-002	2.45635E-003	-1.66067E-004	2.18094E-002	2.16386E-002	-1.02505E-003	-1.39696E-003	2.53577E-002	-1.56913E-003
	53	53	1.10040E+000	3.67789E-002	0.00000E+000	4.04716E-002	3.66768E-001	3.98942E-002	4.67940E+001	11	...........	6.66097E-002	-4.52861E-003	5.93916E-001	5.89281E-001	-2.78990E-002	-3.80103E-002	6.90534E-001	-4.27021E-002	2.44983E-003	-1.66557E-004	2.18436E-002	2.16731E-002	-1.02610E-003	-1.39798E-003	2.53971E-002	-1.57054E-003
	54	54	1.10047E+000	3.64069E-002	0.00000E+000	4.00648E-002	3.63070E-001	4.01118E-002	4.76396E+001	11	...........	6.69725E-002	-4.56083E-003	5.93930E-001	5.89143E-001	-2.79206E-002	-3.80087E-002	6.90412E-001	-4.26978E-002	2.43826E-003	-1.66046E-004	2.16231E-002	2.14488E-002	-1.01650E-003	-1.38378E-003	2.51357E-002	-1.55449E-003
	55	55	1.10035E+000	3.64072E-002	0.00000E+000	4.00606E-002	3.63074E-001	3.97634E-002	4.50023E+001	11	...........	6.63772E-002	-4.52417E-003	5.93957E-001	5.89073E-001	-2.79256E-002	-3.79994E-002	6.90377E-001	-4.28531E-002	2.41661E-003	-1.64712E-004	2.16243E-002	2.14465E-002	-1.01669E-003	-1.38345E-003	2.51347E-002	-1.56016E-003
	56	56	1.10040E+000	3.65457E-002	0.00000E+000	4.02149E-002	3.64452E-001	3.98421E-002	4.69352E+001	11	...........	6.65317E-002	-4.41681E-003	5.93994E-001	5.89057E-001	-2.79361E-002	-3.79840E-002	6.90456E-001	-4.26933E-002	2.43145E-003	-1.61415E-004	2.17079E-002	2.15275E-002	-1.02095E-003	-1.38815E-003	2.52332E-002	-1.56026E-003
	57	57	1.10048E+000	3.61913E-002	0.00000E+000	3.98276E-002	3.60929E-001	4.00927E-002	4.79386E+001	11	...........	6.69625E-002	-4.56097E-003	5.94146E-001	5.88999E-001	-2.79554E-002	-3.79860E-002	6.90404E-001	-4.26874E-002	2.42346E-003	-1.65068E-004	2.15029E-002	2.13166E-002	-1.01174E-003	-1.37476E-003	2.49866E-002	-1.54491E-003
	58	58	1.10035E+000	3.61384E-002	0.00000E+000	3.97648E-002	3.60399E-001	3.97663E-002	4.67724E+001	11	...........	6.63824E-002	-4.48597E-003	5.94054E-001	5.88861E-001	-2.79587E-002	-3.79844E-002	6.90349E-001	-4.26896E-002	2.39895E-003	-1.62116E-004	2.14682E-002	2.12805E-002	-1.01038E-003	-1.37270E-003	2.49481E-002	-1.54273E-003
	59	59	1.10040E+000	3.62745E-002	0.00000E+000	3.99164E-002	3.61755E-001	4.00187E-002	4.74518E+001	11	...........	6.68089E-002	-4.48306E-003	5.93950E-001	5.88659E-001	-2.79628E-002	-3.79661E-002	6.90257E-001	-4.27081E-002	2.42346E-003	-1.62621E-004	2.15452E-002	2.13533E-002	-1.01434E-003	-1.37720E-003	2.50387E-002	-1.54921E-003
	60	60	1.10048E+000	3.59351E-002	0.00000E+000	3.95457E-002	3.58378E-001	3.98198E-002	4.74665E+001	11	...........	6.64682E-002	-4.52944E-003	5.93896E-001	5.88796E-001	-2.79507E-002	-3.79757E-002	6.90217E-001	-4.28142E-002	2.38854E-003	-1.62766E-004	2.13417E-002	2.11584E-002	-1.00441E-003	-1.36466E-003	2.48030E-002	-1.53853E-003
	61	61	1.10035E+000	3.58858E-002	0.00000E+000	3.94869E-002	3.57891E-001	3.98314E-002	4.73316E+001	11	...........	6.65067E-002	-4.56264E-003	5.93731E-001	5.88957E-001	-2.79401E-002	-3.80115E-002	6.90234E-001	-4.28058E-002	2.38665E-003	-1.63734E-004	2.13065E-002	2.11352E-002	-1.00266E-003	-1.36408E-003	2.47696E-002	-1.53612E-003
	62	62	1.10040E+000	3.60219E-002	0.00000E+000	3.96384E-002	3.59242E-001	3.98302E-002	4.79263E+001	11	...........	6.65224E-002	-4.51903E-003	5.93620E-001	5.88918E-001	-2.79328E-002	-3.80097E-002	6.90206E-001	-4.27063E-002	2.39626E-003	-1.62784E-004	2.13833E-002	2.12140E-002	-1.00619E-003	-1.36918E-003	2.48625E-002	-1.53836E-003
	63	63	1.10048E+000	3.56464E-002	0.00000E+000	3.92280E-002	3.55507E-001	3.96266E-002	4.59539E+001	11	...........	6.61757E-002	-4.53958E-003	5.93557E-001	5.89011E-001	-2.79393E-002	-3.80058E-002	6.90237E-001	-4.26794E-002	2.35892E-003	-1.61820E-004	2.11581E-002	2.09961E-002	-9.95934E-004	-1.35477E-003	2.46044E-002	-1.52137E-003
	64	64	1.10035E+000	3.56475E-002	0.00000E+000	3.92246E-002	3.55523E-001	3.98071E-002	4.70034E+001	11	...........	6.64615E-002	-4.64083E-003	5.93332E-001	5.88921E-001	-2.80132E-002	-3.79881E-002	6.90168E-001	-4.26819E-002	2.36918E-003	-1.65434E-004	2.11508E-002	2.09935E-002	-9.98599E-004	-1.35418E-003	2.46027E-002	-1.52150E-003
	65	65	1.10040E+000	3.57624E-002	0.00000E+000	3.93528E-002	3.56667E-001	3.96639E-002	4.87715E+001	11	...........	6.62433E-002	-4.68361E-003	5.93492E-001	5.88716E-001	-2.81272E-002	-3.79706E-002	6.90226E-001	-4.26839E-002	2.36902E-003	-1.67497E-004	2.12247E-002	2.10539E-002	-1.00590E-003	-1.35792E-003	2.46842E-002	-1.52648E-003
	66	66	1.10048E+000	3.54534E-002	0.00000E+000	3.90158E-002	3.53592E-001	3.97542E-002	4.77802E+001	11	...........	6.63833E-002	-4.64653E-003	5.93430E-001	5.88581E-001	-2.81732E-002	-3.79422E-002	6.90271E-001	-4.26719E-002	2.35352E-003	-1.64735E-004	2.10391E-002	2.08672E-002	-9.98837E-004	-1.34518E-003	2.44725E-002	-1.51287E-003
	67	67	1.10035E+000	3.53763E-002	0.00000E+000	3.89262E-002	3.52826E-001	3.97047E-002	4.52081E+001	11	...........	6.63104E-002	-4.57528E-003	5.93500E-001	5.88691E-001	-2.80999E-002	-3.79483E-002	6.90265E-001	-4.26743E-002	2.34581E-003	-1.61856E-004	2.09958E-002	2.08257E-002	-9.94068E-004	-1.34247E-003	2.44190E-002	-1.50966E-003
	68	68	1.10039E+000	3.55251E-002	0.00000E+000	3.90916E-002	3.54305E-001	3.95074E-002	4.65744E+001	11	...........	6.59883E-002	-4.53042E-003	5.93509E-001	5.88479E-001	-2.79818E-002	-3.79526E-002	6.90236E-001	-4.26750E-002	2.34424E-003	-1.60944E-004	2.10845E-002	2.09058E-002	-9.94057E-004	-1.34827E-003	2.45207E-002	-1.51603E-003
	69	69	1.10048E+000	3.52358E-002	0.00000E+000	3.87763E-002	3.51429E-001	3.98289E-002	4.83850E+001	11	...........	6.65060E-002	-4.52361E-003	5.93835E-001	5.88494E-001	-2.79508E-002	-3.79472E-002	6.90235E-001	-4.26737E-002	2.34339E-003	-1.59393E-004	2.09243E-002	2.07360E-002	-9.84870E-004	-1.33710E-003	2.43210E-002	-1.50364E-003
	70	70	1.10035E+000	3.51506E-002	0.00000E+000	3.86779E-002	3.50580E-001	3.95751E-002	4.74964E+001	11	...........	6.60829E-002	-4.49083E-003	5.93862E-001	5.88453E-001	-2.79503E-002	-3.79464E-002	6.90103E-001	-4.27158E-002	2.32285E-003	-1.57856E-004	2.08746E-002	2.06845E-002	-9.82469E-004	-1.33384E-003	2.42575E-002	-1.50149E-003
	71	71	1.10039E+000	3.52435E-002	0.00000E+000	3.87818E-002	3.51504E-001	3.95579E-002	4.69984E+001	11	...........	6.60637E-002	-4.51903E-003	5.93836E-001	5.88547E-001	-2.79242E-002	-3.80026E-002	6.89898E-001	-4.27532E-002	2.32832E-003	-1.59266E-004	2.09289E-002	2.07425E-002	-9.84146E-004	-1.33935E-003	2.43144E-002	-1.50677E-003
	72	72	1.10048E+000	3.49737E-002	0.00000E+000	3.84878E-002	3.48821E-001	3.97792E-002	4.71548E+001	11	...........	6.64131E-002	-4.57972E-003	5.93838E-001	5.88531E-001	-2.80257E-002	-3.80050E-002	6.90137E-001	-4.27486E-002	2.32271E-003	-1.60170E-004	2.07687E-002	2.05831E-002	-9.80162E-004	-1.32918E-003	2.41367E-002	-1.49508E-003
	73	73	1.10035E+000	3.48596E-002	0.00000E+000	3.83577E-002	3.47682E-001	3.92564E-002	4.65390E+001	11	...........	6.55429E-002	-4.56167E-003	5.93948E-001	5.88469E-001	-2.81385E-002	-3.79958E-002	6.90294E-001	-4.26869E-002	2.28480E-003	-1.59018E-004	2.07048E-002	2.05138E-002	-9.80896E-004	-1.32452E-003	2.40634E-002	-1.48805E-003
	74	74	1.10039E+000	3.50576E-002	0.00000E+000	3.85771E-002	3.49656E-001	3.97989E-002	4.72719E+001	11	...........	6.64521E-002	-4.64417E-003	5.94010E-001	5.88535E-001	-2.79485E-002	-3.79271E-002	6.90258E-001	-4.26889E-002	2.32965E-003	-1.62813E-004	2.08246E-002	2.06326E-002	-9.79806E-004	-1.32963E-003	2.41988E-002	-1.49657E-003
	75	75	1.10048E+000	3.47012E-002	0.00000E+000	3.81879E-002	3.46114E-001	3.94156E-002	4.67424E+001	11	...........	6.58212E-002	-4.60722E-003	5.94130E-001	5.88599E-001	-2.79351E-002	-3.79182E-002	6.90183E-001	-4.26860E-002	2.28407E-003	-1.59876E-004	2.06170E-002	2.04251E-002	-9.69382E-004	-1.31581E-003	2.39502E-002	-1.48125E-003
	76	76	1.10035E+000	3.46354E-002	0.00000E+000	3.81111E-002	3.45458E-001	3.97152E-002	4.67728E+001	11	...........	6.63131E-002	-4.53306E-003	5.94182E-001	5.88581E-001	-2.79403E-002	-3.79660E-002	6.90096E-001	-4.26744E-002	2.29678E-003	-1.57004E-004	2.05797E-002	2.03857E-002	-9.67723E-004	-1.31497E-003	2.39018E-002	-1.47805E-003
	77	77	1.10039E+000	3.47841E-002	0.00000E+000	3.82761E-002	3.46939E-001	3.95543E-002	4.73080E+001	11	...........	6.60346E-002	-4.53722E-003	5.94139E-001	5.88745E-001	-2.79364E-002	-3.79811E-002	6.90046E-001	-4.27233E-002	2.29695E-003	-1.57823E-004	2.06666E-002	2.04790E-002	-9.71742E-004	-1.32114E-003	2.40026E-002	-1.48609E-003
	78	78	1.10048E+000	3.44554E-002	0.00000E+000	3.79174E-002	3.43671E-001	3.92816E-002	4.62427E+001	11	...........	6.56014E-002	-4.53972E-003	5.94121E-001	5.88839E-001	-2.80831E-002	-3.79794E-002	6.90223E-001	-4.27053E-002	2.26032E-003	-1.56418E-004	2.04707E-002	2.02887E-002	-9.67614E-004	-1.30860E-003	2.37819E-002	-1.47143E-003
	79	79	1.10035E+000	3.43928E-002	0.00000E+000	3.78442E-002	3.43045E-001	3.96977E-002	4.74699E+001	11	...........	6.62861E-002	-4.52431E-003	5.94134E-001	5.88879E-001	-2.80921E-002	-3.79608E-002	6.90170E-001	-4.27189E-002	2.27976E-003	-1.55603E-004	2.04339E-002	2.02532E-002	-9.66165E-004	-1.30558E-003	2.37369E-002	-1.46922E-003
	80	80	1.10039E+000	3.45328E-002	0.00000E+000	3.79995E-002	3.44443E-001	3.94413E-002	4.71661E+001	11	...........	6.58688E-002	-4.53750E-003	5.94132E-001	5.88966E-001	-2.79543E-002	-3.79575E-002	6.90091E-001	-4.26893E-002	2.27463E-003	-1.56693E-004	2.05170E-002	2.03386E-002	-9.65340E-004	-1.31078E-003	2.38308E-002	-1.47418E-003
	81	81	1.10048E+000	3.42247E-002	0.00000E+000	3.76636E-002	3.41377E-001	3.92826E-002	4.63138E+001	11	...........	6.55994E-002	-4.53764E-003	5.94275E-001	5.89178E-001	-2.79401E-002	-3.79437E-002	6.90018E-001	-4.26714E-002	2.24512E-003	-1.55299E-004	2.03389E-002	2.01644E-002	-9.56243E-004	-1.29861E-003	2.36157E-002	-1.46042E-003
	82	82	1.10036E+000	3.41126E-002	0.00000E+000	3.75359E-002	3.40263E-001	3.94460E-002	4.52140E+001	11	...........	6.58685E-002	-4.39361E-003	5.94466E-001	5.89091E-001	-2.79521E-002	-3.79664E-002	6.90093E-001	-4.26662E-002	2.24694E-003	-1.49877E-004	2.02787E-002	2.00954E-002	-9.53517E-004	-1.29513E-003	2.35408E-002	-1.45545E-003
	83	83	1.10039E+000	3.43297E-002	0.00000E+000	3.77759E-002	3.42420E-001	3.96169E-002	4.70135E+001	11	...........	6.61456E-002	-4.45583E-003	5.94393E-001	5.88917E-001	-2.79175E-002	-3.80037E-002	6.89923E-001	-4.26704E-002	2.27076E-003	-1.52967E-004	2.04053E-002	2.02173E-002	-9.58399E-004	-1.30466E-003	2.36848E-002	-1.46486E-003
	84	84	1.10048E+000	3.40421E-002	0.00000E+000	3.74626E-002	3.39564E-001	3.94140E-002	4.59768E+001	11	...........	6.58156E-002	-4.47944E-003	5.94303E-001	5.88672E-001	-2.79722E-002	-3.79842E-002	6.89847E-001	-4.26799E-002	2.24050E-003	-1.52490E-004	2.02313E-002	2.00396E-002	-9.52233E-004	-1.29306E-003	2.34838E-002	-1.45291E-003
	85	85	1.10036E+000	3.38845E-002	0.00000E+000	3.72849E-002	3.37996E-001	3.93674E-002	4.77045E+001	11	...........	6.57171E-002	-4.54875E-003	5.94330E-001	5.88744E-001	-2.81061E-002	-3.79810E-002	6.89809E-001	-4.27158E-002	2.22679E-003	-1.54132E-004	2.01386E-002	1.99493E-002	-9.52360E-004	-1.28696E-003	2.33738E-002	-1.44740E-003
	86	86	1.10039E+000	3.40805E-002	0.00000E+000	3.75018E-002	3.39943E-001	3.94093E-002	4.72033E+001	11	...........	6.58049E-002	-4.55861E-003	5.94420E-001	5.88862E-001	-2.80479E-002	-3.79396E-002	6.89767E-001	-4.27193E-002	2.24267E-003	-1.55360E-004	2.02582E-002	2.00687E-002	-9.55888E-004	-1.29300E-003	2.35076E-002	-1.45590E-003
	87	87	1.10048E+000	3.38122E-002	0.00000E+000	3.72095E-002	3.37272E-001	3.93653E-002	4.56662E+001	11	...........	6.57190E-002	-4.57472E-003	5.94378E-001	5.89009E-001	-2.79068E-002	-3.78967E-002	6.89911E-001	-4.27025E-002	2.22211E-003	-1.54681E-004	2.00972E-002	1.99157E-002	-9.43591E-004	-1.28137E-003	2.33274E-002	-1.44387E-003
	88	88	1.10036E+000	3.36727E-002	0.00000E+000	3.70520E-002	3.35885E-001	3.91817E-002	4.57294E+001	11	...........	6.54206E-002	-4.52944E-003	5.94337E-001	5.89084E-001	-2.79171E-002	-3.78883E-002	6.89843E-001	-4.27153E-002	2.20289E-003	-1.52519E-004	2.00129E-002	1.98361E-002	-9.40045E-004	-1.27580E-003	2.32289E-002	-1.43834E-003
	89	89	1.10039E+000	3.38795E-002	0.00000E+000	3.72806E-002	3.37943E-001	3.94471E-002	4.75108E+001	11	...........	6.58656E-002	-4.42319E-003	5.94342E-001	5.89069E-001	-2.79526E-002	-3.79271E-002	6.89752E-001	-4.26914E-002	2.23150E-003	-1.49856E-004	2.01361E-002	1.99574E-002	-9.47023E-004	-1.28495E-003	2.33685E-002	-1.44636E-003
	90	90	1.10047E+000	3.36195E-002	0.00000E+000	3.69974E-002	3.35356E-001	3.91937E-002	4.67135E+001	11	...........	6.54519E-002	-4.50486E-003	5.94270E-001	5.89018E-001	-2.79471E-002	-3.79368E-002	6.89841E-001	-4.26835E-002	2.20046E-003	-1.51451E-004	1.99791E-002	1.98025E-002	-9.39567E-004	-1.27542E-003	2.31921E-002	-1.43500E-003
	91	91	1.10036E+000	3.34593E-002	0.00000E+000	3.68173E-002	3.33767E-001	3.94664E-002	4.75360E+001	11	...........	6.59060E-002	-4.49597E-003	5.94265E-001	5.88990E-001	-2.79364E-002	-3.79537E-002	6.89859E-001	-4.26756E-002	2.20517E-003	-1.50432E-004	1.98837E-002	1.97072E-002	-9.34732E-004	-1.26991E-003	2.30822E-002	-1.42789E-003
	92	92	1.10039E+000	3.36024E-002	0.00000E+000	3.69756E-002	3.35186E-001	3.92972E-002	4.51588E+001	11	...........	6.56161E-002	-4.48347E-003	5.94136E-001	5.89022E-001	-2.79517E-002	-3.79539E-002	6.89917E-001	-4.26972E-002	2.20486E-003	-1.50655E-004	1.99644E-002	1.97925E-002	-9.39242E-004	-1.27534E-003	2.31829E-002	-1.43473E-003
	93	93	1.10047E+000	3.33698E-002	0.00000E+000	3.67226E-002	3.32875E-001	3.92252E-002	4.58836E+001	11	...........	6.54901E-002	-4.46375E-003	5.94051E-001	5.88756E-001	-2.80365E-002	-3.79325E-002	6.89995E-001	-4.27356E-002	2.18539E-003	-1.48954E-004	1.98234E-002	1.96467E-002	-9.35573E-004	-1.26580E-003	2.30250E-002	-1.42608E-003
	94	94	1.10036E+000	3.32218E-002	0.00000E+000	3.65560E-002	3.31406E-001	3.93269E-002	4.79782E+001	11	...........	6.56569E-002	-4.51861E-003	5.94135E-001	5.88909E-001	-2.81287E-002	-3.79301E-002	6.89997E-001	-4.27389E-002	2.18124E-003	-1.50117E-004	1.97383E-002	1.95646E-002	-9.34489E-004	-1.26011E-003	2.29230E-002	-1.41986E-003
	95	95	1.10039E+000	3.33835E-002	0.00000E+000	3.67348E-002	3.33014E-001	3.92936E-002	4.62200E+001	11	...........	6.56097E-002	-4.64514E-003	5.94096E-001	5.89098E-001	-2.81529E-002	-3.79517E-002	6.90006E-001	-4.26704E-002	2.19028E-003	-1.55071E-004	1.98330E-002	1.96662E-002	-9.39844E-004	-1.26696E-003	2.30348E-002	-1.42449E-003
	96	96	1.10047E+000	3.31712E-002	0.00000E+000	3.65039E-002	3.30902E-001	3.92505E-002	4.77650E+001	11	...........	6.55410E-002	-4.52986E-003	5.94059E-001	5.89152E-001	-2.81503E-002	-3.79621E-002	6.89941E-001	-4.26983E-002	2.17407E-003	-1.50261E-004	1.97056E-002	1.95428E-002	-9.33777E-004	-1.25925E-003	2.28862E-002	-1.41635E-003
	97	97	1.10037E+000	3.29376E-002	0.00000E+000	3.62434E-002	3.28581E-001	3.91983E-002	4.50255E+001	11	...........	6.54583E-002	-4.54194E-003	5.93999E-001	5.88927E-001	-2.81597E-002	-3.79510E-002	6.89886E-001	-4.27533E-002	2.15604E-003	-1.49601E-004	1.95649E-002	1.93979E-002	-9.27514E-004	-1.25001E-003	2.27232E-002	-1.40819E-003
	98	98	1.10038E+000	3.31606E-002	0.00000E+000	3.64894E-002	3.30797E-001	3.92172E-002	4.70425E+001	11	...........	6.54815E-002	-4.56458E-003	5.93970E-001	5.88910E-001	-2.81496E-002	-3.79303E-002	6.89924E-001	-4.27151E-002	2.17141E-003	-1.51364E-004	1.96964E-002	1.95286E-002	-9.33457E-004	-1.25779E-003	2.28783E-002	-1.41646E-003
	99	99	1.10047E+000	3.29469E-002	0.00000E+000	3.62570E-002	3.28670E-001	3.91135E-002	4.72176E+001	11	...........	6.53169E-002	-4.67681E-003	5.93980E-001	5.88814E-001	-2.81522E-002	-3.79558E-002	6.89929E-001	-4.27001E-002	2.15199E-003	-1.54086E-004	1.95698E-002	1.93996E-002	-9.27527E-004	-1.25053E-003	2.27310E-002	-1.40684E-003
	100	100	1.10037E+000	3.27668E-002	0.00000E+000	3.60556E-002	3.26879E-001	3.93134E-002	4.73019E+001	11	...........	6.56546E-002	-4.56611E-003	5.94048E-001	5.88675E-001	-2.81811E-002	-3.79760E-002	6.90216E-001	-4.26961E-002	2.15129E-003	-1.49617E-004	1.94651E-002	1.92890E-002	-9.23404E-004	-1.24435E-003	2.26162E-002	-1.39901E-003
	101	101	1.10038E+000	3.28959E-002	0.00000E+000	3.61981E-002	3.28165E-001	3.89671E-002	4.70875E+001	11	...........	6.51707E-002	-4.60056E-003	5.94009E-001	5.88704E-001	-2.81775E-002	-3.79815E-002	6.90134E-001	-4.26974E-002	2.14385E-003	-1.51339E-004	1.95405E-002	1.93660E-002	-9.26924E-004	-1.24944E-003	2.27026E-002	-1.40457E-003
	102	102	1.10047E+000	3.27173E-002	0.00000E+000	3.60043E-002	3.26390E-001	3.91597E-002	4.64097E+001	11	...........	6.53654E-002	-4.56389E-003	5.93996E-001	5.89028E-001	-2.81962E-002	-3.79812E-002	6.90062E-001	-4.26814E-002	2.13858E-003	-1.49318E-004	1.94339E-002	1.92714E-002	-9.22505E-004	-1.24264E-003	2.25769E-002	-1.39642E-003
	103	103	1.10037E+000	3.25287E-002	0.00000E+000	3.57936E-002	3.24512E-001	3.92617E-002	4.77064E+001	11	...........	6.55590E-002	-4.48472E-003	5.94065E-001	5.89022E-001	-2.81757E-002	-3.79832E-002	6.90050E-001	-4.26778E-002	2.13255E-003	-1.45882E-004	1.93241E-002	1.91601E-002	-9.16518E-004	-1.23554E-003	2.24464E-002	-1.38825E-003
	104	104	1.10038E+000	3.27035E-002	0.00000E+000	3.59864E-002	3.26250E-001	3.89531E-002	4.71614E+001	11	...........	6.50611E-002	-4.39347E-003	5.94123E-001	5.88923E-001	-2.81250E-002	-3.79864E-002	6.90051E-001	-4.26931E-002	2.12773E-003	-1.43682E-004	1.94299E-002	1.92598E-002	-9.19786E-004	-1.24229E-003	2.25671E-002	-1.39621E-003
	105	105	1.10046E+000	3.25264E-002	0.00000E+000	3.57942E-002	3.24492E-001	3.92556E-002	4.80683E+001	11	...........	6.55564E-002	-4.36139E-003	5.93996E-001	5.88810E-001	-2.80614E-002	-3.79808E-002	6.90049E-001	-4.27104E-002	2.13232E-003	-1.41860E-004	1.93206E-002	1.91519E-002	-9.12737E-004	-1.23538E-003	2.24448E-002	-1.38922E-003
	106	106	1.10038E+000	3.22983E-002	0.00000E+000	3.55403E-002	3.22220E-001	3.91201E-002	4.61235E+001	11	...........	6.53128E-002	-4.47083E-003	5.93988E-001	5.88705E-001	-2.79972E-002	-3.79921E-002	6.90061E-001	-4.27363E-002	2.10949E-003	-1.44400E-004	1.91848E-002	1.90142E-002	-9.04262E-004	-1.22708E-003	2.22878E-002	-1.38031E-003
	107	107	1.10038E+000	3.24546E-002	0.00000E+000	3.57124E-002	3.23777E-001	3.89452E-002	4.75009E+001	11	...........	6.50310E-002	-4.46958E-003	5.94119E-001	5.88835E-001	-2.79262E-002	-3.79979E-002	6.89987E-001	-4.27060E-002	2.11056E-003	-1.45059E-004	1.92819E-002	1.91104E-002	-9.06336E-004	-1.23321E-003	2.23933E-002	-1.38601E-003
	108	108	1.10046E+000	3.23120E-002	0.00000E+000	3.55583E-002	3.22362E-001	3.90921E-002	4.72176E+001	11	...........	6.52781E-002	-4.48111E-003	5.94094E-001	5.89108E-001	-2.79436E-002	-3.80228E-002	6.90072E-001	-4.27389E-002	2.10927E-003	-1.44794E-004	1.91964E-002	1.90353E-002	-9.02915E-004	-1.22859E-003	2.22976E-002	-1.38098E-003
	109	109	1.10038E+000	3.20912E-002	0.00000E+000	3.53125E-002	3.20164E-001	3.91537E-002	4.55686E+001	11	...........	6.53781E-002	-4.53792E-003	5.94022E-001	5.89236E-001	-2.79522E-002	-3.80253E-002	6.90161E-001	-4.27081E-002	2.09806E-003	-1.45627E-004	1.90629E-002	1.89093E-002	-8.97020E-004	-1.22028E-003	2.21481E-002	-1.37055E-003
	110	110	1.10038E+000	3.22542E-002	0.00000E+000	3.54917E-002	3.21786E-001	3.88830E-002	4.72488E+001	11	...........	6.49262E-002	-4.50986E-003	5.93916E-001	5.89147E-001	-2.79361E-002	-3.80225E-002	6.90188E-001	-4.27125E-002	2.09414E-003	-1.45462E-004	1.91563E-002	1.90024E-002	-9.01056E-004	-1.22638E-003	2.22614E-002	-1.37766E-003
	111	111	1.10046E+000	3.21159E-002	0.00000E+000	3.53423E-002	3.20408E-001	3.91502E-002	4.73596E+001	11	...........	6.53618E-002	-4.60986E-003	5.93930E-001	5.89165E-001	-2.80003E-002	-3.80265E-002	6.90144E-001	-4.27790E-002	2.09915E-003	-1.48050E-004	1.90746E-002	1.89215E-002	-8.99253E-004	-1.22125E-003	2.21646E-002	-1.37389E-003
	112	112	1.10038E+000	3.18557E-002	0.00000E+000	3.50535E-002	3.17822E-001	3.89362E-002	4.56069E+001	11	...........	6.50153E-002	-4.53750E-003	5.93986E-001	5.89131E-001	-2.81056E-002	-3.80294E-002	6.90201E-001	-4.27550E-002	2.07111E-003	-1.44545E-004	1.89218E-002	1.87672E-002	-8.95323E-004	-1.21146E-003	2.19869E-002	-1.36199E-003
	113	113	1.10038E+000	3.20464E-002	0.00000E+000	3.52631E-002	3.19723E-001	3.90512E-002	4.78828E+001	11	...........	6.52022E-002	-4.52500E-003	5.93936E-001	5.89073E-001	-2.80033E-002	-3.80390E-002	6.90267E-001	-4.27299E-002	2.08949E-003	-1.45010E-004	1.90335E-002	1.88777E-002	-8.97405E-004	-1.21901E-003	2.21205E-002	-1.36934E-003
	114	114	1.10046E+000	3.18889E-002	0.00000E+000	3.50925E-002	3.18154E-001	3.90459E-002	4.70853E+001	11	...........	6.52049E-002	-4.58444E-003	5.93891E-001	5.89177E-001	-2.79174E-002	-3.80303E-002	6.90176E-001	-4.26860E-002	2.07931E-003	-1.46193E-004	1.89385E-002	1.87882E-002	-8.90254E-004	-1.21274E-003	2.20090E-002	-1.36121E-003
	115	115	1.10038E+000	3.16315E-002	0.00000E+000	3.48067E-002	3.15593E-001	3.90138E-002	4.77884E+001	11	...........	6.51315E-002	-4.51264E-003	5.93606E-001	5.89181E-001	-2.79450E-002	-3.79731E-002	6.90276E-001	-4.27035E-002	2.06021E-003	-1.42742E-004	1.87766E-002	1.86367E-002	-8.83942E-004	-1.20114E-003	2.18345E-002	-1.35078E-003
	116	116	1.10038E+000	3.17779E-002	0.00000E+000	3.49677E-002	3.17049E-001	3.87773E-002	4.46511E+001	11	...........	6.47411E-002	-4.53639E-003	5.93818E-001	5.89203E-001	-2.79218E-002	-3.79724E-002	6.90241E-001	-4.27107E-002	2.05734E-003	-1.44157E-004	1.88703E-002	1.87236E-002	-8.87296E-004	-1.20668E-003	2.19344E-002	-1.35726E-003
	117	117	1.10046E+000	3.16959E-002	0.00000E+000	3.48800E-002	3.16230E-001	3.90622E-002	4.72819E+001	11	...........	6.52332E-002	-4.51694E-003	5.93903E-001	5.89296E-001	-2.80787E-002	-3.79842E-002	6.90180E-001	-4.26803E-002	2.06763E-003	-1.43169E-004	1.88243E-002	1.86783E-002	-8.89982E-004	-1.20394E-003	2.18759E-002	-1.35279E-003
	118	118	1.10039E+000	3.13966E-002	0.00000E+000	3.45484E-002	3.13255E-001	3.89102E-002	4.67036E+001	11	...........	6.49581E-002	-4.58653E-003	5.93950E-001	5.89315E-001	-2.79324E-002	-3.80025E-002	6.90023E-001	-4.26675E-002	2.03946E-003	-1.44001E-004	1.86480E-002	1.85025E-002	-8.76982E-004	-1.19315E-003	2.16644E-002	-1.33962E-003
	119	119	1.10038E+000	3.16033E-002	0.00000E+000	3.47755E-002	3.15307E-001	3.90422E-002	4.75274E+001	11	...........	6.51683E-002	-4.57819E-003	5.93952E-001	5.89290E-001	-2.79486E-002	-3.80086E-002	6.89898E-001	-4.26854E-002	2.05953E-003	-1.44686E-004	1.87708E-002	1.86235E-002	-8.83268E-004	-1.20120E-003	2.18030E-002	-1.34900E-003
	120	120	1.10046E+000	3.14859E-002	0.00000E+000	3.46489E-002	3.14140E-001	3.89347E-002	4.66045E+001	11	...........	6.50022E-002	-4.57486E-003	5.93994E-001	5.89263E-001	-2.79642E-002	-3.80151E-002	6.89847E-001	-4.26953E-002	2.04666E-003	-1.44044E-004	1.87024E-002	1.85535E-002	-8.80478E-004	-1.19694E-003	2.17205E-002	-1.34430E-003
	121	121	1.10039E+000	3.12012E-002	0.00000E+000	3.43335E-002	3.11311E-001	3.87584E-002	4.70187E+001	11	...........	6.47339E-002	-4.57486E-003	5.93950E-001	5.89234E-001	-2.81133E-002	-3.80428E-002	6.90072E-001	-4.26914E-002	2.01978E-003	-1.42741E-004	1.85320E-002	1.83848E-002	-8.77171E-004	-1.18698E-003	2.15311E-002	-1.33202E-003
	122	122	1.10038E+000	3.13542E-002	0.00000E+000	3.45014E-002	3.12831E-001	3.88190E-002	4.48444E+001	11	...........	6.48204E-002	-4.57472E-003	5.94104E-001	5.89144E-001	-2.79351E-002	-3.80382E-002	6.90137E-001	-4.26708E-002	2.03239E-003	-1.43437E-004	1.86277E-002	1.84721E-002	-8.75884E-004	-1.19266E-003	2.16387E-002	-1.33791E-003
	123	123	1.10045E+000	3.12884E-002	0.00000E+000	3.44315E-002	3.12181E-001	3.90367E-002	4.68231E+001	11	...........	6.51657E-002	-4.55125E-003	5.94219E-001	5.89143E-001	-2.79412E-002	-3.80404E-002	6.90094E-001	-4.26846E-002	2.03893E-003	-1.42401E-004	1.85922E-002	1.84334E-002	-8.74237E-004	-1.19022E-003	2.15919E-002	-1.33553E-003
	124	124	1.10039E+000	3.09794E-002	0.00000E+000	3.40894E-002	3.09110E-001	3.87668E-002	4.68011E+001	11	...........	6.47181E-002	-4.51014E-003	5.94286E-001	5.89106E-001	-2.79035E-002	-3.80021E-002	6.90087E-001	-4.26896E-002	2.00492E-003	-1.39721E-004	1.84106E-002	1.82501E-002	-8.64432E-004	-1.17728E-003	2.13785E-002	-1.32250E-003
	125	125	1.10038E+000	3.11873E-002	0.00000E+000	3.43177E-002	3.11171E-001	3.89922E-002	4.75568E+001	11	...........	6.51115E-002	-4.55528E-003	5.94352E-001	5.89047E-001	-2.80611E-002	-3.80187E-002	6.89862E-001	-4.27225E-002	2.03065E-003	-1.42067E-004	1.85362E-002	1.83708E-002	-8.75149E-004	-1.18570E-003	2.15149E-002	-1.33240E-003
	126	126	1.10045E+000	3.10741E-002	0.00000E+000	3.41956E-002	3.10049E-001	3.89521E-002	4.68506E+001	11	...........	6.50261E-002	-4.62042E-003	5.94309E-001	5.89199E-001	-2.79543E-002	-3.80183E-002	6.89830E-001	-4.27043E-002	2.02063E-003	-1.43575E-004	1.84676E-002	1.83088E-002	-8.68655E-004	-1.18139E-003	2.14358E-002	-1.32700E-003
	127	127	1.10039E+000	3.07410E-002	0.00000E+000	3.38272E-002	3.06741E-001	3.84613E-002	4.61774E+001	11	...........	6.42265E-002	-4.63486E-003	5.94211E-001	5.89311E-001	-2.79275E-002	-3.80204E-002	6.89976E-001	-4.26658E-002	1.97439E-003	-1.42480E-004	1.82666E-002	1.81160E-002	-8.58519E-004	-1.16879E-003	2.12105E-002	-1.31159E-003
	128	128	1.10037E+000	3.09929E-002	0.00000E+000	3.41038E-002	3.09243E-001	3.91471E-002	4.69667E+001	11	...........	6.53600E-002	-4.67000E-003	5.94274E-001	5.89325E-001	-2.79311E-002	-3.79681E-002	6.89957E-001	-4.26735E-002	2.02569E-003	-1.44737E-004	1.84183E-002	1.82649E-002	-8.65665E-004	-1.17674E-003	2.13838E-002	-1.32257E-003
	129	129	1.10045E+000	3.08635E-002	0.00000E+000	3.39639E-002	3.07960E-001	3.86759E-002	4.76364E+001	11	...........	6.45889E-002	-4.60694E-003	5.94199E-001	5.89327E-001	-2.79647E-002	-3.79512E-002	6.89927E-001	-4.27526E-002	1.99344E-003	-1.42187E-004	1.83391E-002	1.81887E-002	-8.63090E-004	-1.17131E-003	2.12936E-002	-1.31950E-003
	130	130	1.10040E+000	3.05736E-002	0.00000E+000	3.36432E-002	3.05078E-001	3.89050E-002	4.65145E+001	11	...........	6.49647E-002	-4.60167E-003	5.94273E-001	5.89342E-001	-2.80457E-002	-3.79943E-002	6.90014E-001	-4.28193E-002	1.98621E-003	-1.40690E-004	1.81691E-002	1.80183E-002	-8.57459E-004	-1.16162E-003	2.10962E-002	-1.30914E-003
	131	131	1.10037E+000	3.07463E-002	0.00000E+000	3.38323E-002	3.06793E-001	3.87632E-002	4.60035E+001	11	...........	6.47364E-002	-4.53583E-003	5.94348E-001	5.89382E-001	-2.78918E-002	-3.79956E-002	6.89992E-001	-4.28112E-002	1.99040E-003	-1.39460E-004	1.82740E-002	1.81213E-002	-8.57570E-004	-1.16822E-003	2.12147E-002	-1.31629E-003
	132	132	1.10045E+000	3.06382E-002	0.00000E+000	3.37158E-002	3.05721E-001	3.86165E-002	4.69777E+001	11	...........	6.44903E-002	-4.47861E-003	5.94361E-001	5.89343E-001	-2.79328E-002	-3.79846E-002	6.90059E-001	-4.27368E-002	1.97587E-003	-1.37217E-004	1.82101E-002	1.80564E-002	-8.55810E-004	-1.16378E-003	2.11422E-002	-1.30938E-003
	133	133	1.10040E+000	3.03561E-002	0.00000E+000	3.34038E-002	3.02916E-001	3.88759E-002	4.67034E+001	11	...........	6.49110E-002	-4.63819E-003	5.94323E-001	5.89339E-001	-2.79115E-002	-3.79169E-002	6.90026E-001	-4.27461E-002	1.97044E-003	-1.40797E-004	1.80413E-002	1.78900E-002	-8.47285E-004	-1.15101E-003	2.09465E-002	-1.29760E-003
	134	134	1.10037E+000	3.05510E-002	0.00000E+000	3.36175E-002	3.04857E-001	3.87715E-002	4.67461E+001	11	...........	6.47419E-002	-4.60778E-003	5.94383E-001	5.89324E-001	-2.80743E-002	-3.79335E-002	6.89962E-001	-4.27612E-002	1.97793E-003	-1.40772E-004	1.81590E-002	1.80044E-002	-8.57699E-004	-1.15891E-003	2.10790E-002	-1.30640E-003
	135	135	1.10045E+000	3.04393E-002	0.00000E+000	3.34969E-002	3.03741E-001	3.86727E-002	4.76168E+001	11	...........	6.45769E-002	-4.50375E-003	5.94278E-001	5.89312E-001	-2.80353E-002	-3.79503E-002	6.90150E-001	-4.27175E-002	1.96568E-003	-1.37091E-004	1.80894E-002	1.79383E-002	-8.53375E-004	-1.15518E-003	2.10077E-002	-1.30029E-003
	136	136	1.10040E+000	3.01451E-002	0.00000E+000	3.31717E-002	3.00817E-001	3.85616E-002	4.48068E+001	11	...........	6.43801E-002	-4.50736E-003	5.94318E-001	5.89348E-001	-2.79228E-002	-3.79457E-002	6.90108E-001	-4.27326E-002	1.94074E-003	-1.35875E-004	1.79158E-002	1.77659E-002	-8.41734E-004	-1.14388E-003	2.08034E-002	-1.28818E-003
	137	137	1.10037E+000	3.03607E-002	0.00000E+000	3.34080E-002	3.02960E-001	3.88116E-002	4.69822E+001	11	...........	6.48097E-002	-4.54764E-003	5.94596E-001	5.89350E-001	-2.79369E-002	-3.78869E-002	6.90231E-001	-4.27182E-002	1.96767E-003	-1.38069E-004	1.80523E-002	1.78931E-002	-8.48185E-004	-1.15027E-003	2.09559E-002	-1.29695E-003
	138	138	1.10045E+000	3.02901E-002	0.00000E+000	3.33326E-002	3.02260E-001	3.86459E-002	4.72491E+001	11	...........	6.45253E-002	-4.62236E-003	5.94647E-001	5.89372E-001	-2.79092E-002	-3.78657E-002	6.90199E-001	-4.27762E-002	1.95448E-003	-1.40012E-004	1.80119E-002	1.78521E-002	-8.45371E-004	-1.14695E-003	2.09062E-002	-1.29570E-003
	139	139	1.10041E+000	2.99367E-002	0.00000E+000	3.29426E-002	2.98749E-001	3.87951E-002	4.59215E+001	11	...........	6.47699E-002	-4.65472E-003	5.94547E-001	5.89365E-001	-2.80782E-002	-3.78714E-002	6.90049E-001	-4.27803E-002	1.93900E-003	-1.39347E-004	1.77988E-002	1.76437E-002	-8.40569E-004	-1.13375E-003	2.06578E-002	-1.28070E-003
	140	140	1.10037E+000	3.01286E-002	0.00000E+000	3.31526E-002	3.00658E-001	3.86630E-002	4.70088E+001	11	...........	6.45537E-002	-4.58500E-003	5.94619E-001	5.89399E-001	-2.80489E-002	-3.78983E-002	6.89971E-001	-4.27115E-002	1.94491E-003	-1.38140E-004	1.79150E-002	1.77578E-002	-8.45073E-004	-1.14182E-003	2.07879E-002	-1.28684E-003
	141	141	1.10044E+000	3.00774E-002	0.00000E+000	3.30985E-002	3.00151E-001	3.85702E-002	4.74678E+001	11	...........	6.44054E-002	-4.54431E-003	5.94762E-001	5.89380E-001	-2.79004E-002	-3.79221E-002	6.89852E-001	-4.27422E-002	1.93715E-003	-1.36681E-004	1.78889E-002	1.77270E-002	-8.39173E-004	-1.14060E-003	2.07490E-002	-1.28558E-003
	142	142	1.10041E+000	2.97280E-002	0.00000E+000	3.27130E-002	2.96671E-001	3.86175E-002	4.64498E+001	11	...........	6.44712E-002	-4.62403E-003	5.94639E-001	5.89368E-001	-2.79353E-002	-3.78901E-002	6.89626E-001	-4.27363E-002	1.91660E-003	-1.37463E-004	1.76774E-002	1.75208E-002	-8.30460E-004	-1.12640E-003	2.05012E-002	-1.27046E-003
	143	143	1.10037E+000	2.99333E-002	0.00000E+000	3.29377E-002	2.98715E-001	3.86888E-002	4.73011E+001	11	...........	6.46085E-002	-4.53000E-003	5.94594E-001	5.89375E-001	-2.78854E-002	-3.78760E-002	6.89674E-001	-4.27090E-002	1.93395E-003	-1.35598E-004	1.77982E-002	1.76419E-002	-8.34703E-004	-1.13375E-003	2.06443E-002	-1.27842E-003
	144	144	1.10044E+000	2.98495E-002	0.00000E+000	3.28475E-002	2.97882E-001	3.84080E-002	4.45515E+001	11	...........	6.41314E-002	-4.56583E-003	5.94738E-001	5.89382E-001	-2.79890E-002	-3.78760E-002	6.89720E-001	-4.27340E-002	1.91429E-003	-1.36288E-004	1.77526E-002	1.75928E-002	-8.35458E-004	-1.13058E-003	2.05878E-002	-1.27559E-003
	145	145	1.10041E+000	2.95642E-002	0.00000E+000	3.25329E-002	2.95045E-001	3.87287E-002	4.61639E+001	11	...........	6.46639E-002	-4.56042E-003	5.94710E-001	5.89467E-001	-2.79954E-002	-3.79135E-002	6.89708E-001	-4.26986E-002	1.91174E-003	-1.34825E-004	1.75821E-002	1.74271E-002	-8.27662E-004	-1.12088E-003	2.03907E-002	-1.26235E-003
	146	146	1.10037E+000	2.97169E-002	0.00000E+000	3.26994E-002	2.96561E-001	3.86067E-002	4.80242E+001	11	...........	6.44592E-002	-4.55139E-003	5.94805E-001	5.89547E-001	-2.78869E-002	-3.79010E-002	6.89980E-001	-4.27086E-002	1.91552E-003	-1.35253E-004	1.76757E-002	1.75195E-002	-8.28712E-004	-1.12630E-003	2.05040E-002	-1.26917E-003
	147	147	1.10044E+000	2.96740E-002	0.00000E+000	3.26545E-002	2.96133E-001	3.86220E-002	4.61837E+001	11	...........	6.44794E-002	-4.46583E-003	5.94708E-001	5.89511E-001	-2.79275E-002	-3.78583E-002	6.90064E-001	-4.27035E-002	1.91337E-003	-1.32519E-004	1.76474E-002	1.74932E-002	-8.28722E-004	-1.12341E-003	2.04770E-002	-1.26718E-003
	148	148	1.10042E+000	2.93366E-002	0.00000E+000	3.22824E-002	2.92783E-001	3.84495E-002	4.54553E+001	11	...........	6.41975E-002	-4.55222E-003	5.94705E-001	5.89592E-001	-2.78799E-002	-3.78389E-002	6.89816E-001	-4.29451E-002	1.88333E-003	-1.33547E-004	1.74466E-002	1.72966E-002	-8.17900E-004	-1.11006E-003	2.02368E-002	-1.25986E-003
	149	149	1.10037E+000	2.95365E-002	0.00000E+000	3.25009E-002	2.94769E-001	3.85439E-002	4.74757E+001	11	...........	6.43511E-002	-4.62944E-003	5.94648E-001	5.89577E-001	-2.80233E-002	-3.78765E-002	6.89939E-001	-4.31793E-002	1.90070E-003	-1.36737E-004	1.75638E-002	1.74140E-002	-8.27710E-004	-1.11874E-003	2.03784E-002	-1.27536E-003
	150	150	1.10044E+000	2.94971E-002	0.00000E+000	3.24597E-002	2.94377E-001	3.85909E-002	4.59392E+001	11	...........	6.44219E-002	-4.64958E-003	5.94694E-001	5.89569E-001	-2.80014E-002	-3.79114E-002	6.89880E-001	-4.29629E-002	1.90026E-003	-1.37149E-004	1.75418E-002	1.73906E-002	-8.25960E-004	-1.11828E-003	2.03495E-002	-1.26728E-003
	151	151	1.10042E+000	2.91646E-002	0.00000E+000	3.20933E-002	2.91072E-001	3.84044E-002	4.70883E+001	11	...........	6.41401E-002	-4.57236E-003	5.94501E-001	5.89633E-001	-2.79079E-002	-3.78931E-002	6.89912E-001	-4.28371E-002	1.87062E-003	-1.33351E-004	1.73384E-002	1.71965E-002	-8.13924E-004	-1.10514E-003	2.01210E-002	-1.24933E-003
	152	152	1.10037E+000	2.93381E-002	0.00000E+000	3.22826E-002	2.92796E-001	3.84809E-002	4.81073E+001	11	...........	6.42574E-002	-4.59986E-003	5.94452E-001	5.89695E-001	-2.79400E-002	-3.78528E-002	6.90021E-001	-4.27625E-002	1.88519E-003	-1.34951E-004	1.74401E-002	1.73005E-002	-8.19705E-004	-1.11053E-003	2.02439E-002	-1.25457E-003
	153	153	1.10043E+000	2.92907E-002	0.00000E+000	3.22324E-002	2.92325E-001	3.84824E-002	4.64621E+001	11	...........	6.42717E-002	-4.66375E-003	5.94510E-001	5.89658E-001	-2.79056E-002	-3.78364E-002	6.90012E-001	-4.27226E-002	1.88256E-003	-1.36604E-004	1.74136E-002	1.72715E-002	-8.17373E-004	-1.10825E-003	2.02109E-002	-1.25138E-003
	154	154	1.10042E+000	2.89611E-002	0.00000E+000	3.18695E-002	2.89048E-001	3.83897E-002	4.51172E+001	11	...........	6.41014E-002	-4.60444E-003	5.94601E-001	5.89616E-001	-2.80518E-002	-3.78696E-002	6.90174E-001	-4.27011E-002	1.85645E-003	-1.33350E-004	1.72203E-002	1.70759E-002	-8.12412E-004	-1.09675E-003	1.99882E-002	-1.23667E-003
	155	155	1.10037E+000	2.91437E-002	0.00000E+000	3.20687E-002	2.90860E-001	3.85172E-002	4.75715E+001	11	...........	6.43182E-002	-4.56333E-003	5.94555E-001	5.89680E-001	-2.80565E-002	-3.79129E-002	6.89851E-001	-4.27012E-002	1.87447E-003	-1.32992E-004	1.73275E-002	1.71855E-002	-8.17671E-004	-1.10492E-003	2.01048E-002	-1.24447E-003
	156	156	1.10043E+000	2.90991E-002	0.00000E+000	3.20215E-002	2.90414E-001	3.82503E-002	4.69936E+001	11	...........	6.38654E-002	-4.53472E-003	5.94395E-001	5.89534E-001	-2.78993E-002	-3.79368E-002	6.89783E-001	-4.26993E-002	1.85843E-003	-1.31956E-004	1.72963E-002	1.71549E-002	-8.11844E-004	-1.10393E-003	2.00721E-002	-1.24251E-003
	157	157	1.10043E+000	2.87960E-002	0.00000E+000	3.16879E-002	2.87406E-001	3.85453E-002	4.75599E+001	11	...........	6.43579E-002	-4.57958E-003	5.94481E-001	5.89615E-001	-2.79396E-002	-3.79275E-002	6.89628E-001	-4.27256E-002	1.85325E-003	-1.31874E-004	1.71187E-002	1.69786E-002	-8.04549E-004	-1.09216E-003	1.98586E-002	-1.23033E-003
	158	158	1.10036E+000	2.89369E-002	0.00000E+000	3.18411E-002	2.88805E-001	3.82574E-002	4.67872E+001	11	...........	6.38904E-002	-4.60208E-003	5.94458E-001	5.89702E-001	-2.79458E-002	-3.78797E-002	6.89575E-001	-4.27586E-002	1.84879E-003	-1.33170E-004	1.72018E-002	1.70642E-002	-8.08666E-004	-1.09612E-003	1.99542E-002	-1.23730E-003
	159	159	1.10043E+000	2.89340E-002	0.00000E+000	3.18397E-002	2.88778E-001	3.84756E-002	4.79423E+001	11	...........	6.42667E-002	-4.69458E-003	5.94480E-001	5.89604E-001	-2.79136E-002	-3.78849E-002	6.89743E-001	-4.28137E-002	1.85949E-003	-1.35833E-004	1.72006E-002	1.70596E-002	-8.07651E-004	-1.09616E-003	1.99570E-002	-1.23877E-003
	160	160	1.10043E+000	2.85979E-002	0.00000E+000	3.14700E-002	2.85443E-001	3.82939E-002	4.60343E+001	11	...........	6.39382E-002	-4.62028E-003	5.94574E-001	5.89532E-001	-2.79401E-002	-3.78949E-002	6.89907E-001	-4.28429E-002	1.82850E-003	-1.32130E-004	1.70035E-002	1.68593E-002	-7.99028E-004	-1.08371E-003	1.97299E-002	-1.22522E-003
	161	161	1.10036E+000	2.87065E-002	0.00000E+000	3.15876E-002	2.86519E-001	3.81005E-002	4.66098E+001	11	...........	6.36133E-002	-4.54847E-003	5.94527E-001	5.89432E-001	-2.80747E-002	-3.79050E-002	6.89955E-001	-4.28615E-002	1.82612E-003	-1.30571E-004	1.70668E-002	1.69205E-002	-8.05928E-004	-1.08812E-003	1.98062E-002	-1.23041E-003
	162	162	1.10042E+000	2.87682E-002	0.00000E+000	3.16572E-002	2.87134E-001	3.85554E-002	4.76441E+001	11	...........	6.44038E-002	-4.50153E-003	5.94631E-001	5.89493E-001	-2.81475E-002	-3.79049E-002	6.89964E-001	-4.27190E-002	1.85278E-003	-1.29501E-004	1.71064E-002	1.69586E-002	-8.09753E-004	-1.09045E-003	1.98490E-002	-1.22895E-003
	163	162.98	1.10045E+000	2.84724E-002	0.00000E+000	3.13325E-002	2.84193E-001	3.81140E-002	4.70660E+001	11	...........	6.36470E-002	-4.54252E-003	5.94595E-001	5.89479E-001	-2.81474E-002	-3.79376E-002	6.89816E-001	-4.27144E-002	1.81218E-003	-1.29337E-004	1.69296E-002	1.67839E-002	-8.01425E-004	-1.08018E-003	1.96408E-002	-1.21618E-003
STARTTIMEOFFSET	QUANT	723516.1	Start Time Offset (s)
