EXPLAIN
TAG	PWR800_CHARGE
TITLE	LABEL	PWR Charge	Test Identifier
DATE	LABEL	10/11/2022	Date
TIME	LABEL	13:21:36	Time
NOTES	NOTES	1	Notes...
	
PSTAT	PSTAT	REF3000-21114	Potentiostat
CAPACITY	QUANT	5.30000E-002	Capacity (A-hr)
CELLTYPE	SELECTOR	1	Cell Type
WORKINGCONNECTION	SELECTOR	0	Working Connection
MAXCHARGETIME	VARIABLEANDUNITS	7.20000E+003	s	2.00000E+000	hour(s)	Max Charge Time
CHARGEMODE	MULTIPARAM	0	1.00000E-001	Charge Mode	Constant Current	Amp(s)
CHARGECURRENT	QUANT	0.1	Charge Current (A)
VOLTAGEFINISH	TWOPARAM	T	2.50000E-002	7.20000E+003	Voltage Finish	I (A) <	Max Time(s)
SAMPLETIME	QUANT	1.00000E+000	Sample Period (s)
CHARGESTOPAT1	MULTIPARAM	2	1.10000E+000	Stop At 1	|Voltage| > Limit	V
CHARGESTOPAT2	MULTIPARAM	0	0.00000E+000	Stop At 2	None	N/A
AESELECTOR	AESELECTOR	0x1	T	Set Limits	AE Channels
AESBHCSELECTOR	TOGGLE	F	Save Both Half Cells
IRCOMP	TOGGLE	F	IR Measure
EOC	QUANT	0.2977898	Open Circuit (V)
SEQUENCER	TOGGLE	TRUE	Run as Sequence
PSTATMODEL	IQUANT	5	Pstat Model
PSTATSECTION	LABEL	REF3000-21114	Pstat Section
PSTATSERIALNO	LABEL	21114	Pstat Serial Number
CTRLMODE	IQUANT	0	Control Mode
ELECTROMETER	IQUANT	0	RE=0 or CS=1
IESTAB	IQUANT	0	I/E Stability
CASPEED	IQUANT	4	Control Amp Speed
CONVENTION	IQUANT	1	Current Convention
ICHRANGE	IQUANT	2	Ich Range
ICHRANGEMODE	TOGGLE	T	Ich Auto Range
ICHOFFSETENABLE	TOGGLE	F	Ich Offset Enable
ICHOFFSET	QUANT	0	Ich Offset (V)
ICHFILTER	IQUANT	1	Ich Filter
VCHRANGE	IQUANT	3	Vch Range
VCHRANGEMODE	TOGGLE	T	Vch Auto Range
VCHOFFSETENABLE	TOGGLE	F	Vch Offset Enable
VCHOFFSET	QUANT	0	Vch Offset (V)
VCHFILTER	IQUANT	1	Vch Filter
ACHRANGE	IQUANT	2	Ach Range
ACHOFFSETENABLE	TOGGLE	F	Ach Offset Enable
ACHOFFSET	QUANT	0	Ach Offset (V)
ACHFILTER	IQUANT	1	Ach Filter
IERANGELOWERLIMIT	IQUANT	9	I/E Range Lower Limit
IERANGEMODE	TOGGLE	F	I/E AutoRange
IERANGE	IQUANT	9	I/E Range
POSFEEDENABLE	TOGGLE	F	Positive Feedback IR Comp
POSFEEDRESISTANCE	QUANT	0	Positive Feedback Resistance (ohm)
ACHSELECT	IQUANT	1	Ach Select
SENSECABLEID	IQUANT	13	Sense Cable ID
PWRCABLEID	IQUANT	13	Power Cable ID
DCCALDATE	LABEL		DC Calibration Date
ACCALDATE	LABEL		AC Calibration Date
THERMOSELECT	IQUANT	1	Thermo Select
FRAMEWORKVERSION	LABEL	7.8.6	Framework Version
INSTRUMENTVERSION	LABEL	4.50	Instrument Version
COMPLIANCEVOLTAGE	IQUANT	0	Compliance Voltage
CURVE	TABLE	191
	Pt	T	Vf	Im	Vu	Pwr	Sig	Ach	Temp	IERange	Over	Vf1	Vf2	Vf3	Vf4	Vf5	Vf6	Vf7	Vf8	Pwr1	Pwr2	Pwr3	Pwr4	Pwr5	Pwr6	Pwr7	Pwr8
	#	s	V	A	V	W	V	V	deg C	#	bits	V	V	V	V	V	V	V	V	W	W	W	W	W	W	W	W
	0	1	5.41289E-001	9.98651E-002	0.00000E+000	5.40559E-002	9.94000E-001	3.66007E-002	3.48112E+001	11	...........	6.05739E-002	-3.38903E-003	5.52333E-001	7.15834E-001	-3.13768E-002	-3.94793E-002	6.31026E-001	-4.24471E-002	6.04922E-003	-3.38446E-004	5.51588E-002	7.14869E-002	-3.13345E-003	-3.94261E-003	6.30175E-002	-4.23898E-003
	1	2	6.84946E-001	9.98656E-002	0.00000E+000	6.84025E-002	9.94000E-001	3.68409E-002	3.58572E+001	11	...........	6.10096E-002	-3.36806E-003	5.52295E-001	7.15723E-001	-3.13807E-002	-3.94718E-002	6.31063E-001	-4.25219E-002	6.09276E-003	-3.36353E-004	5.51552E-002	7.14761E-002	-3.13385E-003	-3.94188E-003	6.30215E-002	-4.24648E-003
	2	2.96667	9.32736E-001	9.98663E-002	0.00000E+000	9.31489E-002	9.94000E-001	3.77116E-002	3.91494E+001	11	...........	6.24303E-002	-3.57960E-003	5.52568E-001	7.15878E-001	-3.13820E-002	-3.94733E-002	6.31065E-001	-4.24007E-002	6.23468E-003	-3.57481E-004	5.51829E-002	7.14921E-002	-3.13401E-003	-3.94205E-003	6.30221E-002	-4.23440E-003
	3	3	1.10472E+000	9.44848E-002	0.00000E+000	1.04379E-001	9.40490E-001	3.73800E-002	4.38675E+001	11	...........	6.18750E-002	-3.69167E-003	5.52871E-001	7.15829E-001	-3.13667E-002	-3.94875E-002	6.31079E-001	-4.24542E-002	5.84624E-003	-3.48806E-004	5.22379E-002	6.76349E-002	-2.96367E-003	-3.73097E-003	5.96274E-002	-4.01127E-003
	4	4	1.10126E+000	7.06006E-002	0.00000E+000	7.77499E-002	7.03000E-001	3.70991E-002	3.96988E+001	11	...........	6.14149E-002	-3.62833E-003	5.52515E-001	7.15797E-001	-3.13385E-002	-3.94661E-002	6.31075E-001	-4.24468E-002	4.33593E-003	-2.56163E-004	3.90079E-002	5.05357E-002	-2.21252E-003	-2.78633E-003	4.45543E-002	-2.99677E-003
	5	5	1.10097E+000	5.85834E-002	0.00000E+000	6.44985E-002	5.83505E-001	3.68822E-002	3.89523E+001	11	...........	6.10485E-002	-3.55125E-003	5.52429E-001	7.15710E-001	-3.13426E-002	-3.94769E-002	6.30969E-001	-4.23731E-002	3.57642E-003	-2.08044E-004	3.23631E-002	4.19287E-002	-1.83616E-003	-2.31269E-003	3.69643E-002	-2.48236E-003
	6	6	1.10106E+000	5.45240E-002	0.00000E+000	6.00344E-002	5.43143E-001	3.69649E-002	4.02614E+001	11	...........	6.11771E-002	-3.51486E-003	5.52439E-001	7.15767E-001	-3.13408E-002	-3.94757E-002	6.31082E-001	-4.23936E-002	3.33562E-003	-1.91644E-004	3.01211E-002	3.90265E-002	-1.70883E-003	-2.15237E-003	3.44091E-002	-2.31147E-003
	7	7	1.10095E+000	5.20368E-002	0.00000E+000	5.72900E-002	5.18413E-001	3.72648E-002	3.93567E+001	11	...........	6.17128E-002	-3.43653E-003	5.52427E-001	7.15810E-001	-3.13451E-002	-3.94619E-002	6.31072E-001	-4.25425E-002	3.21134E-003	-1.78826E-004	2.87465E-002	3.72485E-002	-1.63110E-003	-2.05347E-003	3.28390E-002	-2.21378E-003
	8	8	1.10092E+000	5.12647E-002	0.00000E+000	5.64381E-002	5.10737E-001	3.69318E-002	4.00055E+001	11	...........	6.11264E-002	-3.35458E-003	5.52509E-001	7.15801E-001	-3.13678E-002	-3.94764E-002	6.31047E-001	-4.26118E-002	3.13363E-003	-1.71972E-004	2.83242E-002	3.66954E-002	-1.60806E-003	-2.02375E-003	3.23504E-002	-2.18448E-003
	9	9	1.10104E+000	5.04238E-002	0.00000E+000	5.55184E-002	5.02376E-001	3.70415E-002	3.83461E+001	11	...........	6.14410E-002	-3.27375E-003	5.52447E-001	7.15673E-001	-3.13372E-002	-3.94815E-002	6.31137E-001	-4.25382E-002	3.09809E-003	-1.65075E-004	2.78565E-002	3.60870E-002	-1.58014E-003	-1.99081E-003	3.18243E-002	-2.14494E-003
	10	10	1.10095E+000	4.94516E-002	0.00000E+000	5.44436E-002	4.92713E-001	3.69920E-002	3.93880E+001	11	...........	6.12357E-002	-3.27361E-003	5.52295E-001	7.15817E-001	-3.13287E-002	-3.94735E-002	6.31095E-001	-4.25114E-002	3.02820E-003	-1.61885E-004	2.73118E-002	3.53983E-002	-1.54926E-003	-1.95202E-003	3.12086E-002	-2.10225E-003
	11	11	1.10091E+000	4.94670E-002	0.00000E+000	5.44585E-002	4.92862E-001	3.68579E-002	3.99372E+001	11	...........	6.09758E-002	-3.37778E-003	5.52353E-001	7.15738E-001	-3.13532E-002	-3.94519E-002	6.30977E-001	-4.24993E-002	3.01629E-003	-1.67088E-004	2.73232E-002	3.54054E-002	-1.55095E-003	-1.95157E-003	3.12125E-002	-2.10231E-003
	12	12	1.10102E+000	4.91134E-002	0.00000E+000	5.40749E-002	4.89349E-001	3.69476E-002	3.94332E+001	11	...........	6.11532E-002	-3.42819E-003	5.52289E-001	7.15668E-001	-3.13361E-002	-3.94549E-002	6.30881E-001	-4.25104E-002	3.00344E-003	-1.68370E-004	2.71248E-002	3.51489E-002	-1.53902E-003	-1.93776E-003	3.09847E-002	-2.08783E-003
	13	13	1.10095E+000	4.84454E-002	0.00000E+000	5.33360E-002	4.82707E-001	3.68873E-002	3.90841E+001	11	...........	6.10706E-002	-3.29319E-003	5.52164E-001	7.15831E-001	-3.13239E-002	-3.94639E-002	6.30867E-001	-4.25576E-002	2.95858E-003	-1.59540E-004	2.67498E-002	3.46787E-002	-1.51750E-003	-1.91184E-003	3.05626E-002	-2.06172E-003
	14	14	1.10091E+000	4.85387E-002	0.00000E+000	5.34366E-002	4.83635E-001	3.67444E-002	3.94020E+001	11	...........	6.08169E-002	-3.35125E-003	5.52166E-001	7.15777E-001	-3.13212E-002	-3.94553E-002	6.30996E-001	-4.24943E-002	2.95197E-003	-1.62665E-004	2.68014E-002	3.47429E-002	-1.52029E-003	-1.91511E-003	3.06277E-002	-2.06262E-003
	15	15	1.10101E+000	4.83474E-002	0.00000E+000	5.32311E-002	4.81731E-001	3.67734E-002	3.95542E+001	11	...........	6.08829E-002	-3.18806E-003	5.52096E-001	7.15659E-001	-3.13347E-002	-3.94475E-002	6.30958E-001	-4.24539E-002	2.94353E-003	-1.54134E-004	2.66924E-002	3.46002E-002	-1.51495E-003	-1.90718E-003	3.05052E-002	-2.05253E-003
	16	16	1.10096E+000	4.77476E-002	0.00000E+000	5.25680E-002	4.75766E-001	3.66641E-002	3.97118E+001	11	...........	6.07039E-002	-3.26625E-003	5.52036E-001	7.15687E-001	-3.13622E-002	-3.94012E-002	6.30910E-001	-4.25503E-002	2.89847E-003	-1.55956E-004	2.63584E-002	3.41723E-002	-1.49747E-003	-1.88132E-003	3.01245E-002	-2.03168E-003
	17	17	1.10090E+000	4.79305E-002	0.00000E+000	5.27668E-002	4.77583E-001	3.65312E-002	3.91250E+001	11	...........	6.04681E-002	-3.29722E-003	5.51963E-001	7.15836E-001	-3.13724E-002	-3.93936E-002	6.30931E-001	-4.25490E-002	2.89826E-003	-1.58037E-004	2.64558E-002	3.43104E-002	-1.50369E-003	-1.88815E-003	3.02408E-002	-2.03939E-003
	18	18	1.10101E+000	4.77406E-002	0.00000E+000	5.25630E-002	4.75694E-001	3.66324E-002	3.86487E+001	11	...........	6.06554E-002	-3.34833E-003	5.51863E-001	7.15790E-001	-3.13865E-002	-3.93800E-002	6.30850E-001	-4.25833E-002	2.89573E-003	-1.59852E-004	2.63463E-002	3.41723E-002	-1.49841E-003	-1.88003E-003	3.01172E-002	-2.03296E-003
	19	19	1.10096E+000	4.72024E-002	0.00000E+000	5.19681E-002	4.70351E-001	3.66903E-002	3.99956E+001	11	...........	6.07065E-002	-3.48486E-003	5.51864E-001	7.15840E-001	-3.13825E-002	-3.93879E-002	6.30841E-001	-4.25947E-002	2.86549E-003	-1.64494E-004	2.60493E-002	3.37894E-002	-1.48133E-003	-1.85920E-003	2.97772E-002	-2.01057E-003
	20	20	1.10090E+000	4.74011E-002	0.00000E+000	5.21838E-002	4.72323E-001	3.65429E-002	3.97860E+001	11	...........	6.07179E-002	-3.55014E-003	5.52087E-001	7.15885E-001	-3.14261E-002	-3.94021E-002	6.30888E-001	-4.25668E-002	2.87810E-003	-1.68281E-004	2.61695E-002	3.39337E-002	-1.48963E-003	-1.86770E-003	2.99048E-002	-2.01771E-003
	21	21	1.10101E+000	4.72821E-002	0.00000E+000	5.20580E-002	4.71141E-001	3.62904E-002	3.80121E+001	11	...........	6.04900E-002	-3.47194E-003	5.52089E-001	7.15824E-001	-3.14481E-002	-3.93933E-002	6.30840E-001	-4.24919E-002	2.86009E-003	-1.64161E-004	2.61039E-002	3.38456E-002	-1.48693E-003	-1.86260E-003	2.98274E-002	-2.00911E-003
	22	22	1.10097E+000	4.66429E-002	0.00000E+000	5.13523E-002	4.64789E-001	3.60537E-002	3.94492E+001	11	...........	6.00921E-002	-3.36556E-003	5.52116E-001	7.15837E-001	-3.14275E-002	-3.93869E-002	6.30709E-001	-4.25650E-002	2.80287E-003	-1.56979E-004	2.57523E-002	3.33888E-002	-1.46587E-003	-1.83712E-003	2.94181E-002	-1.98536E-003
	23	23	1.10090E+000	4.69593E-002	0.00000E+000	5.16976E-002	4.67935E-001	3.64130E-002	3.97783E+001	11	...........	6.06856E-002	-3.39431E-003	5.52107E-001	7.15853E-001	-3.14267E-002	-3.93611E-002	6.30816E-001	-4.24771E-002	2.84975E-003	-1.59394E-004	2.59266E-002	3.36159E-002	-1.47577E-003	-1.84837E-003	2.96227E-002	-1.99469E-003
	24	24	1.10100E+000	4.67963E-002	0.00000E+000	5.15228E-002	4.66317E-001	3.63568E-002	3.84503E+001	11	...........	6.05776E-002	-3.45056E-003	5.52147E-001	7.15845E-001	-3.13882E-002	-3.93300E-002	6.30855E-001	-4.24222E-002	2.83481E-003	-1.61473E-004	2.58384E-002	3.34989E-002	-1.46885E-003	-1.84050E-003	2.95217E-002	-1.98520E-003
	25	25	1.10098E+000	4.62685E-002	0.00000E+000	5.09405E-002	4.61071E-001	3.60101E-002	3.98328E+001	11	...........	6.00225E-002	-3.47069E-003	5.52027E-001	7.15976E-001	-3.13954E-002	-3.93517E-002	6.30916E-001	-4.24036E-002	2.77715E-003	-1.60584E-004	2.55415E-002	3.31272E-002	-1.45262E-003	-1.82074E-003	2.91915E-002	-1.96195E-003
	26	26	1.10089E+000	4.63519E-002	0.00000E+000	5.10285E-002	4.61899E-001	3.63708E-002	3.68375E+001	11	...........	6.06093E-002	-3.42042E-003	5.52074E-001	7.16022E-001	-3.14060E-002	-3.93747E-002	6.31113E-001	-4.23957E-002	2.80935E-003	-1.58543E-004	2.55896E-002	3.31890E-002	-1.45573E-003	-1.82509E-003	2.92533E-002	-1.96512E-003
	27	27	1.10100E+000	4.62942E-002	0.00000E+000	5.09699E-002	4.61323E-001	3.57765E-002	3.90386E+001	11	...........	5.96189E-002	-3.22681E-003	5.51968E-001	7.16078E-001	-3.13946E-002	-3.94090E-002	6.30977E-001	-4.24799E-002	2.76001E-003	-1.49382E-004	2.55529E-002	3.31502E-002	-1.45339E-003	-1.82441E-003	2.92105E-002	-1.96657E-003
	28	28	1.10098E+000	4.58540E-002	0.00000E+000	5.04843E-002	4.56946E-001	3.64617E-002	3.91627E+001	11	...........	6.07533E-002	-3.45333E-003	5.52199E-001	7.15996E-001	-3.13779E-002	-3.94364E-002	6.31012E-001	-4.25924E-002	2.78578E-003	-1.58349E-004	2.53206E-002	3.28313E-002	-1.43880E-003	-1.80832E-003	2.89344E-002	-1.95303E-003
	29	29	1.10090E+000	4.60204E-002	0.00000E+000	5.06637E-002	4.58598E-001	3.60502E-002	3.91312E+001	11	...........	6.00660E-002	-3.53278E-003	5.52122E-001	7.15864E-001	-3.13931E-002	-3.94467E-002	6.30982E-001	-4.25437E-002	2.76426E-003	-1.62580E-004	2.54089E-002	3.29444E-002	-1.44472E-003	-1.81535E-003	2.90380E-002	-1.95788E-003
	30	30	1.10099E+000	4.59208E-002	0.00000E+000	5.05586E-002	4.57611E-001	3.61959E-002	3.83489E+001	11	...........	6.03036E-002	-3.42403E-003	5.52094E-001	7.15726E-001	-3.14111E-002	-3.94525E-002	6.30993E-001	-4.23440E-002	2.76919E-003	-1.57234E-004	2.53526E-002	3.28667E-002	-1.44242E-003	-1.81169E-003	2.89757E-002	-1.94447E-003
	31	31	1.10099E+000	4.53514E-002	0.00000E+000	4.99312E-002	4.51945E-001	3.61093E-002	3.89434E+001	11	...........	6.01769E-002	-3.36222E-003	5.52121E-001	7.15523E-001	-3.14049E-002	-3.94661E-002	6.30911E-001	-4.23707E-002	2.72911E-003	-1.52481E-004	2.50394E-002	3.24500E-002	-1.42425E-003	-1.78984E-003	2.86127E-002	-1.92157E-003
	32	32	1.10090E+000	4.55646E-002	0.00000E+000	5.01619E-002	4.54067E-001	3.61339E-002	3.87178E+001	11	...........	6.02215E-002	-3.39042E-003	5.52192E-001	7.15447E-001	-3.14442E-002	-3.94586E-002	6.31037E-001	-4.23996E-002	2.74397E-003	-1.54483E-004	2.51604E-002	3.25991E-002	-1.43274E-003	-1.79792E-003	2.87530E-002	-1.93192E-003
	33	33	1.10099E+000	4.54577E-002	0.00000E+000	5.00485E-002	4.53005E-001	3.60572E-002	3.85668E+001	11	...........	6.00965E-002	-3.40361E-003	5.52394E-001	7.15422E-001	-3.14540E-002	-3.94393E-002	6.31052E-001	-4.25457E-002	2.73185E-003	-1.54720E-004	2.51106E-002	3.25215E-002	-1.42983E-003	-1.79282E-003	2.86862E-002	-1.93403E-003
	34	34	1.10099E+000	4.49903E-002	0.00000E+000	4.95339E-002	4.48361E-001	3.61373E-002	3.82973E+001	11	...........	6.02153E-002	-3.41708E-003	5.52280E-001	7.15489E-001	-3.14504E-002	-3.94257E-002	6.31119E-001	-4.25025E-002	2.70911E-003	-1.53736E-004	2.48473E-002	3.21901E-002	-1.41497E-003	-1.77378E-003	2.83943E-002	-1.91220E-003
	35	35	1.10090E+000	4.51768E-002	0.00000E+000	4.97349E-002	4.50215E-001	3.57231E-002	3.93235E+001	11	...........	5.95114E-002	-3.40250E-003	5.52191E-001	7.15561E-001	-3.14611E-002	-3.94033E-002	6.31131E-001	-4.24831E-002	2.68853E-003	-1.53714E-004	2.49462E-002	3.23268E-002	-1.42131E-003	-1.78012E-003	2.85125E-002	-1.91925E-003
	36	36	1.10098E+000	4.51799E-002	0.00000E+000	4.97424E-002	4.50244E-001	3.60712E-002	3.84674E+001	11	...........	6.01035E-002	-3.37208E-003	5.52115E-001	7.15574E-001	-3.14485E-002	-3.93740E-002	6.30940E-001	-4.25325E-002	2.71547E-003	-1.52350E-004	2.49445E-002	3.23296E-002	-1.42084E-003	-1.77892E-003	2.85058E-002	-1.92162E-003
	37	37	1.10100E+000	4.46325E-002	0.00000E+000	4.91403E-002	4.44802E-001	3.60465E-002	3.94552E+001	11	...........	6.00793E-002	-3.35653E-003	5.52199E-001	7.15650E-001	-3.14403E-002	-3.93707E-002	6.30934E-001	-4.25044E-002	2.68149E-003	-1.49810E-004	2.46460E-002	3.19412E-002	-1.40326E-003	-1.75721E-003	2.81602E-002	-1.89708E-003
	38	38	1.10089E+000	4.47509E-002	0.00000E+000	4.92657E-002	4.45978E-001	3.58208E-002	3.92265E+001	11	...........	5.96949E-002	-3.31153E-003	5.52291E-001	7.15702E-001	-3.14281E-002	-3.93929E-002	6.30998E-001	-4.26415E-002	2.67140E-003	-1.48194E-004	2.47155E-002	3.20283E-002	-1.40643E-003	-1.76287E-003	2.82377E-002	-1.90825E-003
	39	39	1.10099E+000	4.47712E-002	0.00000E+000	4.92925E-002	4.46177E-001	3.60595E-002	3.87274E+001	11	...........	6.00914E-002	-3.32931E-003	5.52397E-001	7.15633E-001	-3.14175E-002	-3.94329E-002	6.30874E-001	-4.28257E-002	2.69036E-003	-1.49057E-004	2.47315E-002	3.20397E-002	-1.40660E-003	-1.76546E-003	2.82450E-002	-1.91736E-003
	40	40	1.10100E+000	4.41859E-002	0.00000E+000	4.86487E-002	4.40357E-001	3.60022E-002	3.84408E+001	11	...........	6.00117E-002	-3.33597E-003	5.52512E-001	7.15639E-001	-3.14158E-002	-3.94554E-002	6.30927E-001	-4.27062E-002	2.65167E-003	-1.47403E-004	2.44132E-002	3.16212E-002	-1.38814E-003	-1.74337E-003	2.78781E-002	-1.88701E-003
	41	41	1.10089E+000	4.43781E-002	0.00000E+000	4.88553E-002	4.42271E-001	3.57402E-002	3.86172E+001	11	...........	5.95544E-002	-3.24569E-003	5.52451E-001	7.15758E-001	-3.14171E-002	-3.94694E-002	6.31007E-001	-4.26961E-002	2.64291E-003	-1.44038E-004	2.45167E-002	3.17640E-002	-1.39423E-003	-1.75158E-003	2.80029E-002	-1.89477E-003
	42	42	1.10098E+000	4.43486E-002	0.00000E+000	4.88270E-002	4.41977E-001	3.60086E-002	3.88039E+001	11	...........	5.99936E-002	-3.26153E-003	5.52512E-001	7.15722E-001	-3.14099E-002	-3.94993E-002	6.30934E-001	-4.27104E-002	2.66063E-003	-1.44644E-004	2.45031E-002	3.17412E-002	-1.39298E-003	-1.75174E-003	2.79810E-002	-1.89415E-003
	43	43	1.10101E+000	4.38674E-002	0.00000E+000	4.82982E-002	4.37188E-001	3.59963E-002	3.93286E+001	11	...........	5.99526E-002	-3.27653E-003	5.52564E-001	7.15697E-001	-3.14118E-002	-3.95037E-002	6.30957E-001	-4.27340E-002	2.62996E-003	-1.43733E-004	2.42396E-002	3.13958E-002	-1.37795E-003	-1.73293E-003	2.76784E-002	-1.87463E-003
	44	44	1.10089E+000	4.39387E-002	0.00000E+000	4.83716E-002	4.37899E-001	3.56557E-002	3.88864E+001	11	...........	5.94258E-002	-3.36403E-003	5.52585E-001	7.15614E-001	-3.14217E-002	-3.94862E-002	6.30897E-001	-4.27253E-002	2.61109E-003	-1.47811E-004	2.42799E-002	3.14432E-002	-1.38063E-003	-1.73498E-003	2.77208E-002	-1.87729E-003
	45	45	1.10098E+000	4.39288E-002	0.00000E+000	4.83645E-002	4.37805E-001	3.58695E-002	3.74906E+001	11	...........	5.97719E-002	-3.31472E-003	5.52794E-001	7.15603E-001	-3.14150E-002	-3.94810E-002	6.30885E-001	-4.26518E-002	2.62571E-003	-1.45612E-004	2.42836E-002	3.14356E-002	-1.38002E-003	-1.73435E-003	2.77140E-002	-1.87364E-003
	46	46	1.10101E+000	4.34588E-002	0.00000E+000	4.78485E-002	4.33128E-001	3.59778E-002	3.92191E+001	11	...........	5.99526E-002	-3.36389E-003	5.52718E-001	7.15711E-001	-3.14172E-002	-3.95131E-002	6.30836E-001	-4.25262E-002	2.60547E-003	-1.46190E-004	2.40204E-002	3.11039E-002	-1.36535E-003	-1.71719E-003	2.74154E-002	-1.84814E-003
	47	47	1.10089E+000	4.34926E-002	0.00000E+000	4.78806E-002	4.33462E-001	3.56236E-002	3.91269E+001	11	...........	5.93737E-002	-3.38500E-003	5.52732E-001	7.15731E-001	-3.14510E-002	-3.95351E-002	6.30807E-001	-4.23935E-002	2.58232E-003	-1.47222E-004	2.40397E-002	3.11290E-002	-1.36788E-003	-1.71949E-003	2.74354E-002	-1.84380E-003
	48	48	1.10097E+000	4.35715E-002	0.00000E+000	4.79709E-002	4.34248E-001	3.58553E-002	3.85535E+001	11	...........	5.97515E-002	-3.42958E-003	5.52597E-001	7.15741E-001	-3.14662E-002	-3.95496E-002	6.30938E-001	-4.23835E-002	2.60346E-003	-1.49432E-004	2.40775E-002	3.11859E-002	-1.37103E-003	-1.72323E-003	2.74909E-002	-1.84671E-003
	49	49	1.10102E+000	4.30506E-002	0.00000E+000	4.73994E-002	4.29073E-001	3.59623E-002	3.95151E+001	11	...........	5.99215E-002	-3.44236E-003	5.52585E-001	7.15733E-001	-3.14721E-002	-3.94975E-002	6.30979E-001	-4.24569E-002	2.57966E-003	-1.48196E-004	2.37891E-002	3.08127E-002	-1.35489E-003	-1.70039E-003	2.71640E-002	-1.82780E-003
	50	50	1.10088E+000	4.31710E-002	0.00000E+000	4.75263E-002	4.30272E-001	3.57216E-002	3.92680E+001	11	...........	5.95237E-002	-3.60361E-003	5.52632E-001	7.15661E-001	-3.14686E-002	-3.94900E-002	6.31058E-001	-4.26378E-002	2.56970E-003	-1.55572E-004	2.38577E-002	3.08958E-002	-1.35853E-003	-1.70482E-003	2.72434E-002	-1.84072E-003
	51	51	1.10097E+000	4.31833E-002	0.00000E+000	4.75436E-002	4.30388E-001	3.57227E-002	3.88670E+001	11	...........	5.95346E-002	-3.39736E-003	5.52629E-001	7.15687E-001	-3.14607E-002	-3.94793E-002	6.31114E-001	-4.27037E-002	2.57090E-003	-1.46709E-004	2.38643E-002	3.09057E-002	-1.35857E-003	-1.70484E-003	2.72536E-002	-1.84409E-003
	52	52	1.10102E+000	4.26922E-002	0.00000E+000	4.70048E-002	4.25506E-001	3.57698E-002	3.94196E+001	11	...........	5.96225E-002	-3.23750E-003	5.52498E-001	7.15693E-001	-3.14714E-002	-3.94675E-002	6.31093E-001	-4.27182E-002	2.54542E-003	-1.38216E-004	2.35874E-002	3.05545E-002	-1.34358E-003	-1.68495E-003	2.69428E-002	-1.82373E-003
	53	53	1.10089E+000	4.27918E-002	0.00000E+000	4.71089E-002	4.26495E-001	3.56854E-002	3.83392E+001	11	...........	5.94717E-002	-3.20847E-003	5.52477E-001	7.15918E-001	-3.14613E-002	-3.94562E-002	6.30985E-001	-4.26331E-002	2.54490E-003	-1.37296E-004	2.36415E-002	3.06354E-002	-1.34628E-003	-1.68840E-003	2.70010E-002	-1.82434E-003
	54	54	1.10096E+000	4.28303E-002	0.00000E+000	4.71545E-002	4.26879E-001	3.56131E-002	3.86853E+001	11	...........	5.93644E-002	-3.25903E-003	5.52522E-001	7.16063E-001	-3.14581E-002	-3.94489E-002	6.30869E-001	-4.25681E-002	2.54260E-003	-1.39585E-004	2.36647E-002	3.06692E-002	-1.34736E-003	-1.68961E-003	2.70203E-002	-1.82320E-003
	55	55	1.10102E+000	4.23192E-002	0.00000E+000	4.65945E-002	4.21800E-001	3.57143E-002	3.95015E+001	11	...........	5.95181E-002	-3.34306E-003	5.52543E-001	7.15871E-001	-3.14428E-002	-3.94608E-002	6.30985E-001	-4.25175E-002	2.51876E-003	-1.41476E-004	2.33832E-002	3.02951E-002	-1.33063E-003	-1.66995E-003	2.67028E-002	-1.79931E-003
	56	56	1.10089E+000	4.24017E-002	0.00000E+000	4.66795E-002	4.22619E-001	3.57328E-002	3.84468E+001	11	...........	5.95543E-002	-3.41472E-003	5.52553E-001	7.15886E-001	-3.14193E-002	-3.94674E-002	6.30818E-001	-4.25790E-002	2.52520E-003	-1.44790E-004	2.34292E-002	3.03548E-002	-1.33223E-003	-1.67348E-003	2.67478E-002	-1.80542E-003
	57	57	1.10096E+000	4.24263E-002	0.00000E+000	4.67098E-002	4.22866E-001	3.56216E-002	3.89243E+001	11	...........	5.93707E-002	-3.37792E-003	5.52430E-001	7.16040E-001	-3.14312E-002	-3.94574E-002	6.30822E-001	-4.24557E-002	2.51888E-003	-1.43313E-004	2.34376E-002	3.03789E-002	-1.33351E-003	-1.67403E-003	2.67635E-002	-1.80124E-003
	58	58	1.10103E+000	4.19663E-002	0.00000E+000	4.62060E-002	4.18291E-001	3.55706E-002	3.86118E+001	11	...........	5.92771E-002	-3.35569E-003	5.52401E-001	7.16113E-001	-3.14160E-002	-3.94679E-002	6.30805E-001	-4.23908E-002	2.48764E-003	-1.40826E-004	2.31823E-002	3.00526E-002	-1.31841E-003	-1.65632E-003	2.64726E-002	-1.77899E-003
	59	59	1.10089E+000	4.20029E-002	0.00000E+000	4.62405E-002	4.18652E-001	3.58147E-002	3.75464E+001	11	...........	5.96860E-002	-3.44069E-003	5.52344E-001	7.16051E-001	-3.14283E-002	-3.94812E-002	6.30790E-001	-4.24228E-002	2.50699E-003	-1.44519E-004	2.32001E-002	3.00762E-002	-1.32008E-003	-1.65833E-003	2.64950E-002	-1.78188E-003
	60	60	1.10096E+000	4.21017E-002	0.00000E+000	4.63524E-002	4.19633E-001	3.54901E-002	3.89583E+001	11	...........	5.91428E-002	-3.37861E-003	5.52444E-001	7.15930E-001	-3.14496E-002	-3.94640E-002	6.30704E-001	-4.24911E-002	2.49001E-003	-1.42245E-004	2.32588E-002	3.01419E-002	-1.32408E-003	-1.66150E-003	2.65537E-002	-1.78895E-003
	61	61	1.10103E+000	4.15822E-002	0.00000E+000	4.57830E-002	4.14466E-001	3.57783E-002	3.79357E+001	11	...........	5.96175E-002	-3.37986E-003	5.52385E-001	7.15954E-001	-3.14585E-002	-3.94872E-002	6.30691E-001	-4.25129E-002	2.47903E-003	-1.40542E-004	2.29694E-002	2.97709E-002	-1.30811E-003	-1.64196E-003	2.62255E-002	-1.76778E-003
	62	62	1.10089E+000	4.17002E-002	0.00000E+000	4.59071E-002	4.15639E-001	3.53496E-002	3.87332E+001	11	...........	5.89237E-002	-3.24681E-003	5.52252E-001	7.15935E-001	-3.14553E-002	-3.94739E-002	6.30855E-001	-4.24331E-002	2.45713E-003	-1.35392E-004	2.30290E-002	2.98546E-002	-1.31169E-003	-1.64607E-003	2.63068E-002	-1.76947E-003
	63	63	1.10096E+000	4.16730E-002	0.00000E+000	4.58801E-002	4.15369E-001	3.57534E-002	3.86620E+001	11	...........	5.95775E-002	-3.22347E-003	5.52323E-001	7.16066E-001	-3.14344E-002	-3.94792E-002	6.31106E-001	-4.24687E-002	2.48277E-003	-1.34332E-004	2.30169E-002	2.98406E-002	-1.30997E-003	-1.64521E-003	2.63000E-002	-1.76980E-003
	64	64	1.10103E+000	4.12735E-002	0.00000E+000	4.54434E-002	4.11401E-001	3.55103E-002	3.75539E+001	11	...........	5.91757E-002	-3.19944E-003	5.52292E-001	7.16155E-001	-3.14226E-002	-3.94892E-002	6.31040E-001	-4.24569E-002	2.44239E-003	-1.32052E-004	2.27950E-002	2.95582E-002	-1.29692E-003	-1.62986E-003	2.60452E-002	-1.75235E-003
	65	65	1.10089E+000	4.13252E-002	0.00000E+000	4.54943E-002	4.11914E-001	3.55563E-002	3.90130E+001	11	...........	5.92701E-002	-3.07319E-003	5.52261E-001	7.16041E-001	-3.14299E-002	-3.94953E-002	6.30904E-001	-4.24201E-002	2.44935E-003	-1.27000E-004	2.28223E-002	2.95905E-002	-1.29884E-003	-1.63215E-003	2.60722E-002	-1.75302E-003
	66	66	1.10096E+000	4.13543E-002	0.00000E+000	4.55293E-002	4.12202E-001	3.56408E-002	3.83146E+001	11	...........	5.93999E-002	-2.97847E-003	5.52394E-001	7.16015E-001	-3.14371E-002	-3.95040E-002	6.30920E-001	-4.23557E-002	2.45644E-003	-1.23173E-004	2.28439E-002	2.96103E-002	-1.30006E-003	-1.63366E-003	2.60913E-002	-1.75159E-003
	67	67	1.10103E+000	4.08328E-002	0.00000E+000	4.49583E-002	4.07021E-001	3.53077E-002	3.79045E+001	11	...........	5.88489E-002	-3.10264E-003	5.52402E-001	7.16089E-001	-3.14400E-002	-3.94767E-002	6.30777E-001	-4.22551E-002	2.40297E-003	-1.26689E-004	2.25561E-002	2.92399E-002	-1.28378E-003	-1.61194E-003	2.57564E-002	-1.72540E-003
	68	68	1.10089E+000	4.09477E-002	0.00000E+000	4.50788E-002	4.08164E-001	3.56426E-002	3.85324E+001	11	...........	5.93937E-002	-3.20639E-003	5.52426E-001	7.16205E-001	-3.14396E-002	-3.94754E-002	6.30753E-001	-4.23621E-002	2.43204E-003	-1.31294E-004	2.26205E-002	2.93269E-002	-1.28738E-003	-1.61643E-003	2.58279E-002	-1.73463E-003
	69	69	1.10095E+000	4.10308E-002	0.00000E+000	4.51728E-002	4.08986E-001	3.57005E-002	3.83760E+001	11	...........	5.94864E-002	-3.13625E-003	5.52382E-001	7.16215E-001	-3.14537E-002	-3.94585E-002	6.30593E-001	-4.24799E-002	2.44077E-003	-1.28683E-004	2.26647E-002	2.93869E-002	-1.29057E-003	-1.61901E-003	2.58737E-002	-1.74298E-003
	70	70	1.10104E+000	4.05395E-002	0.00000E+000	4.46356E-002	4.04103E-001	3.52213E-002	3.75170E+001	11	...........	5.86847E-002	-3.37319E-003	5.52309E-001	7.16122E-001	-3.14464E-002	-3.94446E-002	6.30616E-001	-4.24999E-002	2.37905E-003	-1.36748E-004	2.23904E-002	2.90312E-002	-1.27482E-003	-1.59907E-003	2.55649E-002	-1.72292E-003
	71	71	1.10088E+000	4.06105E-002	0.00000E+000	4.47073E-002	4.04811E-001	3.57010E-002	3.81487E+001	11	...........	5.94943E-002	-3.42486E-003	5.52313E-001	7.16218E-001	-3.14415E-002	-3.94475E-002	6.30523E-001	-4.25714E-002	2.41609E-003	-1.39085E-004	2.24297E-002	2.90860E-002	-1.27686E-003	-1.60198E-003	2.56059E-002	-1.72885E-003
	72	72	1.10095E+000	4.06376E-002	0.00000E+000	4.47400E-002	4.05078E-001	3.51457E-002	3.78618E+001	11	...........	5.85656E-002	-3.42139E-003	5.52112E-001	7.16160E-001	-3.14501E-002	-3.94385E-002	6.30665E-001	-4.25464E-002	2.37996E-003	-1.39037E-004	2.24365E-002	2.91030E-002	-1.27806E-003	-1.60268E-003	2.56287E-002	-1.72898E-003
	73	73	1.10104E+000	4.01736E-002	0.00000E+000	4.42328E-002	4.00469E-001	3.54986E-002	3.81854E+001	11	...........	5.91540E-002	-3.47694E-003	5.51953E-001	7.16269E-001	-3.14554E-002	-3.94564E-002	6.30686E-001	-4.26546E-002	2.37643E-003	-1.39682E-004	2.21740E-002	2.87751E-002	-1.26368E-003	-1.58511E-003	2.53370E-002	-1.71359E-003
	74	74	1.10088E+000	4.02139E-002	0.00000E+000	4.42709E-002	4.00864E-001	3.55632E-002	3.68024E+001	11	...........	5.92515E-002	-3.54875E-003	5.51926E-001	7.16304E-001	-3.14651E-002	-3.94649E-002	6.30685E-001	-4.25954E-002	2.38274E-003	-1.42709E-004	2.21951E-002	2.88054E-002	-1.26534E-003	-1.58704E-003	2.53623E-002	-1.71293E-003
	75	75	1.10095E+000	4.03690E-002	0.00000E+000	4.44442E-002	4.02407E-001	3.57127E-002	3.87441E+001	11	...........	5.95069E-002	-3.45972E-003	5.51918E-001	7.16458E-001	-3.14760E-002	-3.94587E-002	6.30772E-001	-4.25478E-002	2.40224E-003	-1.39666E-004	2.22804E-002	2.89227E-002	-1.27065E-003	-1.59291E-003	2.54637E-002	-1.71761E-003
	76	76	1.10104E+000	3.99358E-002	0.00000E+000	4.39709E-002	3.98101E-001	3.52562E-002	3.91324E+001	11	...........	5.87469E-002	-3.33528E-003	5.51787E-001	7.16604E-001	-3.14899E-002	-3.94722E-002	6.30729E-001	-4.24251E-002	2.34611E-003	-1.33197E-004	2.20361E-002	2.86182E-002	-1.25757E-003	-1.57636E-003	2.51887E-002	-1.69428E-003
	77	77	1.10089E+000	3.97937E-002	0.00000E+000	4.38084E-002	3.96689E-001	3.53215E-002	3.78715E+001	11	...........	5.88539E-002	-3.40306E-003	5.51715E-001	7.16707E-001	-3.14806E-002	-3.94646E-002	6.30626E-001	-4.24429E-002	2.34201E-003	-1.35420E-004	2.19548E-002	2.85204E-002	-1.25273E-003	-1.57044E-003	2.50949E-002	-1.68896E-003
	78	78	1.10095E+000	3.99939E-002	0.00000E+000	4.40311E-002	3.98677E-001	3.54001E-002	3.78315E+001	11	...........	5.89924E-002	-3.47236E-003	5.51681E-001	7.16794E-001	-3.14797E-002	-3.94533E-002	6.30744E-001	-4.25199E-002	2.35933E-003	-1.38873E-004	2.20639E-002	2.86674E-002	-1.25900E-003	-1.57789E-003	2.52259E-002	-1.70053E-003
	79	79	1.10104E+000	3.95891E-002	0.00000E+000	4.35891E-002	3.94655E-001	3.54009E-002	3.84518E+001	11	...........	5.89889E-002	-3.41556E-003	5.51662E-001	7.16902E-001	-3.14535E-002	-3.94451E-002	6.30733E-001	-4.24836E-002	2.33531E-003	-1.35219E-004	2.18398E-002	2.83815E-002	-1.24521E-003	-1.56160E-003	2.49701E-002	-1.68189E-003
	80	80	1.10089E+000	3.95343E-002	0.00000E+000	4.35227E-002	3.94111E-001	3.53214E-002	3.86785E+001	11	...........	5.88660E-002	-3.38306E-003	5.51689E-001	7.16974E-001	-3.14549E-002	-3.94575E-002	6.30698E-001	-4.23939E-002	2.32722E-003	-1.33747E-004	2.18106E-002	2.83450E-002	-1.24354E-003	-1.55992E-003	2.49342E-002	-1.67601E-003
	81	81	1.10095E+000	3.96266E-002	0.00000E+000	4.36267E-002	3.95028E-001	3.52229E-002	3.84739E+001	11	...........	5.87160E-002	-3.33444E-003	5.51812E-001	7.16946E-001	-3.14637E-002	-3.94481E-002	6.30636E-001	-4.24661E-002	2.32672E-003	-1.32133E-004	2.18664E-002	2.84101E-002	-1.24680E-003	-1.56319E-003	2.49900E-002	-1.68279E-003
	82	82	1.10104E+000	3.92386E-002	0.00000E+000	4.32033E-002	3.91166E-001	3.55393E-002	3.91734E+001	11	...........	5.92442E-002	-3.30681E-003	5.51761E-001	7.16726E-001	-3.14335E-002	-3.94572E-002	6.30683E-001	-4.24946E-002	2.32466E-003	-1.29754E-004	2.16503E-002	2.81233E-002	-1.23340E-003	-1.54824E-003	2.47471E-002	-1.66743E-003
	83	83	1.10089E+000	3.91998E-002	0.00000E+000	4.31547E-002	3.90781E-001	3.51525E-002	3.90935E+001	11	...........	5.85637E-002	-3.17681E-003	5.51788E-001	7.16677E-001	-3.14314E-002	-3.94381E-002	6.30690E-001	-4.25282E-002	2.29569E-003	-1.24530E-004	2.16300E-002	2.80936E-002	-1.23211E-003	-1.54597E-003	2.47229E-002	-1.66710E-003
	84	84	1.10094E+000	3.92684E-002	0.00000E+000	4.32322E-002	3.91462E-001	3.53880E-002	3.89563E+001	11	...........	5.89556E-002	-3.04139E-003	5.51720E-001	7.16666E-001	-3.14237E-002	-3.94376E-002	6.30534E-001	-4.24806E-002	2.31509E-003	-1.19430E-004	2.16651E-002	2.81423E-002	-1.23396E-003	-1.54865E-003	2.47600E-002	-1.66814E-003
	85	85	1.10104E+000	3.89518E-002	0.00000E+000	4.28875E-002	3.88317E-001	3.53159E-002	3.86177E+001	11	...........	5.88614E-002	-3.08097E-003	5.51599E-001	7.16736E-001	-3.14172E-002	-3.94590E-002	6.30734E-001	-4.25508E-002	2.29276E-003	-1.20009E-004	2.14858E-002	2.79182E-002	-1.22376E-003	-1.53700E-003	2.45682E-002	-1.65743E-003
	86	86	1.10089E+000	3.89030E-002	0.00000E+000	4.28279E-002	3.87829E-001	3.53099E-002	3.87012E+001	11	...........	5.88449E-002	-3.06083E-003	5.51652E-001	7.16908E-001	-3.14075E-002	-3.94524E-002	6.30801E-001	-4.25128E-002	2.28924E-003	-1.19075E-004	2.14609E-002	2.78898E-002	-1.22184E-003	-1.53481E-003	2.45400E-002	-1.65387E-003
	87	87	1.10094E+000	3.89717E-002	0.00000E+000	4.29055E-002	3.88513E-001	3.51727E-002	3.90115E+001	11	...........	5.86315E-002	-3.15764E-003	5.51682E-001	7.16905E-001	-3.14096E-002	-3.94368E-002	6.30669E-001	-4.24337E-002	2.28497E-003	-1.23059E-004	2.15000E-002	2.79390E-002	-1.22408E-003	-1.53692E-003	2.45783E-002	-1.65372E-003
	88	88	1.10104E+000	3.86720E-002	0.00000E+000	4.25794E-002	3.85535E-001	3.51051E-002	3.86995E+001	11	...........	5.84903E-002	-3.16778E-003	5.51516E-001	7.16803E-001	-3.14219E-002	-3.94224E-002	6.30723E-001	-4.25881E-002	2.26193E-003	-1.22504E-004	2.13282E-002	2.77202E-002	-1.21515E-003	-1.52454E-003	2.43913E-002	-1.64696E-003
	89	89	1.10089E+000	3.84584E-002	0.00000E+000	4.23385E-002	3.83411E-001	3.50362E-002	3.87937E+001	11	...........	5.83750E-002	-3.25306E-003	5.51620E-001	7.16736E-001	-3.14226E-002	-3.94414E-002	6.30758E-001	-4.26328E-002	2.24501E-003	-1.25107E-004	2.12144E-002	2.75645E-002	-1.20846E-003	-1.51685E-003	2.42580E-002	-1.63959E-003
	90	90	1.10094E+000	3.86265E-002	0.00000E+000	4.25255E-002	3.85085E-001	3.55082E-002	3.85149E+001	11	...........	5.91610E-002	-3.15500E-003	5.51578E-001	7.16708E-001	-3.14337E-002	-3.94576E-002	6.30788E-001	-4.25061E-002	2.28518E-003	-1.21867E-004	2.13056E-002	2.76839E-002	-1.21418E-003	-1.52411E-003	2.43652E-002	-1.64186E-003
	91	91	1.10104E+000	3.82416E-002	0.00000E+000	4.21054E-002	3.81256E-001	3.48737E-002	3.85133E+001	11	...........	5.81014E-002	-3.23153E-003	5.51663E-001	7.16618E-001	-3.14099E-002	-3.94367E-002	6.30582E-001	-4.24300E-002	2.22189E-003	-1.23579E-004	2.10965E-002	2.74046E-002	-1.20116E-003	-1.50812E-003	2.41144E-002	-1.62259E-003
	92	92	1.10089E+000	3.81683E-002	0.00000E+000	4.20192E-002	3.80525E-001	3.51961E-002	3.79046E+001	11	...........	5.86418E-002	-3.35917E-003	5.51879E-001	7.16550E-001	-3.14136E-002	-3.94122E-002	6.30555E-001	-4.24535E-002	2.23826E-003	-1.28214E-004	2.10643E-002	2.73495E-002	-1.19900E-003	-1.50430E-003	2.40672E-002	-1.62038E-003
	93	93	1.10094E+000	3.83479E-002	0.00000E+000	4.22186E-002	3.82309E-001	3.53357E-002	3.79797E+001	11	...........	5.88864E-002	-3.22889E-003	5.51932E-001	7.16710E-001	-3.14137E-002	-3.93894E-002	6.30715E-001	-4.24496E-002	2.25817E-003	-1.23821E-004	2.11654E-002	2.74843E-002	-1.20465E-003	-1.51050E-003	2.41866E-002	-1.62785E-003
	94	94	1.10104E+000	3.79906E-002	0.00000E+000	4.18293E-002	3.78762E-001	3.50236E-002	3.89990E+001	11	...........	5.83753E-002	-3.37667E-003	5.51767E-001	7.16626E-001	-3.14146E-002	-3.93808E-002	6.30736E-001	-4.24192E-002	2.21771E-003	-1.28282E-004	2.09620E-002	2.72251E-002	-1.19346E-003	-1.49610E-003	2.39621E-002	-1.61153E-003
	95	95	1.10090E+000	3.77968E-002	0.00000E+000	4.16104E-002	3.76839E-001	3.51053E-002	3.83539E+001	11	...........	5.84967E-002	-3.25917E-003	5.51729E-001	7.16604E-001	-3.14122E-002	-3.93950E-002	6.30761E-001	-4.24336E-002	2.21099E-003	-1.23186E-004	2.08536E-002	2.70853E-002	-1.18728E-003	-1.48901E-003	2.38408E-002	-1.60386E-003
	96	96	1.10094E+000	3.79992E-002	0.00000E+000	4.18347E-002	3.78849E-001	3.53811E-002	3.71331E+001	11	...........	5.89532E-002	-3.34056E-003	5.51898E-001	7.16571E-001	-3.14144E-002	-3.94083E-002	6.30672E-001	-4.23837E-002	2.24018E-003	-1.26939E-004	2.09717E-002	2.72292E-002	-1.19373E-003	-1.49749E-003	2.39651E-002	-1.61055E-003
	97	97	1.10104E+000	3.77021E-002	0.00000E+000	4.15114E-002	3.75891E-001	3.50038E-002	3.92165E+001	11	...........	5.83361E-002	-3.31972E-003	5.51757E-001	7.16607E-001	-3.14243E-002	-3.93918E-002	6.30653E-001	-4.23376E-002	2.19939E-003	-1.25161E-004	2.08024E-002	2.70176E-002	-1.18476E-003	-1.48515E-003	2.37769E-002	-1.59622E-003
	98	98	1.10090E+000	3.75395E-002	0.00000E+000	4.13272E-002	3.74279E-001	3.50605E-002	3.76551E+001	11	...........	5.84171E-002	-3.36514E-003	5.51698E-001	7.16549E-001	-3.13926E-002	-3.94019E-002	6.30517E-001	-4.23682E-002	2.19295E-003	-1.26326E-004	2.07105E-002	2.68989E-002	-1.17846E-003	-1.47913E-003	2.36693E-002	-1.59048E-003
	99	99	1.10094E+000	3.76529E-002	0.00000E+000	4.14535E-002	3.75407E-001	3.51599E-002	3.84398E+001	11	...........	5.85976E-002	-3.43125E-003	5.51434E-001	7.16345E-001	-3.14040E-002	-3.94176E-002	6.30433E-001	-4.25179E-002	2.20637E-003	-1.29197E-004	2.07631E-002	2.69725E-002	-1.18245E-003	-1.48419E-003	2.37377E-002	-1.60092E-003
	100	100	1.10103E+000	3.74054E-002	0.00000E+000	4.11846E-002	3.72944E-001	3.50418E-002	3.81536E+001	11	...........	5.84019E-002	-3.44264E-003	5.51551E-001	7.16213E-001	-3.14124E-002	-3.94156E-002	6.30463E-001	-4.25432E-002	2.18455E-003	-1.28773E-004	2.06309E-002	2.67902E-002	-1.17499E-003	-1.47435E-003	2.35827E-002	-1.59134E-003
	101	101	1.10090E+000	3.71511E-002	0.00000E+000	4.08997E-002	3.70417E-001	3.48522E-002	3.81523E+001	11	...........	5.80864E-002	-3.43847E-003	5.51546E-001	7.16319E-001	-3.13796E-002	-3.94232E-002	6.30497E-001	-4.25499E-002	2.15797E-003	-1.27743E-004	2.04905E-002	2.66121E-002	-1.16579E-003	-1.46462E-003	2.34237E-002	-1.58077E-003
	102	102	1.10094E+000	3.73993E-002	0.00000E+000	4.11743E-002	3.72885E-001	3.51491E-002	3.91483E+001	11	...........	5.85789E-002	-3.36208E-003	5.51531E-001	7.16282E-001	-3.13997E-002	-3.94307E-002	6.30457E-001	-4.25732E-002	2.19081E-003	-1.25740E-004	2.06269E-002	2.67885E-002	-1.17433E-003	-1.47468E-003	2.35787E-002	-1.59221E-003
	103	103	1.10103E+000	3.70665E-002	0.00000E+000	4.08115E-002	3.69581E-001	3.50306E-002	3.81190E+001	11	...........	5.83862E-002	-3.31583E-003	5.51572E-001	7.16397E-001	-3.13835E-002	-3.94311E-002	6.30494E-001	-4.26576E-002	2.16417E-003	-1.22906E-004	2.04449E-002	2.65544E-002	-1.16328E-003	-1.46157E-003	2.33702E-002	-1.58117E-003
	104	104	1.10090E+000	3.69108E-002	0.00000E+000	4.06352E-002	3.68029E-001	3.48853E-002	3.87799E+001	11	...........	5.81465E-002	-3.40333E-003	5.51552E-001	7.16721E-001	-3.14075E-002	-3.94239E-002	6.30372E-001	-4.26518E-002	2.14623E-003	-1.25620E-004	2.03582E-002	2.64548E-002	-1.15928E-003	-1.45517E-003	2.32675E-002	-1.57431E-003
	105	105	1.10093E+000	3.70441E-002	0.00000E+000	4.07831E-002	3.69354E-001	3.48994E-002	3.83030E+001	11	...........	5.81593E-002	-3.53444E-003	5.51446E-001	7.16662E-001	-3.14040E-002	-3.94292E-002	6.30362E-001	-4.27131E-002	2.15446E-003	-1.30930E-004	2.04278E-002	2.65481E-002	-1.16333E-003	-1.46062E-003	2.33512E-002	-1.58227E-003
	106	106	1.10104E+000	3.67859E-002	0.00000E+000	4.05026E-002	3.66790E-001	3.48483E-002	3.89927E+001	11	...........	5.80886E-002	-3.39750E-003	5.51237E-001	7.16499E-001	-3.14067E-002	-3.94360E-002	6.30304E-001	-4.26250E-002	2.13684E-003	-1.24980E-004	2.02777E-002	2.63571E-002	-1.15532E-003	-1.45069E-003	2.31863E-002	-1.56800E-003
	107	107	1.10091E+000	3.65614E-002	0.00000E+000	4.02507E-002	3.64551E-001	3.53031E-002	3.82856E+001	11	...........	5.88256E-002	-3.38472E-003	5.51185E-001	7.16514E-001	-3.13972E-002	-3.94108E-002	6.30461E-001	-4.25824E-002	2.15075E-003	-1.23750E-004	2.01521E-002	2.61968E-002	-1.14793E-003	-1.44092E-003	2.30506E-002	-1.55687E-003
	108	108	1.10093E+000	3.67368E-002	0.00000E+000	4.04448E-002	3.66298E-001	3.46569E-002	3.75509E+001	11	...........	5.77411E-002	-3.42681E-003	5.51053E-001	7.16647E-001	-3.13800E-002	-3.94133E-002	6.30482E-001	-4.24821E-002	2.12122E-003	-1.25890E-004	2.02439E-002	2.63273E-002	-1.15280E-003	-1.44792E-003	2.31619E-002	-1.56066E-003
	109	109	1.10103E+000	3.64767E-002	0.00000E+000	4.01620E-002	3.63713E-001	3.50213E-002	3.77642E+001	11	...........	5.83653E-002	-3.49292E-003	5.50949E-001	7.16790E-001	-3.13436E-002	-3.94233E-002	6.30558E-001	-4.24435E-002	2.12897E-003	-1.27410E-004	2.00968E-002	2.61461E-002	-1.14331E-003	-1.43803E-003	2.30007E-002	-1.54820E-003
	110	110	1.10091E+000	3.62472E-002	0.00000E+000	3.99050E-002	3.61429E-001	3.49320E-002	3.80694E+001	11	...........	5.82012E-002	-3.39042E-003	5.51071E-001	7.16729E-001	-3.13583E-002	-3.94146E-002	6.30568E-001	-4.26835E-002	2.10963E-003	-1.22893E-004	1.99748E-002	2.59795E-002	-1.13665E-003	-1.42867E-003	2.28563E-002	-1.54716E-003
	111	111	1.10093E+000	3.64498E-002	0.00000E+000	4.01287E-002	3.63445E-001	3.49802E-002	3.81023E+001	11	...........	5.83024E-002	-3.28819E-003	5.51266E-001	7.16811E-001	-3.13889E-002	-3.94061E-002	6.30572E-001	-4.26593E-002	2.12511E-003	-1.19854E-004	2.00936E-002	2.61276E-002	-1.14412E-003	-1.43635E-003	2.29842E-002	-1.55493E-003
	112	112	1.10103E+000	3.62131E-002	0.00000E+000	3.98716E-002	3.61092E-001	3.48186E-002	3.88299E+001	11	...........	5.80136E-002	-3.48833E-003	5.51209E-001	7.16783E-001	-3.13918E-002	-3.94106E-002	6.30463E-001	-4.26558E-002	2.10085E-003	-1.26323E-004	1.99610E-002	2.59569E-002	-1.13679E-003	-1.42718E-003	2.28310E-002	-1.54470E-003
	113	113	1.10091E+000	3.60077E-002	0.00000E+000	3.96412E-002	3.59048E-001	3.49947E-002	3.82001E+001	11	...........	5.83132E-002	-3.39278E-003	5.51430E-001	7.16734E-001	-3.13825E-002	-3.94247E-002	6.30440E-001	-4.25807E-002	2.09972E-003	-1.22166E-004	1.98557E-002	2.58079E-002	-1.13001E-003	-1.41959E-003	2.27007E-002	-1.53323E-003
	114	114	1.10093E+000	3.61326E-002	0.00000E+000	3.97796E-002	3.60285E-001	3.47736E-002	3.83819E+001	11	...........	5.79401E-002	-3.27528E-003	5.51398E-001	7.16704E-001	-3.13793E-002	-3.94418E-002	6.30546E-001	-4.26776E-002	2.09353E-003	-1.18344E-004	1.99235E-002	2.58964E-002	-1.13382E-003	-1.42514E-003	2.27833E-002	-1.54205E-003
	115	115	1.10103E+000	3.59297E-002	0.00000E+000	3.95596E-002	3.58271E-001	3.50475E-002	3.75873E+001	11	...........	5.84085E-002	-3.34458E-003	5.51632E-001	7.16877E-001	-3.13922E-002	-3.94614E-002	6.30622E-001	-4.27110E-002	2.09860E-003	-1.20170E-004	1.98200E-002	2.57572E-002	-1.12791E-003	-1.41784E-003	2.26581E-002	-1.53459E-003
	116	116	1.10092E+000	3.57349E-002	0.00000E+000	3.93411E-002	3.56333E-001	3.45774E-002	3.91150E+001	11	...........	5.79893E-002	-3.42972E-003	5.51820E-001	7.16924E-001	-3.14043E-002	-3.94535E-002	6.30623E-001	-4.26400E-002	2.07224E-003	-1.22561E-004	1.97192E-002	2.56192E-002	-1.12223E-003	-1.40987E-003	2.25352E-002	-1.52374E-003
	117	117	1.10093E+000	3.58639E-002	0.00000E+000	3.94837E-002	3.57610E-001	3.47777E-002	3.73355E+001	11	...........	5.79253E-002	-3.37153E-003	5.51820E-001	7.17000E-001	-3.13940E-002	-3.94074E-002	6.30564E-001	-4.25126E-002	2.07743E-003	-1.20916E-004	1.97904E-002	2.57144E-002	-1.12591E-003	-1.41330E-003	2.26145E-002	-1.52467E-003
	118	118	1.10102E+000	3.56296E-002	0.00000E+000	3.92289E-002	3.55284E-001	3.48110E-002	3.86881E+001	11	...........	5.80089E-002	-3.25625E-003	5.51863E-001	7.17022E-001	-3.14031E-002	-3.94243E-002	6.30516E-001	-4.25876E-002	2.06683E-003	-1.16019E-004	1.96627E-002	2.55472E-002	-1.11888E-003	-1.40467E-003	2.24651E-002	-1.51738E-003
	119	119	1.10092E+000	3.54014E-002	0.00000E+000	3.89742E-002	3.53017E-001	3.48709E-002	3.90345E+001	11	...........	5.81147E-002	-3.27222E-003	5.51865E-001	7.16988E-001	-3.14235E-002	-3.94564E-002	6.30496E-001	-4.25772E-002	2.05734E-003	-1.15841E-004	1.95368E-002	2.53824E-002	-1.11244E-003	-1.39681E-003	2.23204E-002	-1.50729E-003
	120	120	1.10093E+000	3.55771E-002	0.00000E+000	3.91679E-002	3.54765E-001	3.49614E-002	3.81609E+001	11	...........	5.82592E-002	-3.17431E-003	5.51844E-001	7.16949E-001	-3.14425E-002	-3.95133E-002	6.30674E-001	-4.25214E-002	2.07269E-003	-1.12933E-004	1.96330E-002	2.55070E-002	-1.11863E-003	-1.40577E-003	2.24375E-002	-1.51279E-003
	121	121	1.10102E+000	3.52982E-002	0.00000E+000	3.88641E-002	3.51993E-001	3.47952E-002	3.71734E+001	11	...........	5.80293E-002	-3.22486E-003	5.51772E-001	7.16887E-001	-3.14421E-002	-3.95314E-002	6.30513E-001	-4.25737E-002	2.04833E-003	-1.13832E-004	1.94766E-002	2.53049E-002	-1.10985E-003	-1.39539E-003	2.22560E-002	-1.50278E-003
	122	122	1.10092E+000	3.49711E-002	0.00000E+000	3.85004E-002	3.48740E-001	3.45305E-002	3.44014E+001	11	...........	5.75346E-002	-3.32375E-003	5.51684E-001	7.16855E-001	-3.14331E-002	-3.95331E-002	6.30453E-001	-4.23782E-002	2.01205E-003	-1.16235E-004	1.92930E-002	2.50692E-002	-1.09925E-003	-1.38251E-003	2.20476E-002	-1.48201E-003
	123	123	1.10093E+000	3.52504E-002	0.00000E+000	3.88081E-002	3.51521E-001	3.47280E-002	3.60941E+001	11	...........	5.78676E-002	-3.35306E-003	5.51613E-001	7.16739E-001	-3.14500E-002	-3.95253E-002	6.30479E-001	-4.24346E-002	2.03986E-003	-1.18197E-004	1.94446E-002	2.52654E-002	-1.10863E-003	-1.39328E-003	2.22247E-002	-1.49584E-003
	124	124	1.10102E+000	3.49751E-002	0.00000E+000	3.85083E-002	3.48782E-001	3.45921E-002	3.67841E+001	11	...........	5.76387E-002	-3.45208E-003	5.51527E-001	7.16744E-001	-3.14569E-002	-3.95301E-002	6.30529E-001	-4.24500E-002	2.01592E-003	-1.20737E-004	1.92897E-002	2.50682E-002	-1.10021E-003	-1.38257E-003	2.20528E-002	-1.48469E-003
	125	125	1.10093E+000	3.47311E-002	0.00000E+000	3.82364E-002	3.46353E-001	3.51628E-002	3.42619E+001	11	...........	5.86011E-002	-3.37847E-003	5.51277E-001	7.16766E-001	-3.14822E-002	-3.95512E-002	6.30528E-001	-4.25536E-002	2.03528E-003	-1.17338E-004	1.91465E-002	2.48941E-002	-1.09341E-003	-1.37366E-003	2.18990E-002	-1.47793E-003
	126	126	1.10093E+000	3.49154E-002	0.00000E+000	3.84394E-002	3.48183E-001	3.45183E-002	3.50711E+001	11	...........	5.75026E-002	-3.33569E-003	5.51226E-001	7.16604E-001	-3.14706E-002	-3.95586E-002	6.30458E-001	-4.24542E-002	2.00773E-003	-1.16467E-004	1.92463E-002	2.50205E-002	-1.09881E-003	-1.38120E-003	2.20127E-002	-1.48230E-003
	127	127	1.10102E+000	3.46785E-002	0.00000E+000	3.81815E-002	3.45830E-001	3.47803E-002	3.38592E+001	11	...........	5.79612E-002	-3.23722E-003	5.51393E-001	7.16598E-001	-3.14799E-002	-3.95386E-002	6.30466E-001	-4.24606E-002	2.01001E-003	-1.12262E-004	1.91215E-002	2.48505E-002	-1.09167E-003	-1.37114E-003	2.18636E-002	-1.47247E-003
	128	128	1.10093E+000	3.44243E-002	0.00000E+000	3.78988E-002	3.43303E-001	3.38247E-002	3.30629E+001	11	...........	5.63575E-002	-3.19431E-003	5.51299E-001	7.16536E-001	-3.14886E-002	-3.95003E-002	6.30487E-001	-4.24556E-002	1.94007E-003	-1.09962E-004	1.89781E-002	2.46662E-002	-1.08397E-003	-1.35977E-003	2.17040E-002	-1.46150E-003
	129	129	1.10093E+000	3.46529E-002	0.00000E+000	3.81503E-002	3.45575E-001	3.50754E-002	3.39174E+001	11	...........	5.84493E-002	-3.18833E-003	5.51459E-001	7.16392E-001	-3.14532E-002	-3.95253E-002	6.30500E-001	-4.23760E-002	2.02544E-003	-1.10485E-004	1.91096E-002	2.48250E-002	-1.08994E-003	-1.36967E-003	2.18486E-002	-1.46845E-003
	130	130	1.10101E+000	3.46219E-002	0.00000E+000	3.81192E-002	3.45266E-001	3.40171E-002	3.59219E+001	11	...........	5.66714E-002	-3.13319E-003	5.51193E-001	7.16429E-001	-3.14594E-002	-3.95183E-002	6.30407E-001	-4.24140E-002	1.96207E-003	-1.08477E-004	1.90834E-002	2.48041E-002	-1.08919E-003	-1.36820E-003	2.18259E-002	-1.46845E-003
	131	131	1.10093E+000	3.40178E-002	0.00000E+000	3.74513E-002	3.39262E-001	3.48411E-002	3.43857E+001	11	...........	5.80449E-002	-3.35458E-003	5.51288E-001	7.16230E-001	-3.14500E-002	-3.95253E-002	6.30510E-001	-4.25342E-002	1.97456E-003	-1.14115E-004	1.87536E-002	2.43646E-002	-1.06986E-003	-1.34456E-003	2.14485E-002	-1.44692E-003
	132	132	1.10093E+000	3.44087E-002	0.00000E+000	3.78814E-002	3.43148E-001	3.50969E-002	3.34825E+001	11	...........	5.84694E-002	-3.27944E-003	5.51245E-001	7.16214E-001	-3.14635E-002	-3.95440E-002	6.30454E-001	-4.25071E-002	2.01186E-003	-1.12841E-004	1.89676E-002	2.46440E-002	-1.08262E-003	-1.36066E-003	2.16931E-002	-1.46261E-003
	133	133	1.10101E+000	3.41508E-002	0.00000E+000	3.76004E-002	3.40583E-001	3.38044E-002	3.17988E+001	11	...........	5.63143E-002	-3.25056E-003	5.51301E-001	7.16196E-001	-3.14767E-002	-3.95482E-002	6.30576E-001	-4.23556E-002	1.92318E-003	-1.11009E-004	1.88273E-002	2.44587E-002	-1.07495E-003	-1.35060E-003	2.15347E-002	-1.44647E-003
	134	134	1.10093E+000	3.38895E-002	0.00000E+000	3.73101E-002	3.37980E-001	3.43847E-002	3.43349E+001	11	...........	5.72931E-002	-3.35264E-003	5.51442E-001	7.16146E-001	-3.14872E-002	-3.95619E-002	6.30657E-001	-4.23594E-002	1.94163E-003	-1.13619E-004	1.86881E-002	2.42698E-002	-1.06709E-003	-1.34073E-003	2.13726E-002	-1.43554E-003
	135	135	1.10092E+000	3.40671E-002	0.00000E+000	3.75052E-002	3.39747E-001	3.43552E-002	3.38813E+001	11	...........	5.72482E-002	-3.24833E-003	5.51373E-001	7.16303E-001	-3.14943E-002	-3.95817E-002	6.30460E-001	-4.25525E-002	1.95028E-003	-1.10661E-004	1.87837E-002	2.44023E-002	-1.07292E-003	-1.34843E-003	2.14779E-002	-1.44964E-003
	136	136	1.10101E+000	3.39413E-002	0.00000E+000	3.73698E-002	3.38497E-001	3.50029E-002	3.26163E+001	11	...........	5.83214E-002	-3.39306E-003	5.51467E-001	7.16332E-001	-3.14844E-002	-3.96037E-002	6.30461E-001	-4.26083E-002	1.97951E-003	-1.15165E-004	1.87175E-002	2.43132E-002	-1.06862E-003	-1.34420E-003	2.13987E-002	-1.44618E-003
	137	137	1.10094E+000	3.35284E-002	0.00000E+000	3.69127E-002	3.34397E-001	3.35263E-002	3.30743E+001	11	...........	5.58349E-002	-3.37000E-003	5.51453E-001	7.16343E-001	-3.15135E-002	-3.96103E-002	6.30391E-001	-4.24796E-002	1.87206E-003	-1.12991E-004	1.84894E-002	2.40179E-002	-1.05660E-003	-1.32807E-003	2.11360E-002	-1.42427E-003
	138	138	1.10092E+000	3.36867E-002	0.00000E+000	3.70864E-002	3.35969E-001	3.47230E-002	3.40389E+001	11	...........	5.78733E-002	-3.39903E-003	5.51538E-001	7.16197E-001	-3.15068E-002	-3.96056E-002	6.30289E-001	-4.23544E-002	1.94956E-003	-1.14502E-004	1.85795E-002	2.41263E-002	-1.06136E-003	-1.33418E-003	2.12323E-002	-1.42678E-003
	139	139	1.10101E+000	3.36834E-002	0.00000E+000	3.70859E-002	3.35937E-001	3.44928E-002	3.39579E+001	11	...........	5.74708E-002	-3.40667E-003	5.51502E-001	7.16191E-001	-3.14993E-002	-3.96079E-002	6.30230E-001	-4.23614E-002	1.93581E-003	-1.14748E-004	1.85765E-002	2.41238E-002	-1.06100E-003	-1.33413E-003	2.12283E-002	-1.42688E-003
	140	140	1.10094E+000	3.32469E-002	0.00000E+000	3.66029E-002	3.31597E-001	3.43907E-002	3.38024E+001	11	...........	5.73282E-002	-3.39500E-003	5.51529E-001	7.16168E-001	-3.15079E-002	-3.96218E-002	6.30242E-001	-4.25587E-002	1.90599E-003	-1.12873E-004	1.83366E-002	2.38104E-002	-1.04754E-003	-1.31730E-003	2.09536E-002	-1.41495E-003
	141	141	1.10092E+000	3.35571E-002	0.00000E+000	3.69437E-002	3.34680E-001	3.46896E-002	3.32203E+001	11	...........	5.78057E-002	-3.42222E-003	5.51507E-001	7.16064E-001	-3.15192E-002	-3.96022E-002	6.30339E-001	-4.26096E-002	1.93979E-003	-1.14840E-004	1.85070E-002	2.40290E-002	-1.05769E-003	-1.32894E-003	2.11523E-002	-1.42985E-003
	142	142	1.10101E+000	3.34045E-002	0.00000E+000	3.67786E-002	3.33160E-001	3.38002E-002	3.27174E+001	11	...........	5.63228E-002	-3.42597E-003	5.51356E-001	7.16037E-001	-3.15078E-002	-3.95632E-002	6.30270E-001	-4.25779E-002	1.88143E-003	-1.14443E-004	1.84178E-002	2.39189E-002	-1.05250E-003	-1.32159E-003	2.10538E-002	-1.42229E-003
	143	143	1.10094E+000	3.30285E-002	0.00000E+000	3.63625E-002	3.29428E-001	3.39796E-002	3.40488E+001	11	...........	5.66299E-002	-3.46875E-003	5.51323E-001	7.15920E-001	-3.14885E-002	-3.95924E-002	6.30215E-001	-4.25929E-002	1.87040E-003	-1.14568E-004	1.82094E-002	2.36458E-002	-1.04002E-003	-1.30768E-003	2.08150E-002	-1.40678E-003
	144	144	1.10092E+000	3.31023E-002	0.00000E+000	3.64431E-002	3.30159E-001	3.43352E-002	3.31092E+001	11	...........	5.72146E-002	-3.32042E-003	5.51394E-001	7.15982E-001	-3.14815E-002	-3.95890E-002	6.30228E-001	-4.25278E-002	1.89394E-003	-1.09914E-004	1.82524E-002	2.37007E-002	-1.04211E-003	-1.31049E-003	2.08620E-002	-1.40777E-003
	145	145	1.10100E+000	3.31234E-002	0.00000E+000	3.64688E-002	3.30369E-001	3.45818E-002	3.33324E+001	11	...........	5.76265E-002	-3.40569E-003	5.51560E-001	7.15969E-001	-3.14824E-002	-3.95643E-002	6.30349E-001	-4.24867E-002	1.90879E-003	-1.12808E-004	1.82696E-002	2.37153E-002	-1.04280E-003	-1.31051E-003	2.08793E-002	-1.40730E-003
	146	146	1.10095E+000	3.28009E-002	0.00000E+000	3.61123E-002	3.27161E-001	3.36933E-002	3.55466E+001	11	...........	5.61526E-002	-3.44194E-003	5.51713E-001	7.15886E-001	-3.14842E-002	-3.95529E-002	6.30342E-001	-4.24917E-002	1.84186E-003	-1.12899E-004	1.80967E-002	2.34817E-002	-1.03271E-003	-1.29737E-003	2.06758E-002	-1.39377E-003
	147	147	1.10092E+000	3.29114E-002	0.00000E+000	3.62328E-002	3.28260E-001	3.46039E-002	3.18622E+001	11	...........	5.76579E-002	-3.35125E-003	5.51880E-001	7.16002E-001	-3.14878E-002	-3.95189E-002	6.30223E-001	-4.24740E-002	1.89761E-003	-1.10294E-004	1.81632E-002	2.35646E-002	-1.03631E-003	-1.30062E-003	2.07415E-002	-1.39788E-003
	148	148	1.10100E+000	3.27717E-002	0.00000E+000	3.60818E-002	3.26871E-001	3.35943E-002	3.36552E+001	11	...........	5.59867E-002	-3.30014E-003	5.51763E-001	7.15892E-001	-3.14808E-002	-3.95325E-002	6.30272E-001	-4.23915E-002	1.83478E-003	-1.08151E-004	1.80822E-002	2.34610E-002	-1.03168E-003	-1.29555E-003	2.06551E-002	-1.38924E-003
	149	149	1.10095E+000	3.25853E-002	0.00000E+000	3.58749E-002	3.25019E-001	3.46189E-002	3.30323E+001	11	...........	5.77071E-002	-3.40125E-003	5.52010E-001	7.15967E-001	-3.14915E-002	-3.95300E-002	6.30349E-001	-4.25178E-002	1.88040E-003	-1.10831E-004	1.79874E-002	2.33300E-002	-1.02616E-003	-1.28810E-003	2.05401E-002	-1.38545E-003
	150	150	1.10092E+000	3.25914E-002	0.00000E+000	3.58805E-002	3.25077E-001	3.32503E-002	3.28822E+001	11	...........	5.54049E-002	-3.42361E-003	5.51916E-001	7.15915E-001	-3.14903E-002	-3.95390E-002	6.30323E-001	-4.25125E-002	1.80572E-003	-1.11580E-004	1.79877E-002	2.33326E-002	-1.02631E-003	-1.28863E-003	2.05431E-002	-1.38554E-003
	151	151	1.10100E+000	3.25359E-002	0.00000E+000	3.58220E-002	3.24525E-001	3.46069E-002	3.25115E+001	11	...........	5.76556E-002	-3.44028E-003	5.51978E-001	7.15962E-001	-3.14851E-002	-3.95274E-002	6.30436E-001	-4.26239E-002	1.87588E-003	-1.11933E-004	1.79591E-002	2.32945E-002	-1.02440E-003	-1.28606E-003	2.05118E-002	-1.38681E-003
	152	152	1.10095E+000	3.23001E-002	0.00000E+000	3.55607E-002	3.22181E-001	3.42870E-002	3.54426E+001	11	...........	5.71250E-002	-3.43861E-003	5.52292E-001	7.15885E-001	-3.14790E-002	-3.95364E-002	6.30489E-001	-4.26425E-002	1.84514E-003	-1.11067E-004	1.78391E-002	2.31231E-002	-1.01677E-003	-1.27703E-003	2.03648E-002	-1.37736E-003
	153	153	1.10092E+000	3.22999E-002	0.00000E+000	3.55597E-002	3.22183E-001	3.39677E-002	3.34314E+001	11	...........	5.66182E-002	-3.49986E-003	5.52637E-001	7.15938E-001	-3.14953E-002	-3.95353E-002	6.30432E-001	-4.25278E-002	1.82876E-003	-1.13045E-004	1.78501E-002	2.31247E-002	-1.01729E-003	-1.27699E-003	2.03629E-002	-1.37364E-003
	154	154	1.10100E+000	3.24196E-002	0.00000E+000	3.56940E-002	3.23368E-001	3.43327E-002	3.43857E+001	11	...........	5.72312E-002	-3.34847E-003	5.52552E-001	7.15747E-001	-3.14878E-002	-3.95074E-002	6.30339E-001	-4.25549E-002	1.85542E-003	-1.08556E-004	1.79135E-002	2.32043E-002	-1.02082E-003	-1.28081E-003	2.04353E-002	-1.37961E-003
	155	155	1.10096E+000	3.20308E-002	0.00000E+000	3.52646E-002	3.19505E-001	3.40838E-002	3.44609E+001	11	...........	5.67906E-002	-3.44417E-003	5.52505E-001	7.15504E-001	-3.14949E-002	-3.95010E-002	6.30324E-001	-4.25231E-002	1.81905E-003	-1.10319E-004	1.76972E-002	2.29182E-002	-1.00881E-003	-1.26525E-003	2.01898E-002	-1.36205E-003
	156	156	1.10092E+000	3.21379E-002	0.00000E+000	3.53811E-002	3.20568E-001	3.37427E-002	3.36986E+001	11	...........	5.62092E-002	-3.49611E-003	5.52447E-001	7.15424E-001	-3.15008E-002	-3.94865E-002	6.30327E-001	-4.24097E-002	1.80644E-003	-1.12358E-004	1.77545E-002	2.29922E-002	-1.01237E-003	-1.26901E-003	2.02574E-002	-1.36296E-003
	157	157	1.10099E+000	3.20615E-002	0.00000E+000	3.52996E-002	3.19811E-001	3.38552E-002	3.41616E+001	11	...........	5.64112E-002	-3.48806E-003	5.52408E-001	7.15427E-001	-3.15144E-002	-3.94807E-002	6.30331E-001	-4.24204E-002	1.80863E-003	-1.11832E-004	1.77110E-002	2.29377E-002	-1.01040E-003	-1.26581E-003	2.02094E-002	-1.36006E-003
	158	158	1.10096E+000	3.16876E-002	0.00000E+000	3.48868E-002	3.16091E-001	3.44007E-002	3.41534E+001	11	...........	5.73221E-002	-3.37278E-003	5.52490E-001	7.15462E-001	-3.15044E-002	-3.94994E-002	6.30516E-001	-4.24610E-002	1.81640E-003	-1.06875E-004	1.75071E-002	2.26713E-002	-9.98300E-004	-1.25164E-003	1.99795E-002	-1.34549E-003
	159	159	1.10092E+000	3.19088E-002	0.00000E+000	3.51289E-002	3.18291E-001	3.41525E-002	3.36731E+001	11	...........	5.69062E-002	-3.27972E-003	5.52452E-001	7.15494E-001	-3.14831E-002	-3.94824E-002	6.30626E-001	-4.24756E-002	1.81581E-003	-1.04652E-004	1.76281E-002	2.28305E-002	-1.00459E-003	-1.25983E-003	2.01225E-002	-1.35534E-003
	160	160	1.10099E+000	3.17705E-002	0.00000E+000	3.49790E-002	3.16917E-001	3.38501E-002	3.38415E+001	11	...........	5.63999E-002	-3.23347E-003	5.52527E-001	7.15356E-001	-3.14746E-002	-3.94925E-002	6.30552E-001	-4.24511E-002	1.79185E-003	-1.02729E-004	1.75541E-002	2.27272E-002	-9.99963E-004	-1.25470E-003	2.00329E-002	-1.34869E-003
	161	161	1.10097E+000	3.15250E-002	0.00000E+000	3.47080E-002	3.14481E-001	3.42698E-002	3.55333E+001	11	...........	5.71153E-002	-3.32403E-003	5.52533E-001	7.15347E-001	-3.14635E-002	-3.94775E-002	6.30485E-001	-4.25433E-002	1.80056E-003	-1.04790E-004	1.74186E-002	2.25514E-002	-9.91887E-004	-1.24453E-003	1.98761E-002	-1.34118E-003
	162	162	1.10091E+000	3.16301E-002	0.00000E+000	3.48220E-002	3.15521E-001	3.38875E-002	3.31329E+001	11	...........	5.64731E-002	-3.26208E-003	5.52305E-001	7.15409E-001	-3.14614E-002	-3.94311E-002	6.30446E-001	-4.25749E-002	1.78625E-003	-1.03180E-004	1.74695E-002	2.26284E-002	-9.95126E-004	-1.24721E-003	1.99411E-002	-1.34665E-003
	163	163	1.10099E+000	3.15339E-002	0.00000E+000	3.47185E-002	3.14561E-001	3.40437E-002	3.37561E+001	11	...........	5.67256E-002	-3.40250E-003	5.52405E-001	7.15485E-001	-3.14690E-002	-3.94444E-002	6.30410E-001	-4.25250E-002	1.78878E-003	-1.07294E-004	1.74195E-002	2.25620E-002	-9.92340E-004	-1.24384E-003	1.98793E-002	-1.34098E-003
	164	164	1.10097E+000	3.11850E-002	0.00000E+000	3.43338E-002	3.11093E-001	3.38188E-002	3.24013E+001	11	...........	5.63517E-002	-3.40583E-003	5.52342E-001	7.15512E-001	-3.14428E-002	-3.94539E-002	6.30338E-001	-4.24558E-002	1.75733E-003	-1.06211E-004	1.72248E-002	2.23132E-002	-9.80542E-004	-1.23037E-003	1.96571E-002	-1.32398E-003
	165	165	1.10091E+000	3.13911E-002	0.00000E+000	3.45587E-002	3.13143E-001	3.42147E-002	3.49320E+001	11	...........	5.70036E-002	-3.50014E-003	5.52463E-001	7.15474E-001	-3.14849E-002	-3.94712E-002	6.30443E-001	-4.25099E-002	1.78941E-003	-1.09873E-004	1.73424E-002	2.24595E-002	-9.88345E-004	-1.23905E-003	1.97903E-002	-1.33443E-003
	166	166	1.10099E+000	3.13977E-002	0.00000E+000	3.45685E-002	3.13211E-001	3.34621E-002	3.40249E+001	11	...........	5.57625E-002	-3.40319E-003	5.52411E-001	7.15299E-001	-3.14925E-002	-3.94835E-002	6.30555E-001	-4.25042E-002	1.75081E-003	-1.06853E-004	1.73444E-002	2.24587E-002	-9.88792E-004	-1.23969E-003	1.97980E-002	-1.33453E-003
	167	167	1.10098E+000	3.10612E-002	0.00000E+000	3.41977E-002	3.09865E-001	3.45925E-002	3.38984E+001	11	...........	5.76518E-002	-3.51319E-003	5.52352E-001	7.15339E-001	-3.14743E-002	-3.95007E-002	6.30558E-001	-4.25043E-002	1.79074E-003	-1.09124E-004	1.71567E-002	2.22193E-002	-9.77631E-004	-1.22694E-003	1.95859E-002	-1.32024E-003
	168	168	1.10091E+000	3.10880E-002	0.00000E+000	3.42252E-002	3.10130E-001	3.31042E-002	3.35122E+001	11	...........	5.51783E-002	-3.29458E-003	5.52321E-001	7.15374E-001	-3.14546E-002	-3.94946E-002	6.30428E-001	-4.26257E-002	1.71539E-003	-1.02422E-004	1.71706E-002	2.22396E-002	-9.77861E-004	-1.22781E-003	1.95988E-002	-1.32515E-003
	169	169	1.10098E+000	3.11385E-002	0.00000E+000	3.42830E-002	3.10625E-001	3.43467E-002	3.27539E+001	11	...........	5.72300E-002	-3.22389E-003	5.52536E-001	7.15564E-001	-3.14439E-002	-3.95090E-002	6.30439E-001	-4.25722E-002	1.78206E-003	-1.00387E-004	1.72051E-002	2.22816E-002	-9.79115E-004	-1.23025E-003	1.96309E-002	-1.32564E-003
	170	170	1.10098E+000	3.07562E-002	0.00000E+000	3.38618E-002	3.06831E-001	3.40175E-002	3.33881E+001	11	...........	5.66881E-002	-3.20236E-003	5.52569E-001	7.15536E-001	-3.14469E-002	-3.95258E-002	6.30399E-001	-4.24778E-002	1.74351E-003	-9.84923E-005	1.69949E-002	2.20071E-002	-9.67187E-004	-1.21566E-003	1.93887E-002	-1.30645E-003
	171	171	1.10091E+000	3.07687E-002	0.00000E+000	3.38735E-002	3.06953E-001	3.33312E-002	3.50744E+001	11	...........	5.55529E-002	-3.31125E-003	5.52516E-001	7.15526E-001	-3.14501E-002	-3.95151E-002	6.30391E-001	-4.25342E-002	1.70929E-003	-1.01883E-004	1.70002E-002	2.20158E-002	-9.67679E-004	-1.21583E-003	1.93963E-002	-1.30872E-003
	172	172	1.10097E+000	3.09367E-002	0.00000E+000	3.40604E-002	3.08624E-001	3.43877E-002	3.41553E+001	11	...........	5.72793E-002	-3.44472E-003	5.52442E-001	7.15494E-001	-3.14803E-002	-3.95061E-002	6.30424E-001	-4.25486E-002	1.77203E-003	-1.06568E-004	1.70907E-002	2.21350E-002	-9.73895E-004	-1.22219E-003	1.95032E-002	-1.31631E-003
	173	173	1.10099E+000	3.04820E-002	0.00000E+000	3.35603E-002	3.04107E-001	3.32963E-002	3.46922E+001	11	...........	5.54786E-002	-3.34681E-003	5.52376E-001	7.15588E-001	-3.14554E-002	-3.95132E-002	6.30398E-001	-4.24692E-002	1.69110E-003	-1.02017E-004	1.68375E-002	2.18125E-002	-9.58823E-004	-1.20444E-003	1.92158E-002	-1.29454E-003
	174	174	1.10091E+000	3.05544E-002	0.00000E+000	3.36377E-002	3.04827E-001	3.40376E-002	3.41535E+001	11	...........	5.67229E-002	-3.28875E-003	5.52515E-001	7.15637E-001	-3.14297E-002	-3.95232E-002	6.30393E-001	-4.25658E-002	1.73314E-003	-1.00486E-004	1.68818E-002	2.18659E-002	-9.60317E-004	-1.20761E-003	1.92613E-002	-1.30058E-003
	175	175	1.10098E+000	3.06566E-002	0.00000E+000	3.37522E-002	3.05840E-001	3.37781E-002	3.56156E+001	11	...........	5.62933E-002	-3.30028E-003	5.52625E-001	7.15643E-001	-3.14392E-002	-3.95340E-002	6.30349E-001	-4.25022E-002	1.72576E-003	-1.01175E-004	1.69416E-002	2.19392E-002	-9.63818E-004	-1.21198E-003	1.93244E-002	-1.30297E-003
	176	176	1.10099E+000	3.02219E-002	0.00000E+000	3.32738E-002	3.01522E-001	3.38920E-002	3.35854E+001	11	...........	5.64985E-002	-3.37972E-003	5.52495E-001	7.15802E-001	-3.14329E-002	-3.95329E-002	6.30349E-001	-4.24331E-002	1.70749E-003	-1.02141E-004	1.66974E-002	2.16329E-002	-9.49961E-004	-1.19476E-003	1.90503E-002	-1.28241E-003
	177	177	1.10091E+000	3.03221E-002	0.00000E+000	3.33819E-002	3.02517E-001	3.35662E-002	3.44810E+001	11	...........	5.59256E-002	-3.56125E-003	5.52460E-001	7.16003E-001	-3.14293E-002	-3.95160E-002	6.30298E-001	-4.24739E-002	1.69578E-003	-1.07984E-004	1.67517E-002	2.17107E-002	-9.53001E-004	-1.19821E-003	1.91119E-002	-1.28790E-003
	178	178	1.10097E+000	3.02816E-002	0.00000E+000	3.33392E-002	3.02115E-001	3.37225E-002	3.51346E+001	11	...........	5.62019E-002	-3.64056E-003	5.52456E-001	7.15844E-001	-3.14356E-002	-3.95240E-002	6.30440E-001	-4.25208E-002	1.70189E-003	-1.10242E-004	1.67293E-002	2.16769E-002	-9.51919E-004	-1.19685E-003	1.90907E-002	-1.28760E-003
	179	179	1.10099E+000	3.00458E-002	0.00000E+000	3.30802E-002	2.99774E-001	3.42953E-002	3.51011E+001	11	...........	5.71562E-002	-3.58611E-003	5.52528E-001	7.15878E-001	-3.14151E-002	-3.95228E-002	6.30415E-001	-4.25229E-002	1.71731E-003	-1.07748E-004	1.66012E-002	2.15092E-002	-9.43894E-004	-1.18749E-003	1.89413E-002	-1.27764E-003
	180	180	1.10091E+000	3.01197E-002	0.00000E+000	3.31591E-002	3.00506E-001	3.36941E-002	3.59412E+001	11	...........	5.61471E-002	-3.48597E-003	5.52453E-001	7.15871E-001	-3.14014E-002	-3.95072E-002	6.30291E-001	-4.25242E-002	1.69113E-003	-1.04997E-004	1.66397E-002	2.15618E-002	-9.45801E-004	-1.18995E-003	1.89842E-002	-1.28082E-003
	181	181	1.10097E+000	3.01159E-002	0.00000E+000	3.31567E-002	3.00468E-001	3.35187E-002	3.40575E+001	11	...........	5.58558E-002	-3.41306E-003	5.52445E-001	7.16038E-001	-3.14008E-002	-3.95061E-002	6.30306E-001	-4.24242E-002	1.68215E-003	-1.02787E-004	1.66374E-002	2.15642E-002	-9.45666E-004	-1.18976E-003	1.89822E-002	-1.27764E-003
	182	182	1.10100E+000	2.98289E-002	0.00000E+000	3.28416E-002	2.97616E-001	3.35811E-002	3.59020E+001	11	...........	5.59561E-002	-3.26667E-003	5.52328E-001	7.16305E-001	-3.14151E-002	-3.95171E-002	6.30294E-001	-4.24590E-002	1.66911E-003	-9.74411E-005	1.64753E-002	2.13666E-002	-9.37079E-004	-1.17875E-003	1.88010E-002	-1.26651E-003
	183	183	1.10091E+000	2.99486E-002	0.00000E+000	3.29706E-002	2.98805E-001	3.39898E-002	3.58360E+001	11	...........	5.66381E-002	-3.31583E-003	5.52414E-001	7.16355E-001	-3.14128E-002	-3.95385E-002	6.30318E-001	-4.25242E-002	1.69623E-003	-9.93047E-005	1.65440E-002	2.14538E-002	-9.40770E-004	-1.18412E-003	1.88772E-002	-1.27354E-003
	184	184	1.10097E+000	2.98306E-002	0.00000E+000	3.28426E-002	2.97631E-001	3.30943E-002	3.41942E+001	11	...........	5.51501E-002	-3.21903E-003	5.52249E-001	7.16382E-001	-3.14228E-002	-3.95451E-002	6.30387E-001	-4.24389E-002	1.64516E-003	-9.60256E-005	1.64739E-002	2.13701E-002	-9.37361E-004	-1.17966E-003	1.88048E-002	-1.26598E-003
	185	185	1.10100E+000	2.95574E-002	0.00000E+000	3.25427E-002	2.94913E-001	3.39327E-002	3.54421E+001	11	...........	5.65493E-002	-3.35083E-003	5.52345E-001	7.16248E-001	-3.14256E-002	-3.95571E-002	6.30495E-001	-4.25668E-002	1.67145E-003	-9.90420E-005	1.63259E-002	2.11704E-002	-9.28859E-004	-1.16921E-003	1.86358E-002	-1.25817E-003
	186	186	1.10091E+000	2.97216E-002	0.00000E+000	3.27208E-002	2.96544E-001	3.33819E-002	3.50819E+001	11	...........	5.56053E-002	-3.17806E-003	5.52145E-001	7.16212E-001	-3.14297E-002	-3.95417E-002	6.30466E-001	-4.26390E-002	1.65268E-003	-9.44568E-005	1.64106E-002	2.12869E-002	-9.34141E-004	-1.17524E-003	1.87384E-002	-1.26730E-003
	187	187	1.10096E+000	2.96764E-002	0.00000E+000	3.26726E-002	2.96097E-001	3.38702E-002	3.69020E+001	11	...........	5.64612E-002	-3.41208E-003	5.52317E-001	7.16530E-001	-3.14367E-002	-3.95708E-002	6.30422E-001	-4.24676E-002	1.67557E-003	-1.01258E-004	1.63908E-002	2.12640E-002	-9.32927E-004	-1.17432E-003	1.87086E-002	-1.26029E-003
	188	188	1.10100E+000	2.92877E-002	0.00000E+000	3.22458E-002	2.92233E-001	3.30483E-002	3.38910E+001	11	...........	5.50522E-002	-3.22667E-003	5.51942E-001	7.16654E-001	-3.14394E-002	-3.95487E-002	6.30360E-001	-4.23325E-002	1.61235E-003	-9.45017E-005	1.61651E-002	2.09892E-002	-9.20790E-004	-1.15829E-003	1.84618E-002	-1.23982E-003
	189	189	1.10091E+000	2.94233E-002	0.00000E+000	3.23924E-002	2.93585E-001	3.37669E-002	3.69810E+001	11	...........	5.62435E-002	-3.50167E-003	5.52016E-001	7.16590E-001	-3.14504E-002	-3.95254E-002	6.30577E-001	-4.25235E-002	1.65487E-003	-1.03031E-004	1.62422E-002	2.10845E-002	-9.25376E-004	-1.16297E-003	1.85537E-002	-1.25118E-003
	190	189.855	1.10103E+000	2.94765E-002	0.00000E+000	3.24544E-002	2.94110E-001	3.40810E-002	3.37644E+001	11	...........	5.67968E-002	-3.43632E-003	5.51882E-001	7.16667E-001	-3.14732E-002	-3.95317E-002	6.30513E-001	-4.25484E-002	1.67417E-003	-1.01291E-004	1.62675E-002	2.11248E-002	-9.27719E-004	-1.16525E-003	1.85853E-002	-1.25418E-003
STARTTIMEOFFSET	QUANT	407538.2	Start Time Offset (s)
