EXPLAIN
TAG	PWR800_CHARGE
TITLE	LABEL	PWR Charge	Test Identifier
DATE	LABEL	10/14/2022	Date
TIME	LABEL	1:02:32	Time
NOTES	NOTES	1	Notes...
	
PSTAT	PSTAT	REF3000-21114	Potentiostat
CAPACITY	QUANT	5.30000E-002	Capacity (A-hr)
CELLTYPE	SELECTOR	1	Cell Type
WORKINGCONNECTION	SELECTOR	0	Working Connection
MAXCHARGETIME	VARIABLEANDUNITS	7.20000E+003	s	2.00000E+000	hour(s)	Max Charge Time
CHARGEMODE	MULTIPARAM	0	1.00000E-001	Charge Mode	Constant Current	Amp(s)
CHARGECURRENT	QUANT	0.1	Charge Current (A)
VOLTAGEFINISH	TWOPARAM	T	2.50000E-002	7.20000E+003	Voltage Finish	I (A) <	Max Time(s)
SAMPLETIME	QUANT	1.00000E+000	Sample Period (s)
CHARGESTOPAT1	MULTIPARAM	2	1.10000E+000	Stop At 1	|Voltage| > Limit	V
CHARGESTOPAT2	MULTIPARAM	0	0.00000E+000	Stop At 2	None	N/A
AESELECTOR	AESELECTOR	0x1	T	Set Limits	AE Channels
AESBHCSELECTOR	TOGGLE	F	Save Both Half Cells
IRCOMP	TOGGLE	F	IR Measure
EOC	QUANT	0.2187054	Open Circuit (V)
SEQUENCER	TOGGLE	TRUE	Run as Sequence
PSTATMODEL	IQUANT	5	Pstat Model
PSTATSECTION	LABEL	REF3000-21114	Pstat Section
PSTATSERIALNO	LABEL	21114	Pstat Serial Number
CTRLMODE	IQUANT	0	Control Mode
ELECTROMETER	IQUANT	0	RE=0 or CS=1
IESTAB	IQUANT	0	I/E Stability
CASPEED	IQUANT	4	Control Amp Speed
CONVENTION	IQUANT	1	Current Convention
ICHRANGE	IQUANT	2	Ich Range
ICHRANGEMODE	TOGGLE	T	Ich Auto Range
ICHOFFSETENABLE	TOGGLE	F	Ich Offset Enable
ICHOFFSET	QUANT	0	Ich Offset (V)
ICHFILTER	IQUANT	1	Ich Filter
VCHRANGE	IQUANT	3	Vch Range
VCHRANGEMODE	TOGGLE	T	Vch Auto Range
VCHOFFSETENABLE	TOGGLE	F	Vch Offset Enable
VCHOFFSET	QUANT	0	Vch Offset (V)
VCHFILTER	IQUANT	1	Vch Filter
ACHRANGE	IQUANT	2	Ach Range
ACHOFFSETENABLE	TOGGLE	F	Ach Offset Enable
ACHOFFSET	QUANT	0	Ach Offset (V)
ACHFILTER	IQUANT	1	Ach Filter
IERANGELOWERLIMIT	IQUANT	9	I/E Range Lower Limit
IERANGEMODE	TOGGLE	F	I/E AutoRange
IERANGE	IQUANT	9	I/E Range
POSFEEDENABLE	TOGGLE	F	Positive Feedback IR Comp
POSFEEDRESISTANCE	QUANT	0	Positive Feedback Resistance (ohm)
ACHSELECT	IQUANT	1	Ach Select
SENSECABLEID	IQUANT	13	Sense Cable ID
PWRCABLEID	IQUANT	13	Power Cable ID
DCCALDATE	LABEL		DC Calibration Date
ACCALDATE	LABEL		AC Calibration Date
THERMOSELECT	IQUANT	1	Thermo Select
FRAMEWORKVERSION	LABEL	7.8.6	Framework Version
INSTRUMENTVERSION	LABEL	4.50	Instrument Version
COMPLIANCEVOLTAGE	IQUANT	0	Compliance Voltage
CURVE	TABLE	230
	Pt	T	Vf	Im	Vu	Pwr	Sig	Ach	Temp	IERange	Over	Vf1	Vf2	Vf3	Vf4	Vf5	Vf6	Vf7	Vf8	Pwr1	Pwr2	Pwr3	Pwr4	Pwr5	Pwr6	Pwr7	Pwr8
	#	s	V	A	V	W	V	V	deg C	#	bits	V	V	V	V	V	V	V	V	W	W	W	W	W	W	W	W
	0	1	4.90069E-001	9.98654E-002	0.00000E+000	4.89409E-002	9.94000E-001	4.34077E-002	4.22399E+001	11	...........	7.21418E-002	-5.66972E-003	6.05383E-001	5.41456E-001	-2.71404E-002	-3.82197E-002	7.05443E-001	-4.38536E-002	7.20447E-003	-5.66209E-004	6.04568E-002	5.40727E-002	-2.71039E-003	-3.81683E-003	7.04494E-002	-4.37946E-003
	1	2	6.30011E-001	9.98659E-002	0.00000E+000	6.29166E-002	9.94000E-001	4.33690E-002	4.23268E+001	11	...........	7.20940E-002	-5.61972E-003	6.05412E-001	5.41348E-001	-2.71383E-002	-3.82307E-002	7.05308E-001	-4.38719E-002	7.19973E-003	-5.61219E-004	6.04601E-002	5.40622E-002	-2.71019E-003	-3.81794E-003	7.04362E-002	-4.38131E-003
	2	3	8.31762E-001	9.98663E-002	0.00000E+000	8.30650E-002	9.94000E-001	4.42148E-002	4.72435E+001	11	...........	7.34765E-002	-5.53944E-003	6.05484E-001	5.41344E-001	-2.71179E-002	-3.82511E-002	7.05588E-001	-4.39693E-002	7.33783E-003	-5.53204E-004	6.04674E-002	5.40620E-002	-2.70817E-003	-3.82000E-003	7.04645E-002	-4.39105E-003
	3	3.23333	1.04809E+000	9.98667E-002	0.00000E+000	1.04670E-001	9.94000E-001	4.48511E-002	5.22437E+001	11	...........	7.44839E-002	-5.48036E-003	6.05629E-001	5.41355E-001	-2.71345E-002	-3.82542E-002	7.05595E-001	-4.38946E-002	7.43846E-003	-5.47305E-004	6.04822E-002	5.40633E-002	-2.70983E-003	-3.82032E-003	7.04654E-002	-4.38361E-003
	4	4	1.10060E+000	7.61705E-002	0.00000E+000	8.38333E-002	7.58390E-001	4.42937E-002	5.15827E+001	11	...........	7.35949E-002	-5.36051E-003	6.05684E-001	5.41207E-001	-2.71484E-002	-3.82440E-002	7.05512E-001	-4.38116E-002	5.60576E-003	-4.08312E-004	4.61352E-002	4.12240E-002	-2.06790E-003	-2.91306E-003	5.37392E-002	-3.33715E-003
	5	5	1.10006E+000	6.11741E-002	0.00000E+000	6.72951E-002	6.09273E-001	4.38396E-002	4.94745E+001	11	...........	7.28439E-002	-5.30903E-003	6.05624E-001	5.41123E-001	-2.71426E-002	-3.81883E-002	7.05391E-001	-4.38719E-002	4.45616E-003	-3.24775E-004	3.70485E-002	3.31027E-002	-1.66043E-003	-2.33614E-003	4.31516E-002	-2.68382E-003
	6	6	1.10010E+000	5.62566E-002	0.00000E+000	6.18877E-002	5.60375E-001	4.43084E-002	5.07343E+001	11	...........	7.36161E-002	-5.43917E-003	6.05754E-001	5.41247E-001	-2.71233E-002	-3.81904E-002	7.05396E-001	-4.39306E-002	4.14139E-003	-3.05989E-004	3.40777E-002	3.04487E-002	-1.52587E-003	-2.14846E-003	3.96831E-002	-2.47138E-003
	7	7	1.10015E+000	5.31644E-002	0.00000E+000	5.84888E-002	5.29633E-001	4.40742E-002	5.03838E+001	11	...........	7.32468E-002	-5.40722E-003	6.05614E-001	5.41280E-001	-2.71529E-002	-3.81867E-002	7.05536E-001	-4.39215E-002	3.89412E-003	-2.87472E-004	3.21971E-002	2.87768E-002	-1.44357E-003	-2.03017E-003	3.75094E-002	-2.33506E-003
	8	8	1.09998E+000	5.18945E-002	0.00000E+000	5.70831E-002	5.17003E-001	4.39931E-002	5.04963E+001	11	...........	7.30781E-002	-5.35333E-003	6.05532E-001	5.41258E-001	-2.71444E-002	-3.81949E-002	7.05403E-001	-4.38297E-002	3.79235E-003	-2.77809E-004	3.14238E-002	2.80883E-002	-1.40865E-003	-1.98210E-003	3.66065E-002	-2.27452E-003
	9	9	1.10006E+000	5.11017E-002	0.00000E+000	5.62149E-002	5.09117E-001	4.41537E-002	5.01383E+001	11	...........	7.33442E-002	-5.34292E-003	6.05549E-001	5.41452E-001	-2.71462E-002	-3.81771E-002	7.05339E-001	-4.39008E-002	3.74801E-003	-2.73032E-004	3.09446E-002	2.76691E-002	-1.38722E-003	-1.95091E-003	3.60440E-002	-2.24341E-003
	10	10	1.10013E+000	5.00101E-002	0.00000E+000	5.50178E-002	4.98267E-001	4.40257E-002	4.97439E+001	11	...........	7.31599E-002	-5.40806E-003	6.05412E-001	5.41708E-001	-2.71268E-002	-3.81661E-002	7.05400E-001	-4.38729E-002	3.65873E-003	-2.70458E-004	3.02767E-002	2.70909E-002	-1.35661E-003	-1.90869E-003	3.52771E-002	-2.19409E-003
	11	11	1.09998E+000	4.97372E-002	0.00000E+000	5.47099E-002	4.95557E-001	4.40517E-002	4.98733E+001	11	...........	7.31887E-002	-5.45361E-003	6.05432E-001	5.41609E-001	-2.71394E-002	-3.81835E-002	7.05343E-001	-4.39158E-002	3.64020E-003	-2.71247E-004	3.01125E-002	2.69381E-002	-1.34984E-003	-1.89914E-003	3.50818E-002	-2.18425E-003
	12	12	1.10005E+000	4.95063E-002	0.00000E+000	5.44595E-002	4.93261E-001	4.39763E-002	4.97900E+001	11	...........	7.31033E-002	-5.39389E-003	6.05547E-001	5.41623E-001	-2.71408E-002	-3.81689E-002	7.05382E-001	-4.39936E-002	3.61908E-003	-2.67032E-004	2.99784E-002	2.68138E-002	-1.34364E-003	-1.88960E-003	3.49209E-002	-2.17796E-003
	13	13	1.10013E+000	4.87750E-002	0.00000E+000	5.36590E-002	4.85995E-001	4.39732E-002	4.98113E+001	11	...........	7.30801E-002	-5.30431E-003	6.05684E-001	5.41825E-001	-2.71687E-002	-3.81896E-002	7.05421E-001	-4.39869E-002	3.56449E-003	-2.58718E-004	2.95423E-002	2.64275E-002	-1.32516E-003	-1.86270E-003	3.44069E-002	-2.14546E-003
	14	14	1.09998E+000	4.86976E-002	0.00000E+000	5.35663E-002	4.85220E-001	4.39775E-002	4.97791E+001	11	...........	7.30424E-002	-5.31042E-003	6.05647E-001	5.41841E-001	-2.71717E-002	-3.82021E-002	7.05549E-001	-4.40128E-002	3.55699E-003	-2.58604E-004	2.94936E-002	2.63863E-002	-1.32319E-003	-1.86035E-003	3.43585E-002	-2.14332E-003
	15	15	1.10005E+000	4.86269E-002	0.00000E+000	5.34919E-002	4.84519E-001	4.40452E-002	4.70366E+001	11	...........	7.31737E-002	-5.33431E-003	6.05754E-001	5.41919E-001	-2.71618E-002	-3.81882E-002	7.05604E-001	-4.39712E-002	3.55821E-003	-2.59391E-004	2.94559E-002	2.63519E-002	-1.32079E-003	-1.85697E-003	3.43114E-002	-2.13819E-003
	16	16	1.10013E+000	4.79810E-002	0.00000E+000	5.27855E-002	4.78097E-001	4.34527E-002	4.79426E+001	11	...........	7.22081E-002	-5.18806E-003	6.05737E-001	5.41723E-001	-2.71585E-002	-3.81797E-002	7.05413E-001	-4.40476E-002	3.46461E-003	-2.48928E-004	2.90638E-002	2.59924E-002	-1.30309E-003	-1.83190E-003	3.38464E-002	-2.11345E-003
	17	17	1.09998E+000	4.80651E-002	0.00000E+000	5.28706E-002	4.78936E-001	4.41189E-002	4.97313E+001	11	...........	7.33103E-002	-5.26764E-003	6.05703E-001	5.41852E-001	-2.71906E-002	-3.81965E-002	7.05356E-001	-4.39814E-002	3.52367E-003	-2.53190E-004	2.91132E-002	2.60442E-002	-1.30692E-003	-1.83592E-003	3.39030E-002	-2.11397E-003
	18	18	1.10004E+000	4.80590E-002	0.00000E+000	5.28670E-002	4.78872E-001	4.38203E-002	4.98376E+001	11	...........	7.28215E-002	-5.30944E-003	6.05669E-001	5.41738E-001	-2.71768E-002	-3.82104E-002	7.05408E-001	-4.38996E-002	3.49973E-003	-2.55167E-004	2.91078E-002	2.60354E-002	-1.30609E-003	-1.83635E-003	3.39012E-002	-2.10977E-003
	19	19	1.10014E+000	4.74916E-002	0.00000E+000	5.22471E-002	4.73236E-001	4.38536E-002	4.98693E+001	11	...........	7.28840E-002	-5.26681E-003	6.05510E-001	5.41585E-001	-2.71933E-002	-3.82497E-002	7.05294E-001	-4.38358E-002	3.46138E-003	-2.50129E-004	2.87566E-002	2.57207E-002	-1.29145E-003	-1.81654E-003	3.34955E-002	-2.08183E-003
	20	20	1.09998E+000	4.75368E-002	0.00000E+000	5.22894E-002	4.73687E-001	4.35942E-002	4.91417E+001	11	...........	7.26778E-002	-5.25847E-003	6.05621E-001	5.41552E-001	-2.71886E-002	-3.82578E-002	7.05415E-001	-4.39446E-002	3.45487E-003	-2.49971E-004	2.87893E-002	2.57437E-002	-1.29246E-003	-1.81865E-003	3.35332E-002	-2.08899E-003
	21	21	1.10004E+000	4.75307E-002	0.00000E+000	5.22859E-002	4.73625E-001	4.34868E-002	4.95319E+001	11	...........	7.26426E-002	-5.17083E-003	6.05683E-001	5.41519E-001	-2.72031E-002	-3.82708E-002	7.05536E-001	-4.39228E-002	3.45276E-003	-2.45774E-004	2.87885E-002	2.57388E-002	-1.29298E-003	-1.81904E-003	3.35346E-002	-2.08768E-003
	22	22	1.10014E+000	4.70539E-002	0.00000E+000	5.17657E-002	4.68882E-001	4.34855E-002	4.93914E+001	11	...........	7.26237E-002	-5.20083E-003	6.05592E-001	5.41487E-001	-2.72192E-002	-3.82801E-002	7.05475E-001	-4.39178E-002	3.41723E-003	-2.44719E-004	2.84955E-002	2.54791E-002	-1.28077E-003	-1.80123E-003	3.31954E-002	-2.06650E-003
	23	23	1.09998E+000	4.69623E-002	0.00000E+000	5.16575E-002	4.67970E-001	4.33851E-002	4.62076E+001	11	...........	7.24485E-002	-5.29944E-003	6.05515E-001	5.41595E-001	-2.72418E-002	-3.82653E-002	7.05453E-001	-4.39126E-002	3.40235E-003	-2.48874E-004	2.84364E-002	2.54345E-002	-1.27934E-003	-1.79703E-003	3.31297E-002	-2.06224E-003
	24	24	1.10004E+000	4.71137E-002	0.00000E+000	5.18269E-002	4.69478E-001	4.33632E-002	4.89280E+001	11	...........	7.24157E-002	-5.28778E-003	6.05387E-001	5.41601E-001	-2.72612E-002	-3.82614E-002	7.05509E-001	-4.39043E-002	3.41177E-003	-2.49127E-004	2.85220E-002	2.55168E-002	-1.28438E-003	-1.80263E-003	3.32391E-002	-2.06849E-003
	25	25	1.10014E+000	4.66418E-002	0.00000E+000	5.13124E-002	4.64786E-001	4.33819E-002	4.96914E+001	11	...........	7.24589E-002	-5.29153E-003	6.05445E-001	5.41434E-001	-2.72269E-002	-3.82906E-002	7.05431E-001	-4.39818E-002	3.37961E-003	-2.46806E-004	2.82391E-002	2.52534E-002	-1.26991E-003	-1.78594E-003	3.29026E-002	-2.05139E-003
	26	26	1.09998E+000	4.65957E-002	0.00000E+000	5.12542E-002	4.64332E-001	4.34056E-002	4.90805E+001	11	...........	7.24892E-002	-5.28556E-003	6.05414E-001	5.41544E-001	-2.71996E-002	-3.83215E-002	7.05493E-001	-4.40279E-002	3.37769E-003	-2.46284E-004	2.82097E-002	2.52337E-002	-1.26738E-003	-1.78562E-003	3.28730E-002	-2.05151E-003
	27	27	1.10004E+000	4.66066E-002	0.00000E+000	5.12691E-002	4.64435E-001	4.31408E-002	4.77657E+001	11	...........	7.20433E-002	-5.26222E-003	6.05545E-001	5.41641E-001	-2.71901E-002	-3.83247E-002	7.05451E-001	-4.39750E-002	3.35769E-003	-2.45254E-004	2.82224E-002	2.52440E-002	-1.26724E-003	-1.78618E-003	3.28786E-002	-2.04952E-003
	28	28	1.10014E+000	4.62964E-002	0.00000E+000	5.09324E-002	4.61350E-001	4.33492E-002	4.93370E+001	11	...........	7.24012E-002	-5.27042E-003	6.05391E-001	5.41611E-001	-2.71747E-002	-3.83242E-002	7.05564E-001	-4.40619E-002	3.35191E-003	-2.44001E-004	2.80274E-002	2.50746E-002	-1.25809E-003	-1.77427E-003	3.26651E-002	-2.03991E-003
	29	29	1.09998E+000	4.62022E-002	0.00000E+000	5.08213E-002	4.60415E-001	4.32814E-002	4.95309E+001	11	...........	7.22826E-002	-5.40403E-003	6.05507E-001	5.41587E-001	-2.72049E-002	-3.83143E-002	7.05650E-001	-4.41210E-002	3.33961E-003	-2.49678E-004	2.79757E-002	2.50225E-002	-1.25692E-003	-1.77020E-003	3.26025E-002	-2.03848E-003
	30	30	1.10004E+000	4.63462E-002	0.00000E+000	5.09825E-002	4.61849E-001	4.32115E-002	4.95481E+001	11	...........	7.21521E-002	-5.37972E-003	6.05538E-001	5.41653E-001	-2.71958E-002	-3.83340E-002	7.05666E-001	-4.40517E-002	3.34397E-003	-2.49329E-004	2.80644E-002	2.51035E-002	-1.26042E-003	-1.77663E-003	3.27049E-002	-2.04163E-003
	31	31	1.10014E+000	4.58405E-002	0.00000E+000	5.04310E-002	4.56813E-001	4.32085E-002	4.95359E+001	11	...........	7.21453E-002	-5.24042E-003	6.05522E-001	5.41782E-001	-2.71819E-002	-3.83314E-002	7.05735E-001	-4.40264E-002	3.30717E-003	-2.40223E-004	2.77574E-002	2.48355E-002	-1.24603E-003	-1.75713E-003	3.23512E-002	-2.01819E-003
	32	32	1.09998E+000	4.57899E-002	0.00000E+000	5.03677E-002	4.56312E-001	4.31732E-002	4.89560E+001	11	...........	7.20929E-002	-5.14222E-003	6.05522E-001	5.41689E-001	-2.71808E-002	-3.83329E-002	7.05702E-001	-4.40006E-002	3.30112E-003	-2.35462E-004	2.77268E-002	2.48039E-002	-1.24461E-003	-1.75526E-003	3.23140E-002	-2.01478E-003
	33	33	1.10004E+000	4.58655E-002	0.00000E+000	5.04537E-002	4.57063E-001	4.30010E-002	4.81642E+001	11	...........	7.18000E-002	-5.18375E-003	6.05522E-001	5.41590E-001	-2.71539E-002	-3.83406E-002	7.05542E-001	-4.40728E-002	3.29314E-003	-2.37755E-004	2.77726E-002	2.48403E-002	-1.24543E-003	-1.75851E-003	3.23600E-002	-2.02142E-003
	34	34	1.10014E+000	4.55216E-002	0.00000E+000	5.00802E-002	4.53644E-001	4.31923E-002	4.94798E+001	11	...........	7.21040E-002	-5.22472E-003	6.05560E-001	5.41654E-001	-2.71562E-002	-3.83306E-002	7.05593E-001	-4.39949E-002	3.28229E-003	-2.37838E-004	2.75661E-002	2.46570E-002	-1.23620E-003	-1.74487E-003	3.21197E-002	-2.00272E-003
	35	35	1.09998E+000	4.54275E-002	0.00000E+000	4.99694E-002	4.52711E-001	4.30380E-002	4.97164E+001	11	...........	7.18731E-002	-5.34667E-003	6.05498E-001	5.41604E-001	-2.71586E-002	-3.83418E-002	7.05649E-001	-4.38957E-002	3.26502E-003	-2.42886E-004	2.75063E-002	2.46038E-002	-1.23375E-003	-1.74177E-003	3.20559E-002	-1.99407E-003
	36	36	1.10003E+000	4.55432E-002	0.00000E+000	5.00991E-002	4.53859E-001	4.30398E-002	4.96363E+001	11	...........	7.18805E-002	-5.42097E-003	6.05419E-001	5.41632E-001	-2.71704E-002	-3.83442E-002	7.05673E-001	-4.39481E-002	3.27367E-003	-2.46889E-004	2.75727E-002	2.46677E-002	-1.23743E-003	-1.74632E-003	3.21386E-002	-2.00154E-003
	37	37	1.10014E+000	4.51099E-002	0.00000E+000	4.96272E-002	4.49555E-001	4.30262E-002	4.71689E+001	11	...........	7.18597E-002	-5.37903E-003	6.05492E-001	5.41574E-001	-2.71844E-002	-3.83457E-002	7.05700E-001	-4.39319E-002	3.24159E-003	-2.42648E-004	2.73137E-002	2.44303E-002	-1.22629E-003	-1.72977E-003	3.18341E-002	-1.98177E-003
	38	38	1.09998E+000	4.49748E-002	0.00000E+000	4.94714E-002	4.48209E-001	4.26177E-002	4.80585E+001	11	...........	7.11806E-002	-5.29972E-003	6.05313E-001	5.41499E-001	-2.71944E-002	-3.83396E-002	7.05647E-001	-4.38915E-002	3.20133E-003	-2.38354E-004	2.72239E-002	2.43538E-002	-1.22307E-003	-1.72432E-003	3.17364E-002	-1.97401E-003
	39	39	1.10003E+000	4.52292E-002	0.00000E+000	4.97535E-002	4.50739E-001	4.31422E-002	4.94469E+001	11	...........	7.20450E-002	-5.25708E-003	6.05336E-001	5.41533E-001	-2.72083E-002	-3.83087E-002	7.05593E-001	-4.38181E-002	3.25854E-003	-2.37774E-004	2.73788E-002	2.44931E-002	-1.23061E-003	-1.73267E-003	3.19134E-002	-1.98185E-003
	40	40	1.10014E+000	4.48184E-002	0.00000E+000	4.93065E-002	4.46657E-001	4.29259E-002	4.95418E+001	11	...........	7.16919E-002	-5.36944E-003	6.05422E-001	5.41717E-001	-2.72169E-002	-3.83025E-002	7.05613E-001	-4.37681E-002	3.21312E-003	-2.40650E-004	2.71340E-002	2.42789E-002	-1.21982E-003	-1.71666E-003	3.16244E-002	-1.96161E-003
	41	41	1.09998E+000	4.46805E-002	0.00000E+000	4.91477E-002	4.45289E-001	4.28863E-002	4.85027E+001	11	...........	7.16186E-002	-5.39472E-003	6.05405E-001	5.41730E-001	-2.72067E-002	-3.83022E-002	7.05605E-001	-4.38511E-002	3.19995E-003	-2.41039E-004	2.70498E-002	2.42047E-002	-1.21561E-003	-1.71136E-003	3.15268E-002	-1.95929E-003
	42	42	1.10003E+000	4.48214E-002	0.00000E+000	4.93049E-002	4.46687E-001	4.28417E-002	4.90752E+001	11	...........	7.15504E-002	-5.42528E-003	6.05367E-001	5.41676E-001	-2.72051E-002	-3.83028E-002	7.05629E-001	-4.38185E-002	3.20699E-003	-2.43169E-004	2.71334E-002	2.42787E-002	-1.21937E-003	-1.71679E-003	3.16273E-002	-1.96401E-003
	43	43	1.10014E+000	4.44546E-002	0.00000E+000	4.89064E-002	4.43040E-001	4.28398E-002	4.92084E+001	11	...........	7.15356E-002	-5.36472E-003	6.05572E-001	5.41755E-001	-2.72187E-002	-3.83068E-002	7.05628E-001	-4.37440E-002	3.18009E-003	-2.38487E-004	2.69205E-002	2.40835E-002	-1.21000E-003	-1.70292E-003	3.13684E-002	-1.94463E-003
	44	44	1.09998E+000	4.43125E-002	0.00000E+000	4.87429E-002	4.41623E-001	4.27746E-002	4.91922E+001	11	...........	7.14300E-002	-5.35194E-003	6.05462E-001	5.41827E-001	-2.72078E-002	-3.83249E-002	7.05515E-001	-4.37921E-002	3.16524E-003	-2.37158E-004	2.68295E-002	2.40097E-002	-1.20564E-003	-1.69827E-003	3.12631E-002	-1.94053E-003
	45	45	1.10003E+000	4.45083E-002	0.00000E+000	4.89604E-002	4.43575E-001	4.28290E-002	4.92367E+001	11	...........	7.15228E-002	-5.31819E-003	6.05412E-001	5.41744E-001	-2.71903E-002	-3.83464E-002	7.05457E-001	-4.37563E-002	3.18336E-003	-2.36704E-004	2.69459E-002	2.41121E-002	-1.21019E-003	-1.70673E-003	3.13987E-002	-1.94752E-003
	46	46	1.10014E+000	4.41238E-002	0.00000E+000	4.85424E-002	4.39749E-001	4.27377E-002	4.93144E+001	11	...........	7.13662E-002	-5.37431E-003	6.05284E-001	5.41786E-001	-2.71876E-002	-3.83693E-002	7.05611E-001	-4.37622E-002	3.14895E-003	-2.37135E-004	2.67074E-002	2.39057E-002	-1.19962E-003	-1.69300E-003	3.11342E-002	-1.93095E-003
	47	47	1.09998E+000	4.39679E-002	0.00000E+000	4.83641E-002	4.38197E-001	4.27400E-002	4.93109E+001	11	...........	7.13864E-002	-5.23597E-003	6.05090E-001	5.41841E-001	-2.71687E-002	-3.83618E-002	7.05607E-001	-4.39187E-002	3.13871E-003	-2.30215E-004	2.66046E-002	2.38236E-002	-1.19455E-003	-1.68669E-003	3.10241E-002	-1.93102E-003
	48	48	1.10003E+000	4.41505E-002	0.00000E+000	4.85668E-002	4.40011E-001	4.27382E-002	4.94390E+001	11	...........	7.13689E-002	-5.31069E-003	6.05107E-001	5.41901E-001	-2.71704E-002	-3.83750E-002	7.05645E-001	-4.38911E-002	3.15097E-003	-2.34470E-004	2.67158E-002	2.39252E-002	-1.19959E-003	-1.69428E-003	3.11546E-002	-1.93781E-003
	49	49	1.10014E+000	4.37871E-002	0.00000E+000	4.81719E-002	4.36398E-001	4.27099E-002	4.68053E+001	11	...........	7.13301E-002	-5.28028E-003	6.04995E-001	5.41861E-001	-2.72007E-002	-3.83842E-002	7.05643E-001	-4.37246E-002	3.12334E-003	-2.31208E-004	2.64910E-002	2.37265E-002	-1.19104E-003	-1.68073E-003	3.08981E-002	-1.91457E-003
	50	50	1.09999E+000	4.35399E-002	0.00000E+000	4.78935E-002	4.33939E-001	4.21922E-002	4.69370E+001	11	...........	7.04512E-002	-5.27556E-003	6.04741E-001	5.41914E-001	-2.71906E-002	-3.83735E-002	7.05584E-001	-4.37064E-002	3.06744E-003	-2.29697E-004	2.63304E-002	2.35949E-002	-1.18387E-003	-1.67078E-003	3.07210E-002	-1.90297E-003
	51	51	1.10003E+000	4.38055E-002	0.00000E+000	4.81872E-002	4.36581E-001	4.27307E-002	4.88490E+001	11	...........	7.13515E-002	-5.35764E-003	6.04746E-001	5.41992E-001	-2.71801E-002	-3.83742E-002	7.05581E-001	-4.38114E-002	3.12559E-003	-2.34694E-004	2.64912E-002	2.37422E-002	-1.19064E-003	-1.68100E-003	3.09083E-002	-1.91918E-003
	52	52	1.10014E+000	4.35082E-002	0.00000E+000	4.78649E-002	4.33627E-001	4.26288E-002	4.93022E+001	11	...........	7.12008E-002	-5.26694E-003	6.04790E-001	5.42027E-001	-2.72017E-002	-3.83790E-002	7.05543E-001	-4.37608E-002	3.09782E-003	-2.29155E-004	2.63133E-002	2.35826E-002	-1.18350E-003	-1.66980E-003	3.06969E-002	-1.90396E-003
	53	53	1.09999E+000	4.32662E-002	0.00000E+000	4.75925E-002	4.31218E-001	4.25845E-002	4.91716E+001	11	...........	7.11194E-002	-5.31319E-003	6.04906E-001	5.42012E-001	-2.71683E-002	-3.83447E-002	7.05533E-001	-4.38021E-002	3.07707E-003	-2.29882E-004	2.61720E-002	2.34508E-002	-1.17547E-003	-1.65903E-003	3.05257E-002	-1.89515E-003
	54	54	1.10003E+000	4.34501E-002	0.00000E+000	4.77963E-002	4.33047E-001	4.24957E-002	4.92375E+001	11	...........	7.09721E-002	-5.42167E-003	6.04976E-001	5.42080E-001	-2.71806E-002	-3.83356E-002	7.05517E-001	-4.38194E-002	3.08375E-003	-2.35572E-004	2.62863E-002	2.35535E-002	-1.18100E-003	-1.66569E-003	3.06548E-002	-1.90396E-003
	55	55	1.10014E+000	4.31295E-002	0.00000E+000	4.74482E-002	4.29858E-001	4.25037E-002	4.79894E+001	11	...........	7.09522E-002	-5.42069E-003	6.04731E-001	5.42070E-001	-2.71940E-002	-3.83281E-002	7.05665E-001	-4.38196E-002	3.06013E-003	-2.33792E-004	2.60817E-002	2.33792E-002	-1.17286E-003	-1.65307E-003	3.04349E-002	-1.88991E-003
	56	56	1.09999E+000	4.29483E-002	0.00000E+000	4.72429E-002	4.28055E-001	4.23815E-002	4.77136E+001	11	...........	7.07768E-002	-5.41958E-003	6.04610E-001	5.42109E-001	-2.72212E-002	-3.82924E-002	7.05649E-001	-4.39714E-002	3.03975E-003	-2.32762E-004	2.59670E-002	2.32827E-002	-1.16911E-003	-1.64459E-003	3.03065E-002	-1.88850E-003
	57	57	1.10002E+000	4.31005E-002	0.00000E+000	4.74116E-002	4.29572E-001	4.23687E-002	4.90098E+001	11	...........	7.07519E-002	-5.42500E-003	6.04531E-001	5.42006E-001	-2.72200E-002	-3.83011E-002	7.05651E-001	-4.38642E-002	3.04945E-003	-2.33820E-004	2.60556E-002	2.33608E-002	-1.17320E-003	-1.65080E-003	3.04139E-002	-1.89057E-003
	58	58	1.10013E+000	4.28697E-002	0.00000E+000	4.71623E-002	4.27275E-001	4.24978E-002	4.94187E+001	11	...........	7.09718E-002	-5.40583E-003	6.04503E-001	5.42102E-001	-2.72135E-002	-3.82797E-002	7.05676E-001	-4.37343E-002	3.04254E-003	-2.31746E-004	2.59148E-002	2.32397E-002	-1.16663E-003	-1.64104E-003	3.02521E-002	-1.87487E-003
	59	59	1.10000E+000	4.26051E-002	0.00000E+000	4.68656E-002	4.24646E-001	4.23227E-002	4.94039E+001	11	...........	7.06821E-002	-5.41458E-003	6.04517E-001	5.42097E-001	-2.71819E-002	-3.82951E-002	7.05738E-001	-4.37046E-002	3.01142E-003	-2.30689E-004	2.57555E-002	2.30961E-002	-1.15809E-003	-1.63157E-003	3.00680E-002	-1.86204E-003
	60	60	1.10002E+000	4.28103E-002	0.00000E+000	4.70923E-002	4.26687E-001	4.23277E-002	4.86942E+001	11	...........	7.06972E-002	-5.37472E-003	6.04810E-001	5.42105E-001	-2.71992E-002	-3.83064E-002	7.05675E-001	-4.38447E-002	3.02657E-003	-2.30094E-004	2.58921E-002	2.32077E-002	-1.16440E-003	-1.63991E-003	3.02102E-002	-1.87701E-003
	61	61	1.10013E+000	4.24589E-002	0.00000E+000	4.67103E-002	4.23191E-001	4.22900E-002	4.73216E+001	11	...........	7.06135E-002	-5.39014E-003	6.04971E-001	5.42062E-001	-2.72136E-002	-3.83164E-002	7.05740E-001	-4.39440E-002	2.99817E-003	-2.28859E-004	2.56864E-002	2.30153E-002	-1.15546E-003	-1.62687E-003	2.99649E-002	-1.86581E-003
	62	62	1.10000E+000	4.22789E-002	0.00000E+000	4.65069E-002	4.21403E-001	4.22293E-002	4.79918E+001	11	...........	7.05108E-002	-5.39778E-003	6.04987E-001	5.42054E-001	-2.71950E-002	-3.83156E-002	7.05732E-001	-4.38471E-002	2.98112E-003	-2.28212E-004	2.55782E-002	2.29175E-002	-1.14978E-003	-1.61994E-003	2.98376E-002	-1.85381E-003
	63	63	1.10002E+000	4.24977E-002	0.00000E+000	4.67483E-002	4.23578E-001	4.22855E-002	4.90548E+001	11	...........	7.05964E-002	-5.50389E-003	6.05043E-001	5.41899E-001	-2.72206E-002	-3.82819E-002	7.05775E-001	-4.38110E-002	3.00018E-003	-2.33902E-004	2.57129E-002	2.30295E-002	-1.15681E-003	-1.62689E-003	2.99938E-002	-1.86186E-003
	64	64	1.10013E+000	4.22022E-002	0.00000E+000	4.64278E-002	4.20639E-001	4.22674E-002	4.94039E+001	11	...........	7.05640E-002	-5.43347E-003	6.05163E-001	5.41820E-001	-2.72210E-002	-3.82693E-002	7.05639E-001	-4.37711E-002	2.97795E-003	-2.29304E-004	2.55392E-002	2.28660E-002	-1.14878E-003	-1.61505E-003	2.97795E-002	-1.84724E-003
	65	65	1.10001E+000	4.19623E-002	0.00000E+000	4.61588E-002	4.18251E-001	4.22291E-002	4.94419E+001	11	...........	7.05107E-002	-5.34139E-003	6.05085E-001	5.41905E-001	-2.72194E-002	-3.82661E-002	7.05659E-001	-4.38072E-002	2.95879E-003	-2.24137E-004	2.53908E-002	2.27396E-002	-1.14219E-003	-1.60573E-003	2.96111E-002	-1.83825E-003
	66	66	1.10002E+000	4.21683E-002	0.00000E+000	4.63860E-002	4.20302E-001	4.22417E-002	4.94958E+001	11	...........	7.05562E-002	-5.42514E-003	6.04993E-001	5.41790E-001	-2.72010E-002	-3.82624E-002	7.05699E-001	-4.37747E-002	2.97524E-003	-2.28769E-004	2.55115E-002	2.28464E-002	-1.14702E-003	-1.61346E-003	2.97581E-002	-1.84591E-003
	67	67	1.10012E+000	4.19222E-002	0.00000E+000	4.61197E-002	4.17855E-001	4.21594E-002	4.93928E+001	11	...........	7.04001E-002	-5.47361E-003	6.04869E-001	5.41662E-001	-2.71925E-002	-3.82399E-002	7.05794E-001	-4.38875E-002	2.95133E-003	-2.29466E-004	2.53574E-002	2.27077E-002	-1.13997E-003	-1.60310E-003	2.95884E-002	-1.83986E-003
	68	68	1.10001E+000	4.16502E-002	0.00000E+000	4.58156E-002	4.15155E-001	4.21343E-002	4.89849E+001	11	...........	7.03833E-002	-5.39569E-003	6.04726E-001	5.41530E-001	-2.71836E-002	-3.82642E-002	7.05788E-001	-4.39849E-002	2.93148E-003	-2.24732E-004	2.51870E-002	2.25548E-002	-1.13220E-003	-1.59371E-003	2.93962E-002	-1.83198E-003
	69	69	1.10002E+000	4.18858E-002	0.00000E+000	4.60752E-002	4.17492E-001	4.21317E-002	4.92667E+001	11	...........	7.03515E-002	-5.38194E-003	6.04811E-001	5.41642E-001	-2.72026E-002	-3.82531E-002	7.05817E-001	-4.39062E-002	2.94673E-003	-2.25427E-004	2.53330E-002	2.26871E-002	-1.13940E-003	-1.60226E-003	2.95637E-002	-1.83905E-003
	70	70	1.10012E+000	4.16346E-002	0.00000E+000	4.58031E-002	4.14996E-001	4.20860E-002	4.92908E+001	11	...........	7.02829E-002	-5.36528E-003	6.04778E-001	5.41535E-001	-2.71672E-002	-3.82471E-002	7.05657E-001	-4.38528E-002	2.92620E-003	-2.23381E-004	2.51797E-002	2.25466E-002	-1.13110E-003	-1.59240E-003	2.93797E-002	-1.82579E-003
	71	71	1.10001E+000	4.13501E-002	0.00000E+000	4.54856E-002	4.12164E-001	4.21144E-002	4.92499E+001	11	...........	7.03156E-002	-5.36153E-003	6.04764E-001	5.41515E-001	-2.71675E-002	-3.82342E-002	7.05650E-001	-4.37854E-002	2.90755E-003	-2.21700E-004	2.50070E-002	2.23917E-002	-1.12338E-003	-1.58099E-003	2.91787E-002	-1.81053E-003
	72	72	1.10002E+000	4.15194E-002	0.00000E+000	4.56723E-002	4.13847E-001	4.20702E-002	4.93509E+001	11	...........	7.02528E-002	-5.32944E-003	6.04744E-001	5.41300E-001	-2.71924E-002	-3.82392E-002	7.05690E-001	-4.38117E-002	2.91686E-003	-2.21276E-004	2.51087E-002	2.24745E-002	-1.12901E-003	-1.58767E-003	2.92998E-002	-1.81904E-003
	73	73	1.10012E+000	4.12092E-002	0.00000E+000	4.53352E-002	4.10764E-001	4.20285E-002	4.51483E+001	11	...........	7.01714E-002	-5.38375E-003	6.04770E-001	5.41342E-001	-2.71844E-002	-3.82182E-002	7.05660E-001	-4.37676E-002	2.89171E-003	-2.21860E-004	2.49221E-002	2.23083E-002	-1.12025E-003	-1.57494E-003	2.90797E-002	-1.80363E-003
	74	74	1.10001E+000	4.10411E-002	0.00000E+000	4.51456E-002	4.09093E-001	4.19020E-002	4.79441E+001	11	...........	6.99754E-002	-5.28806E-003	6.04619E-001	5.41265E-001	-2.71599E-002	-3.82228E-002	7.05557E-001	-4.38219E-002	2.87187E-003	-2.17027E-004	2.48142E-002	2.22141E-002	-1.11467E-003	-1.56870E-003	2.89568E-002	-1.79850E-003
	75	75	1.10002E+000	4.12489E-002	0.00000E+000	4.53746E-002	4.11159E-001	4.19425E-002	4.74638E+001	11	...........	7.00581E-002	-5.34236E-003	6.04694E-001	5.41273E-001	-2.71774E-002	-3.82165E-002	7.05536E-001	-4.38218E-002	2.88982E-003	-2.20367E-004	2.49430E-002	2.23269E-002	-1.12104E-003	-1.57639E-003	2.91026E-002	-1.80760E-003
	76	76	1.10012E+000	4.09697E-002	0.00000E+000	4.50715E-002	4.08381E-001	4.16916E-002	4.82547E+001	11	...........	6.96293E-002	-5.23861E-003	6.04707E-001	5.41291E-001	-2.71779E-002	-3.82504E-002	7.05529E-001	-4.38669E-002	2.85269E-003	-2.14624E-004	2.47747E-002	2.21765E-002	-1.11347E-003	-1.56711E-003	2.89053E-002	-1.79722E-003
	77	77	1.10002E+000	4.07453E-002	0.00000E+000	4.48206E-002	4.06146E-001	4.21240E-002	4.91706E+001	11	...........	7.03521E-002	-5.45417E-003	6.04670E-001	5.41176E-001	-2.71631E-002	-3.82711E-002	7.05680E-001	-4.38361E-002	2.86652E-003	-2.22232E-004	2.46375E-002	2.20504E-002	-1.10677E-003	-1.55937E-003	2.87532E-002	-1.78612E-003
	78	78	1.10002E+000	4.09650E-002	0.00000E+000	4.50622E-002	4.08332E-001	4.18863E-002	4.92578E+001	11	...........	6.99428E-002	-5.42847E-003	6.04761E-001	5.41261E-001	-2.71549E-002	-3.82440E-002	7.05567E-001	-4.38226E-002	2.86520E-003	-2.22377E-004	2.47740E-002	2.21727E-002	-1.11240E-003	-1.56667E-003	2.89035E-002	-1.79519E-003
	79	79	1.10012E+000	4.07522E-002	0.00000E+000	4.48321E-002	4.06218E-001	4.18680E-002	4.81582E+001	11	...........	6.98940E-002	-5.38694E-003	6.04749E-001	5.41370E-001	-2.71515E-002	-3.82396E-002	7.05624E-001	-4.38456E-002	2.84833E-003	-2.19530E-004	2.46449E-002	2.20620E-002	-1.10648E-003	-1.55835E-003	2.87557E-002	-1.78680E-003
	80	80	1.10002E+000	4.04079E-002	0.00000E+000	4.44495E-002	4.02792E-001	4.17362E-002	4.83114E+001	11	...........	6.97030E-002	-5.36653E-003	6.04713E-001	5.41597E-001	-2.71328E-002	-3.82126E-002	7.05580E-001	-4.38621E-002	2.81655E-003	-2.16850E-004	2.44352E-002	2.18848E-002	-1.09638E-003	-1.54409E-003	2.85110E-002	-1.77237E-003
	81	81	1.10002E+000	4.06339E-002	0.00000E+000	4.46980E-002	4.05041E-001	4.18328E-002	4.89365E+001	11	...........	6.98708E-002	-5.26861E-003	6.04671E-001	5.41612E-001	-2.71317E-002	-3.81879E-002	7.05592E-001	-4.39033E-002	2.83913E-003	-2.14084E-004	2.45702E-002	2.20078E-002	-1.10247E-003	-1.55172E-003	2.86710E-002	-1.78396E-003
	82	82	1.10011E+000	4.04574E-002	0.00000E+000	4.45077E-002	4.03289E-001	4.18232E-002	4.90176E+001	11	...........	6.98571E-002	-5.23264E-003	6.04827E-001	5.41619E-001	-2.71239E-002	-3.81614E-002	7.05847E-001	-4.38860E-002	2.82623E-003	-2.11699E-004	2.44697E-002	2.19125E-002	-1.09736E-003	-1.54391E-003	2.85567E-002	-1.77551E-003
	83	83	1.10003E+000	4.01391E-002	0.00000E+000	4.41541E-002	4.00125E-001	4.18510E-002	4.89672E+001	11	...........	6.99114E-002	-5.20181E-003	6.04811E-001	5.41630E-001	-2.70914E-002	-3.81911E-002	7.05725E-001	-4.39112E-002	2.80618E-003	-2.08796E-004	2.42766E-002	2.17406E-002	-1.08743E-003	-1.53296E-003	2.83272E-002	-1.76256E-003
	84	84	1.10002E+000	4.02512E-002	0.00000E+000	4.42770E-002	4.01240E-001	4.16047E-002	4.64000E+001	11	...........	6.94751E-002	-5.25444E-003	6.04709E-001	5.41698E-001	-2.70699E-002	-3.81760E-002	7.05726E-001	-4.37901E-002	2.79646E-003	-2.11498E-004	2.43403E-002	2.18040E-002	-1.08959E-003	-1.53663E-003	2.84063E-002	-1.76261E-003
	85	85	1.10011E+000	4.01947E-002	0.00000E+000	4.42186E-002	4.00682E-001	4.15522E-002	4.85415E+001	11	...........	6.97919E-002	-5.29361E-003	6.04578E-001	5.41793E-001	-2.70824E-002	-3.81717E-002	7.05650E-001	-4.37678E-002	2.80527E-003	-2.12775E-004	2.43008E-002	2.17772E-002	-1.08857E-003	-1.53430E-003	2.83634E-002	-1.75923E-003
	86	86	1.10003E+000	3.98662E-002	0.00000E+000	4.38540E-002	3.97414E-001	4.16358E-002	4.93000E+001	11	...........	6.95257E-002	-5.36514E-003	6.04819E-001	5.41714E-001	-2.70654E-002	-3.81521E-002	7.05685E-001	-4.37703E-002	2.77173E-003	-2.13888E-004	2.41118E-002	2.15961E-002	-1.07900E-003	-1.52098E-003	2.81330E-002	-1.74495E-003
	87	87	1.10001E+000	4.00383E-002	0.00000E+000	4.40427E-002	3.99121E-001	4.17792E-002	4.74557E+001	11	...........	6.97493E-002	-5.40361E-003	6.04858E-001	5.41768E-001	-2.70375E-002	-3.81651E-002	7.05620E-001	-4.37736E-002	2.79264E-003	-2.16351E-004	2.42175E-002	2.16915E-002	-1.08254E-003	-1.52807E-003	2.82518E-002	-1.75262E-003
	88	88	1.10011E+000	3.98635E-002	0.00000E+000	4.38541E-002	3.97381E-001	4.15593E-002	4.88166E+001	11	...........	6.93962E-002	-5.32514E-003	6.04990E-001	5.41828E-001	-2.70571E-002	-3.81865E-002	7.05614E-001	-4.38457E-002	2.76637E-003	-2.12278E-004	2.41170E-002	2.15991E-002	-1.07859E-003	-1.52225E-003	2.81282E-002	-1.74784E-003
	89	89	1.10003E+000	3.95354E-002	0.00000E+000	4.34902E-002	3.94119E-001	4.16760E-002	4.91505E+001	11	...........	6.96036E-002	-5.48417E-003	6.04986E-001	5.41769E-001	-2.70504E-002	-3.81801E-002	7.05590E-001	-4.37925E-002	2.75181E-003	-2.16819E-004	2.39183E-002	2.14190E-002	-1.06945E-003	-1.50947E-003	2.78958E-002	-1.73135E-003
	90	90	1.10001E+000	3.97547E-002	0.00000E+000	4.37307E-002	3.96297E-001	4.15805E-002	4.90821E+001	11	...........	6.94480E-002	-5.47444E-003	6.04995E-001	5.41949E-001	-2.70197E-002	-3.81847E-002	7.05499E-001	-4.37650E-002	2.76089E-003	-2.17635E-004	2.40514E-002	2.15450E-002	-1.07416E-003	-1.51802E-003	2.80469E-002	-1.73986E-003
	91	91	1.10011E+000	3.95953E-002	0.00000E+000	4.35590E-002	3.94719E-001	4.15768E-002	4.78899E+001	11	...........	6.94936E-002	-5.37014E-003	6.04798E-001	5.42054E-001	-2.70086E-002	-3.81778E-002	7.05574E-001	-4.37617E-002	2.75162E-003	-2.12632E-004	2.39471E-002	2.14628E-002	-1.06941E-003	-1.51166E-003	2.79374E-002	-1.73276E-003
	92	92	1.10004E+000	3.92154E-002	0.00000E+000	4.31383E-002	3.90940E-001	4.15251E-002	4.73070E+001	11	...........	6.93114E-002	-5.36514E-003	6.04868E-001	5.42048E-001	-2.70190E-002	-3.81831E-002	7.05544E-001	-4.37886E-002	2.71807E-003	-2.10396E-004	2.37201E-002	2.12566E-002	-1.05956E-003	-1.49736E-003	2.76682E-002	-1.71719E-003
	93	93	1.10001E+000	3.94014E-002	0.00000E+000	4.33421E-002	3.92793E-001	4.13253E-002	4.77814E+001	11	...........	6.90160E-002	-5.32403E-003	6.04861E-001	5.41975E-001	-2.70369E-002	-3.81714E-002	7.05456E-001	-4.39503E-002	2.71933E-003	-2.09774E-004	2.38324E-002	2.13546E-002	-1.06529E-003	-1.50401E-003	2.77960E-002	-1.73170E-003
	94	94	1.10010E+000	3.93146E-002	0.00000E+000	4.32501E-002	3.91927E-001	4.17054E-002	4.90954E+001	11	...........	6.96515E-002	-5.30292E-003	6.05005E-001	5.42040E-001	-2.70547E-002	-3.81675E-002	7.05792E-001	-4.38253E-002	2.73832E-003	-2.08482E-004	2.37855E-002	2.13101E-002	-1.06365E-003	-1.50054E-003	2.77479E-002	-1.72297E-003
	95	95	1.10004E+000	3.89431E-002	0.00000E+000	4.28389E-002	3.88234E-001	4.15475E-002	4.92160E+001	11	...........	6.93911E-002	-5.39194E-003	6.05032E-001	5.42053E-001	-2.70446E-002	-3.81532E-002	7.05700E-001	-4.39025E-002	2.70230E-003	-2.09979E-004	2.35618E-002	2.11092E-002	-1.05320E-003	-1.48580E-003	2.74821E-002	-1.70970E-003
	96	96	1.10001E+000	3.91558E-002	0.00000E+000	4.30718E-002	3.90349E-001	4.14852E-002	4.82027E+001	11	...........	6.92644E-002	-5.43181E-003	6.04896E-001	5.42101E-001	-2.70844E-002	-3.81322E-002	7.05798E-001	-4.40089E-002	2.71210E-003	-2.12687E-004	2.36852E-002	2.12264E-002	-1.06051E-003	-1.49310E-003	2.76361E-002	-1.72320E-003
	97	97	1.10010E+000	3.90856E-002	0.00000E+000	4.29980E-002	3.89653E-001	4.14985E-002	4.88988E+001	11	...........	6.93094E-002	-5.32556E-003	6.04989E-001	5.42176E-001	-2.71022E-002	-3.81122E-002	7.05713E-001	-4.39486E-002	2.70900E-003	-2.08152E-004	2.36464E-002	2.11913E-002	-1.05931E-003	-1.48964E-003	2.75832E-002	-1.71776E-003
	98	98	1.10004E+000	3.86733E-002	0.00000E+000	4.25424E-002	3.85554E-001	4.14475E-002	4.82849E+001	11	...........	6.92144E-002	-5.25292E-003	6.05051E-001	5.42269E-001	-2.70986E-002	-3.81096E-002	7.05564E-001	-4.38765E-002	2.67675E-003	-2.03148E-004	2.33993E-002	2.09713E-002	-1.04799E-003	-1.47382E-003	2.72865E-002	-1.69685E-003
	99	99	1.10001E+000	3.88477E-002	0.00000E+000	4.27328E-002	3.87284E-001	4.12302E-002	4.84089E+001	11	...........	6.88408E-002	-5.20333E-003	6.04943E-001	5.42321E-001	-2.70983E-002	-3.81200E-002	7.05603E-001	-4.39474E-002	2.67431E-003	-2.02138E-004	2.35006E-002	2.10679E-002	-1.05271E-003	-1.48087E-003	2.74111E-002	-1.70725E-003
	100	100	1.10010E+000	3.87801E-002	0.00000E+000	4.26619E-002	3.86611E-001	4.16454E-002	4.81439E+001	11	...........	6.95740E-002	-5.26681E-003	6.04979E-001	5.42306E-001	-2.71096E-002	-3.81465E-002	7.05659E-001	-4.39682E-002	2.69809E-003	-2.04247E-004	2.34611E-002	2.10307E-002	-1.05131E-003	-1.47933E-003	2.73655E-002	-1.70509E-003
	101	101	1.10005E+000	3.83134E-002	0.00000E+000	4.21465E-002	3.81974E-001	4.10894E-002	4.73306E+001	11	...........	6.86189E-002	-5.27444E-003	6.04798E-001	5.42367E-001	-2.70999E-002	-3.81169E-002	7.05668E-001	-4.38889E-002	2.62902E-003	-2.02082E-004	2.31718E-002	2.07799E-002	-1.03829E-003	-1.46039E-003	2.70365E-002	-1.68153E-003
	102	102	1.10001E+000	3.86077E-002	0.00000E+000	4.24688E-002	3.84901E-001	4.15543E-002	4.89227E+001	11	...........	6.93799E-002	-5.38125E-003	6.04666E-001	5.42487E-001	-2.71119E-002	-3.80956E-002	7.05689E-001	-4.38850E-002	2.67859E-003	-2.07757E-004	2.33447E-002	2.09442E-002	-1.04673E-003	-1.47078E-003	2.72450E-002	-1.69430E-003
	103	103	1.10009E+000	3.84993E-002	0.00000E+000	4.23528E-002	3.83824E-001	4.13587E-002	4.71152E+001	11	...........	6.90719E-002	-5.44014E-003	6.04692E-001	5.42475E-001	-2.71318E-002	-3.80964E-002	7.05775E-001	-4.38647E-002	2.65922E-003	-2.09441E-004	2.32802E-002	2.08849E-002	-1.04456E-003	-1.46668E-003	2.71718E-002	-1.68876E-003
	104	104	1.10005E+000	3.80579E-002	0.00000E+000	4.18658E-002	3.79437E-001	4.10903E-002	4.78416E+001	11	...........	6.86218E-002	-5.31583E-003	6.04692E-001	5.42413E-001	-2.71229E-002	-3.80942E-002	7.05666E-001	-4.39271E-002	2.61160E-003	-2.02310E-004	2.30133E-002	2.06431E-002	-1.03224E-003	-1.44978E-003	2.68562E-002	-1.67177E-003
	105	105	1.10001E+000	3.83595E-002	0.00000E+000	4.21957E-002	3.82430E-001	4.15478E-002	4.91109E+001	11	...........	6.93694E-002	-5.33944E-003	6.04693E-001	5.42301E-001	-2.71272E-002	-3.80947E-002	7.05659E-001	-4.39056E-002	2.66098E-003	-2.04818E-004	2.31957E-002	2.08024E-002	-1.04059E-003	-1.46129E-003	2.70687E-002	-1.68419E-003
	106	106	1.10009E+000	3.81541E-002	0.00000E+000	4.19731E-002	3.80394E-001	4.13735E-002	4.76546E+001	11	...........	6.91011E-002	-5.32083E-003	6.04514E-001	5.42438E-001	-2.71325E-002	-3.81271E-002	7.05674E-001	-4.39289E-002	2.63649E-003	-2.03012E-004	2.30647E-002	2.06962E-002	-1.03522E-003	-1.45470E-003	2.69244E-002	-1.67607E-003
	107	107	1.10006E+000	3.78036E-002	0.00000E+000	4.15861E-002	3.76909E-001	4.11636E-002	4.83802E+001	11	...........	6.87426E-002	-5.28236E-003	6.04493E-001	5.42549E-001	-2.71199E-002	-3.81147E-002	7.05691E-001	-4.39235E-002	2.59872E-003	-1.99692E-004	2.28520E-002	2.05103E-002	-1.02523E-003	-1.44087E-003	2.66777E-002	-1.66047E-003
	108	108	1.10001E+000	3.79738E-002	0.00000E+000	4.17714E-002	3.78603E-001	4.12918E-002	4.89220E+001	11	...........	6.89674E-002	-5.30208E-003	6.04539E-001	5.42545E-001	-2.71460E-002	-3.81128E-002	7.05714E-001	-4.39312E-002	2.61895E-003	-2.01340E-004	2.29566E-002	2.06025E-002	-1.03083E-003	-1.44729E-003	2.67986E-002	-1.66824E-003
	109	109	1.10009E+000	3.79358E-002	0.00000E+000	4.17326E-002	3.78225E-001	4.13186E-002	4.83858E+001	11	...........	6.89924E-002	-5.28639E-003	6.04472E-001	5.42405E-001	-2.71369E-002	-3.81185E-002	7.05639E-001	-4.38507E-002	2.61728E-003	-2.00543E-004	2.29311E-002	2.05765E-002	-1.02946E-003	-1.44605E-003	2.67690E-002	-1.66351E-003
	110	110	1.10006E+000	3.75539E-002	0.00000E+000	4.13116E-002	3.74428E-001	4.12534E-002	4.86675E+001	11	...........	6.89039E-002	-5.22889E-003	6.04592E-001	5.42327E-001	-2.71236E-002	-3.81118E-002	7.05738E-001	-4.38743E-002	2.58761E-003	-1.96365E-004	2.27048E-002	2.03665E-002	-1.01860E-003	-1.43125E-003	2.65032E-002	-1.64765E-003
	111	111	1.10000E+000	3.77412E-002	0.00000E+000	4.15155E-002	3.76287E-001	4.12703E-002	4.87957E+001	11	...........	6.89160E-002	-5.29069E-003	6.04542E-001	5.42244E-001	-2.71239E-002	-3.81167E-002	7.05678E-001	-4.38536E-002	2.60097E-003	-1.99677E-004	2.28162E-002	2.04650E-002	-1.02369E-003	-1.43857E-003	2.66332E-002	-1.65509E-003
	112	112	1.10009E+000	3.76821E-002	0.00000E+000	4.14535E-002	3.75701E-001	4.12425E-002	4.88062E+001	11	...........	6.88718E-002	-5.37444E-003	6.04374E-001	5.42262E-001	-2.71315E-002	-3.81094E-002	7.05748E-001	-4.39856E-002	2.59523E-003	-2.02520E-004	2.27741E-002	2.04336E-002	-1.02237E-003	-1.43604E-003	2.65940E-002	-1.65747E-003
	113	113	1.10007E+000	3.72580E-002	0.00000E+000	4.09863E-002	3.71482E-001	4.11854E-002	4.71146E+001	11	...........	6.87629E-002	-5.40583E-003	6.04290E-001	5.42275E-001	-2.71296E-002	-3.80983E-002	7.05750E-001	-4.39410E-002	2.56197E-003	-2.01411E-004	2.25147E-002	2.02041E-002	-1.01079E-003	-1.41947E-003	2.62949E-002	-1.63715E-003
	114	114	1.10000E+000	3.74898E-002	0.00000E+000	4.12389E-002	3.73789E-001	4.11523E-002	4.86848E+001	11	...........	6.87157E-002	-5.28000E-003	6.04337E-001	5.42227E-001	-2.71322E-002	-3.80761E-002	7.05693E-001	-4.39182E-002	2.57614E-003	-1.97946E-004	2.26565E-002	2.03280E-002	-1.01718E-003	-1.42747E-003	2.64563E-002	-1.64648E-003
	115	115	1.10008E+000	3.74138E-002	0.00000E+000	4.11582E-002	3.73031E-001	4.12212E-002	4.90043E+001	11	...........	6.88276E-002	-5.32694E-003	6.04331E-001	5.42325E-001	-2.71483E-002	-3.80771E-002	7.05772E-001	-4.39440E-002	2.57510E-003	-1.99301E-004	2.26103E-002	2.02904E-002	-1.01572E-003	-1.42461E-003	2.64056E-002	-1.64411E-003
	116	116	1.10007E+000	3.69935E-002	0.00000E+000	4.06954E-002	3.68851E-001	4.11953E-002	4.58088E+001	11	...........	6.87832E-002	-5.37653E-003	6.04346E-001	5.42450E-001	-2.71374E-002	-3.80590E-002	7.05854E-001	-4.39428E-002	2.54453E-003	-1.98897E-004	2.23569E-002	2.00671E-002	-1.00391E-003	-1.40794E-003	2.61120E-002	-1.62560E-003
	117	117	1.10000E+000	3.71534E-002	0.00000E+000	4.08688E-002	3.70445E-001	4.08157E-002	4.80324E+001	11	...........	6.81547E-002	-5.35542E-003	6.04363E-001	5.42437E-001	-2.71386E-002	-3.80874E-002	7.05868E-001	-4.39817E-002	2.53218E-003	-1.98972E-004	2.24542E-002	2.01534E-002	-1.00829E-003	-1.41508E-003	2.62254E-002	-1.63407E-003
	118	118	1.10008E+000	3.71492E-002	0.00000E+000	4.08671E-002	3.70401E-001	4.12085E-002	4.90714E+001	11	...........	6.88079E-002	-5.38139E-003	6.04595E-001	5.42587E-001	-2.71343E-002	-3.80982E-002	7.05899E-001	-4.40528E-002	2.55616E-003	-1.99914E-004	2.24602E-002	2.01567E-002	-1.00802E-003	-1.41532E-003	2.62236E-002	-1.63653E-003
	119	119	1.10007E+000	3.67644E-002	0.00000E+000	4.04436E-002	3.66575E-001	4.10719E-002	4.83777E+001	11	...........	6.85772E-002	-5.34347E-003	6.04779E-001	5.42545E-001	-2.71268E-002	-3.81179E-002	7.05878E-001	-4.40244E-002	2.52120E-003	-1.96450E-004	2.22343E-002	1.99463E-002	-9.97301E-004	-1.40138E-003	2.59512E-002	-1.61853E-003
	120	120	1.10000E+000	3.69120E-002	0.00000E+000	4.06033E-002	3.68047E-001	4.10147E-002	4.87189E+001	11	...........	6.84964E-002	-5.37208E-003	6.04715E-001	5.42503E-001	-2.71082E-002	-3.81154E-002	7.05772E-001	-4.39526E-002	2.52834E-003	-1.98295E-004	2.23213E-002	2.00249E-002	-1.00062E-003	-1.40692E-003	2.60515E-002	-1.62238E-003
	121	121	1.10007E+000	3.69043E-002	0.00000E+000	4.05974E-002	3.67970E-001	4.10636E-002	4.89134E+001	11	...........	6.85789E-002	-5.43958E-003	6.04746E-001	5.42485E-001	-2.71192E-002	-3.81211E-002	7.05788E-001	-4.39178E-002	2.53085E-003	-2.00744E-004	2.23177E-002	2.00200E-002	-1.00081E-003	-1.40683E-003	2.60466E-002	-1.62075E-003
	122	122	1.10008E+000	3.65036E-002	0.00000E+000	4.01568E-002	3.63981E-001	4.10009E-002	4.89374E+001	11	...........	6.84650E-002	-5.35542E-003	6.04831E-001	5.42483E-001	-2.71256E-002	-3.81328E-002	7.05715E-001	-4.38982E-002	2.49922E-003	-1.95492E-004	2.20785E-002	1.98026E-002	-9.90181E-004	-1.39198E-003	2.57612E-002	-1.60244E-003
	123	123	1.10000E+000	3.66418E-002	0.00000E+000	4.03060E-002	3.65353E-001	4.10501E-002	4.89444E+001	11	...........	6.85569E-002	-5.35875E-003	6.04787E-001	5.42433E-001	-2.71115E-002	-3.81289E-002	7.05648E-001	-4.38149E-002	2.51205E-003	-1.96354E-004	2.21605E-002	1.98757E-002	-9.93415E-004	-1.39711E-003	2.58562E-002	-1.60546E-003
	124	124	1.10007E+000	3.66162E-002	0.00000E+000	4.02804E-002	3.65102E-001	4.10442E-002	4.76420E+001	11	...........	6.85387E-002	-5.25819E-003	6.04814E-001	5.42406E-001	-2.71289E-002	-3.81087E-002	7.05700E-001	-4.38362E-002	2.50963E-003	-1.92535E-004	2.21460E-002	1.98609E-002	-9.93356E-004	-1.39540E-003	2.58400E-002	-1.60512E-003
	125	125	1.10008E+000	3.61452E-002	0.00000E+000	3.97627E-002	3.60421E-001	4.04892E-002	4.52955E+001	11	...........	6.75990E-002	-5.28708E-003	6.04846E-001	5.42362E-001	-2.71525E-002	-3.80586E-002	7.05557E-001	-4.38185E-002	2.44338E-003	-1.91103E-004	2.18623E-002	1.96038E-002	-9.81432E-004	-1.37563E-003	2.55025E-002	-1.58383E-003
	126	126	1.10000E+000	3.64032E-002	0.00000E+000	4.00435E-002	3.62982E-001	4.11199E-002	4.83355E+001	11	...........	6.86575E-002	-5.30306E-003	6.04903E-001	5.42406E-001	-2.71440E-002	-3.80417E-002	7.05617E-001	-4.37900E-002	2.49935E-003	-1.93048E-004	2.20204E-002	1.97453E-002	-9.88129E-004	-1.38484E-003	2.56867E-002	-1.59410E-003
	127	127	1.10007E+000	3.63771E-002	0.00000E+000	4.00173E-002	3.62723E-001	4.09886E-002	4.85080E+001	11	...........	6.84737E-002	-5.33611E-003	6.05019E-001	5.42438E-001	-2.71489E-002	-3.80121E-002	7.05626E-001	-4.38735E-002	2.49087E-003	-1.94112E-004	2.20088E-002	1.97323E-002	-9.87597E-004	-1.38277E-003	2.56686E-002	-1.59599E-003
	128	128	1.10009E+000	3.59787E-002	0.00000E+000	3.95797E-002	3.58761E-001	4.08815E-002	4.87470E+001	11	...........	6.82825E-002	-5.34583E-003	6.05065E-001	5.42469E-001	-2.71497E-002	-3.80119E-002	7.05745E-001	-4.38935E-002	2.45672E-003	-1.92336E-004	2.17695E-002	1.95173E-002	-9.76812E-004	-1.36762E-003	2.53918E-002	-1.57923E-003
	129	129	1.10000E+000	3.61532E-002	0.00000E+000	3.97685E-002	3.60496E-001	4.09135E-002	4.88035E+001	11	...........	6.83181E-002	-5.32042E-003	6.05034E-001	5.42300E-001	-2.71457E-002	-3.80154E-002	7.05660E-001	-4.38711E-002	2.46992E-003	-1.92350E-004	2.18739E-002	1.96059E-002	-9.81404E-004	-1.37438E-003	2.55119E-002	-1.58608E-003
	130	130	1.10006E+000	3.61433E-002	0.00000E+000	3.97600E-002	3.60398E-001	4.08752E-002	4.88279E+001	11	...........	6.82615E-002	-5.30847E-003	6.05047E-001	5.42305E-001	-2.71337E-002	-3.80115E-002	7.05582E-001	-4.38757E-002	2.46720E-003	-1.91866E-004	2.18684E-002	1.96007E-002	-9.80704E-004	-1.37386E-003	2.55021E-002	-1.58581E-003
	131	131	1.10009E+000	3.57133E-002	0.00000E+000	3.92878E-002	3.56121E-001	4.08957E-002	4.87620E+001	11	...........	6.82972E-002	-5.40069E-003	6.05095E-001	5.42426E-001	-2.71393E-002	-3.80181E-002	7.05602E-001	-4.39504E-002	2.43912E-003	-1.92876E-004	2.16099E-002	1.93718E-002	-9.69233E-004	-1.35775E-003	2.51994E-002	-1.56961E-003
	132	132	1.10000E+000	3.58026E-002	0.00000E+000	3.93829E-002	3.57011E-001	4.06107E-002	4.51223E+001	11	...........	6.78351E-002	-5.30083E-003	6.04981E-001	5.42580E-001	-2.71594E-002	-3.80233E-002	7.05631E-001	-4.38597E-002	2.42868E-003	-1.89784E-004	2.16599E-002	1.94258E-002	-9.72379E-004	-1.36133E-003	2.52634E-002	-1.57029E-003
	133	133	1.10006E+000	3.59009E-002	0.00000E+000	3.94932E-002	3.57988E-001	4.09252E-002	4.83579E+001	11	...........	6.83461E-002	-5.24472E-003	6.05034E-001	5.42620E-001	-2.71554E-002	-3.80351E-002	7.05763E-001	-4.39597E-002	2.45369E-003	-1.88290E-004	2.17213E-002	1.94806E-002	-9.74905E-004	-1.36550E-003	2.53376E-002	-1.57819E-003
	134	134	1.10009E+000	3.55065E-002	0.00000E+000	3.90605E-002	3.54068E-001	4.07796E-002	4.91064E+001	11	...........	6.80994E-002	-5.36347E-003	6.05161E-001	5.42750E-001	-2.71317E-002	-3.80576E-002	7.05688E-001	-4.38911E-002	2.41797E-003	-1.90438E-004	2.14872E-002	1.92712E-002	-9.63351E-004	-1.35129E-003	2.50565E-002	-1.55842E-003
	135	135	1.10000E+000	3.55806E-002	0.00000E+000	3.91386E-002	3.54805E-001	4.07967E-002	4.72376E+001	11	...........	6.81181E-002	-5.39833E-003	6.05211E-001	5.42623E-001	-2.71307E-002	-3.80617E-002	7.05685E-001	-4.39228E-002	2.42368E-003	-1.92076E-004	2.15338E-002	1.93069E-002	-9.65327E-004	-1.35426E-003	2.51087E-002	-1.56280E-003
	136	136	1.10006E+000	3.55860E-002	0.00000E+000	3.91467E-002	3.54857E-001	4.05590E-002	4.82755E+001	11	...........	6.77296E-002	-5.23917E-003	6.05214E-001	5.42684E-001	-2.71582E-002	-3.80575E-002	7.05597E-001	-4.38957E-002	2.41022E-003	-1.86441E-004	2.15371E-002	1.93120E-002	-9.66451E-004	-1.35431E-003	2.51094E-002	-1.56207E-003
	137	137	1.10010E+000	3.52143E-002	0.00000E+000	3.87392E-002	3.51162E-001	4.08693E-002	4.88881E+001	11	...........	6.82536E-002	-5.42500E-003	6.05267E-001	5.42767E-001	-2.71428E-002	-3.80640E-002	7.05675E-001	-4.40621E-002	2.40350E-003	-1.91038E-004	2.13141E-002	1.91132E-002	-9.55814E-004	-1.34040E-003	2.48499E-002	-1.55162E-003
	138	138	1.10000E+000	3.53455E-002	0.00000E+000	3.88800E-002	3.52467E-001	4.06913E-002	4.89092E+001	11	...........	6.79474E-002	-5.36042E-003	6.05292E-001	5.43024E-001	-2.71603E-002	-3.80426E-002	7.05765E-001	-4.41167E-002	2.40164E-003	-1.89467E-004	2.13944E-002	1.91935E-002	-9.59995E-004	-1.34464E-003	2.49456E-002	-1.55933E-003
	139	139	1.10006E+000	3.53866E-002	0.00000E+000	3.89273E-002	3.52872E-001	4.08083E-002	4.77174E+001	11	...........	6.81289E-002	-5.27875E-003	6.05078E-001	5.43017E-001	-2.71951E-002	-3.80492E-002	7.05791E-001	-4.41428E-002	2.41085E-003	-1.86797E-004	2.14116E-002	1.92155E-002	-9.62343E-004	-1.34643E-003	2.49755E-002	-1.56206E-003
	140	140	1.10010E+000	3.49335E-002	0.00000E+000	3.84303E-002	3.48367E-001	4.03613E-002	4.69082E+001	11	...........	6.74126E-002	-5.17667E-003	6.05065E-001	5.43037E-001	-2.71824E-002	-3.80394E-002	7.05659E-001	-4.41450E-002	2.35496E-003	-1.80839E-004	2.11370E-002	1.89702E-002	-9.49574E-004	-1.32885E-003	2.46511E-002	-1.54214E-003
	141	141	1.10000E+000	3.50856E-002	0.00000E+000	3.85940E-002	3.49879E-001	4.08392E-002	4.82802E+001	11	...........	6.81926E-002	-5.25542E-003	6.05230E-001	5.42875E-001	-2.71690E-002	-3.80603E-002	7.05735E-001	-4.39242E-002	2.39258E-003	-1.84389E-004	2.12348E-002	1.90471E-002	-9.53242E-004	-1.33537E-003	2.47611E-002	-1.54111E-003
	142	142	1.10005E+000	3.50667E-002	0.00000E+000	3.85753E-002	3.49691E-001	4.04745E-002	4.72779E+001	11	...........	6.75921E-002	-5.26111E-003	6.05286E-001	5.42880E-001	-2.71547E-002	-3.80397E-002	7.05769E-001	-4.39069E-002	2.37023E-003	-1.84490E-004	2.12254E-002	1.90370E-002	-9.52227E-004	-1.33393E-003	2.47490E-002	-1.53967E-003
	143	143	1.10010E+000	3.47566E-002	0.00000E+000	3.82358E-002	3.46603E-001	4.08418E-002	4.89329E+001	11	...........	6.82086E-002	-5.28722E-003	6.05294E-001	5.43013E-001	-2.71333E-002	-3.80317E-002	7.05835E-001	-4.39375E-002	2.37070E-003	-1.83766E-004	2.10379E-002	1.88733E-002	-9.43062E-004	-1.32185E-003	2.45324E-002	-1.52712E-003
	144	144	1.09999E+000	3.48209E-002	0.00000E+000	3.83027E-002	3.47245E-001	4.06256E-002	4.90036E+001	11	...........	6.78567E-002	-5.31250E-003	6.05387E-001	5.43092E-001	-2.71511E-002	-3.80314E-002	7.05643E-001	-4.39417E-002	2.36283E-003	-1.84986E-004	2.10801E-002	1.89109E-002	-9.45425E-004	-1.32429E-003	2.45711E-002	-1.53009E-003
	145	145	1.10005E+000	3.48531E-002	0.00000E+000	3.83402E-002	3.47567E-001	4.05678E-002	4.89000E+001	11	...........	6.77569E-002	-5.22181E-003	6.05531E-001	5.43060E-001	-2.71553E-002	-3.80476E-002	7.05631E-001	-4.39382E-002	2.36154E-003	-1.81996E-004	2.11046E-002	1.89273E-002	-9.46445E-004	-1.32608E-003	2.45934E-002	-1.53138E-003
	146	146	1.10011E+000	3.44864E-002	0.00000E+000	3.79387E-002	3.43921E-001	4.06736E-002	4.89025E+001	11	...........	6.79315E-002	-5.29097E-003	6.05533E-001	5.42945E-001	-2.71585E-002	-3.80511E-002	7.05690E-001	-4.40224E-002	2.34271E-003	-1.82467E-004	2.08827E-002	1.87242E-002	-9.36598E-004	-1.31225E-003	2.43367E-002	-1.51817E-003
	147	147	1.10000E+000	3.44792E-002	0.00000E+000	3.79269E-002	3.43851E-001	4.03276E-002	4.56631E+001	11	...........	6.73594E-002	-5.45514E-003	6.05621E-001	5.42910E-001	-2.71814E-002	-3.80642E-002	7.05704E-001	-4.38631E-002	2.32250E-003	-1.88089E-004	2.08813E-002	1.87191E-002	-9.37192E-004	-1.31242E-003	2.43321E-002	-1.51236E-003
	148	148	1.10005E+000	3.46608E-002	0.00000E+000	3.81286E-002	3.45657E-001	4.06506E-002	4.84719E+001	11	...........	6.78989E-002	-5.44750E-003	6.05601E-001	5.42987E-001	-2.71824E-002	-3.80442E-002	7.05774E-001	-4.39231E-002	2.35343E-003	-1.88815E-004	2.09906E-002	1.88204E-002	-9.42162E-004	-1.31864E-003	2.44627E-002	-1.52241E-003
	149	149	1.10011E+000	3.42517E-002	0.00000E+000	3.76806E-002	3.41592E-001	4.04884E-002	4.85290E+001	11	...........	6.76190E-002	-5.49903E-003	6.05727E-001	5.43022E-001	-2.71669E-002	-3.80239E-002	7.05823E-001	-4.37343E-002	2.31607E-003	-1.88351E-004	2.07472E-002	1.85995E-002	-9.30515E-004	-1.30238E-003	2.41757E-002	-1.49798E-003
	150	150	1.09999E+000	3.42650E-002	0.00000E+000	3.76913E-002	3.41723E-001	4.03653E-002	4.75814E+001	11	...........	6.74107E-002	-5.43375E-003	6.05737E-001	5.42889E-001	-2.71672E-002	-3.80343E-002	7.05806E-001	-4.38133E-002	2.30983E-003	-1.86187E-004	2.07556E-002	1.86021E-002	-9.30885E-004	-1.30325E-003	2.41844E-002	-1.50126E-003
	151	151	1.10005E+000	3.43847E-002	0.00000E+000	3.78249E-002	3.42911E-001	4.06690E-002	4.86563E+001	11	...........	6.79207E-002	-5.39042E-003	6.05728E-001	5.42949E-001	-2.71456E-002	-3.80878E-002	7.05763E-001	-4.39217E-002	2.33544E-003	-1.85348E-004	2.08278E-002	1.86691E-002	-9.33393E-004	-1.30964E-003	2.42675E-002	-1.51023E-003
	152	152	1.10011E+000	3.40123E-002	0.00000E+000	3.74172E-002	3.39205E-001	4.03410E-002	4.89389E+001	11	...........	6.73764E-002	-5.34833E-003	6.05738E-001	5.42976E-001	-2.71353E-002	-3.80782E-002	7.05865E-001	-4.38774E-002	2.29162E-003	-1.81909E-004	2.06025E-002	1.84679E-002	-9.22933E-004	-1.29513E-003	2.40081E-002	-1.49237E-003
	153	153	1.09999E+000	3.40848E-002	0.00000E+000	3.74930E-002	3.39927E-001	4.04648E-002	4.90175E+001	11	...........	6.75950E-002	-5.30333E-003	6.05805E-001	5.42889E-001	-2.71744E-002	-3.80983E-002	7.05789E-001	-4.39243E-002	2.30396E-003	-1.80763E-004	2.06487E-002	1.85042E-002	-9.26234E-004	-1.29857E-003	2.40567E-002	-1.49715E-003
	154	154	1.10005E+000	3.41267E-002	0.00000E+000	3.75410E-002	3.40345E-001	4.04893E-002	4.92259E+001	11	...........	6.76428E-002	-5.32528E-003	6.05691E-001	5.43047E-001	-2.71793E-002	-3.81000E-002	7.05715E-001	-4.38419E-002	2.30842E-003	-1.81734E-004	2.06703E-002	1.85324E-002	-9.27540E-004	-1.30023E-003	2.40837E-002	-1.49618E-003
	155	155	1.10011E+000	3.37741E-002	0.00000E+000	3.71553E-002	3.36840E-001	4.04727E-002	4.84680E+001	11	...........	6.75907E-002	-5.28639E-003	6.05802E-001	5.42973E-001	-2.71769E-002	-3.80985E-002	7.05737E-001	-4.38839E-002	2.28282E-003	-1.78543E-004	2.04604E-002	1.83385E-002	-9.17878E-004	-1.28674E-003	2.38357E-002	-1.48214E-003
	156	156	1.10000E+000	3.37790E-002	0.00000E+000	3.71567E-002	3.36890E-001	4.01556E-002	4.65542E+001	11	...........	6.70700E-002	-5.34375E-003	6.05720E-001	5.42910E-001	-2.71632E-002	-3.80667E-002	7.05869E-001	-4.38910E-002	2.26555E-003	-1.80506E-004	2.04606E-002	1.83389E-002	-9.17544E-004	-1.28585E-003	2.38435E-002	-1.48259E-003
	157	157	1.10005E+000	3.38995E-002	0.00000E+000	3.72911E-002	3.38088E-001	4.04711E-002	4.66219E+001	11	...........	6.75940E-002	-5.39306E-003	6.05643E-001	5.42895E-001	-2.71581E-002	-3.80840E-002	7.05996E-001	-4.39208E-002	2.29140E-003	-1.82822E-004	2.05310E-002	1.84039E-002	-9.20645E-004	-1.29103E-003	2.39329E-002	-1.48890E-003
	158	158	1.10011E+000	3.35704E-002	0.00000E+000	3.69311E-002	3.34814E-001	4.02532E-002	4.87348E+001	11	...........	6.72329E-002	-5.33708E-003	6.05497E-001	5.42973E-001	-2.71401E-002	-3.80897E-002	7.05955E-001	-4.39776E-002	2.25703E-003	-1.79168E-004	2.03268E-002	1.82278E-002	-9.11105E-004	-1.27869E-003	2.36992E-002	-1.47635E-003
	159	159	1.10000E+000	3.35859E-002	0.00000E+000	3.69444E-002	3.34969E-001	4.04597E-002	4.91351E+001	11	...........	6.75954E-002	-5.35361E-003	6.05635E-001	5.42931E-001	-2.71778E-002	-3.81060E-002	7.05852E-001	-4.39574E-002	2.27026E-003	-1.79806E-004	2.03408E-002	1.82349E-002	-9.12791E-004	-1.27982E-003	2.37067E-002	-1.47635E-003
	160	160	1.10004E+000	3.36541E-002	0.00000E+000	3.70210E-002	3.35647E-001	4.03474E-002	4.91187E+001	11	...........	6.73917E-002	-5.28139E-003	6.05698E-001	5.42836E-001	-2.71618E-002	-3.81103E-002	7.05905E-001	-4.38778E-002	2.26801E-003	-1.77741E-004	2.03842E-002	1.82687E-002	-9.14107E-004	-1.28257E-003	2.37566E-002	-1.47667E-003
	161	161	1.10011E+000	3.33355E-002	0.00000E+000	3.66729E-002	3.32479E-001	4.02929E-002	4.91824E+001	11	...........	6.73050E-002	-5.43472E-003	6.05589E-001	5.42799E-001	-2.71686E-002	-3.81472E-002	7.05936E-001	-4.39301E-002	2.24365E-003	-1.81169E-004	2.01876E-002	1.80945E-002	-9.05680E-004	-1.27166E-003	2.35328E-002	-1.46444E-003
	162	162	1.09999E+000	3.33113E-002	0.00000E+000	3.66423E-002	3.32240E-001	4.03041E-002	4.84993E+001	11	...........	6.73239E-002	-5.38333E-003	6.05636E-001	5.42820E-001	-2.71718E-002	-3.81656E-002	7.05872E-001	-4.38794E-002	2.24265E-003	-1.79326E-004	2.01745E-002	1.80820E-002	-9.05128E-004	-1.27134E-003	2.35135E-002	-1.46168E-003
	163	163	1.10004E+000	3.33898E-002	0.00000E+000	3.67302E-002	3.33021E-001	4.02511E-002	4.85619E+001	11	...........	6.72421E-002	-5.32125E-003	6.05689E-001	5.42775E-001	-2.71910E-002	-3.81574E-002	7.05738E-001	-4.37603E-002	2.24520E-003	-1.77675E-004	2.02238E-002	1.81231E-002	-9.07900E-004	-1.27407E-003	2.35644E-002	-1.46115E-003
	164	164	1.10011E+000	3.30833E-002	0.00000E+000	3.63954E-002	3.29971E-001	4.02557E-002	4.88465E+001	11	...........	6.72419E-002	-5.40556E-003	6.05651E-001	5.42838E-001	-2.71631E-002	-3.81842E-002	7.05721E-001	-4.36993E-002	2.22459E-003	-1.78834E-004	2.00370E-002	1.79589E-002	-8.98644E-004	-1.26326E-003	2.33476E-002	-1.44572E-003
	165	165	1.10000E+000	3.30938E-002	0.00000E+000	3.64031E-002	3.30081E-001	4.02548E-002	4.88714E+001	11	...........	6.72154E-002	-5.39931E-003	6.05662E-001	5.42892E-001	-2.71483E-002	-3.81504E-002	7.05785E-001	-4.37443E-002	2.22442E-003	-1.78684E-004	2.00437E-002	1.79664E-002	-8.98442E-004	-1.26254E-003	2.33571E-002	-1.44767E-003
	166	166	1.10004E+000	3.31685E-002	0.00000E+000	3.64868E-002	3.30820E-001	4.02726E-002	4.90053E+001	11	...........	6.72650E-002	-5.28431E-003	6.05694E-001	5.42836E-001	-2.71347E-002	-3.81637E-002	7.05696E-001	-4.38142E-002	2.23108E-003	-1.75273E-004	2.00900E-002	1.80051E-002	-9.00018E-004	-1.26583E-003	2.34069E-002	-1.45325E-003
	167	167	1.10011E+000	3.28613E-002	0.00000E+000	3.61512E-002	3.27765E-001	4.03015E-002	4.69976E+001	11	...........	6.73179E-002	-5.42736E-003	6.05589E-001	5.42901E-001	-2.71347E-002	-3.81819E-002	7.05673E-001	-4.38367E-002	2.21216E-003	-1.78350E-004	1.99004E-002	1.78404E-002	-8.91683E-004	-1.25471E-003	2.31894E-002	-1.44053E-003
	168	168	1.10000E+000	3.27671E-002	0.00000E+000	3.60438E-002	3.26828E-001	3.97439E-002	4.60927E+001	11	...........	6.63576E-002	-5.41736E-003	6.05425E-001	5.42898E-001	-2.71611E-002	-3.81789E-002	7.05580E-001	-4.38903E-002	2.17435E-003	-1.77511E-004	1.98380E-002	1.77892E-002	-8.89992E-004	-1.25101E-003	2.31198E-002	-1.43816E-003
	169	169	1.10004E+000	3.29644E-002	0.00000E+000	3.62621E-002	3.28789E-001	4.04552E-002	4.86068E+001	11	...........	6.75525E-002	-5.37361E-003	6.05569E-001	5.42997E-001	-2.71533E-002	-3.81772E-002	7.05590E-001	-4.38689E-002	2.22683E-003	-1.77138E-004	1.99622E-002	1.78996E-002	-8.95093E-004	-1.25849E-003	2.32593E-002	-1.44611E-003
	170	170	1.10011E+000	3.26198E-002	0.00000E+000	3.58855E-002	3.25363E-001	4.00580E-002	4.66672E+001	11	...........	6.69057E-002	-5.33250E-003	6.05604E-001	5.43080E-001	-2.71839E-002	-3.81661E-002	7.05642E-001	-4.38314E-002	2.18245E-003	-1.73945E-004	1.97547E-002	1.77152E-002	-8.86733E-004	-1.24497E-003	2.30179E-002	-1.42977E-003
	171	171	1.10000E+000	3.26344E-002	0.00000E+000	3.58979E-002	3.25508E-001	4.02262E-002	4.84399E+001	11	...........	6.71978E-002	-5.29097E-003	6.05452E-001	5.43110E-001	-2.71857E-002	-3.81399E-002	7.05563E-001	-4.36685E-002	2.19296E-003	-1.72668E-004	1.97586E-002	1.77241E-002	-8.87190E-004	-1.24467E-003	2.30256E-002	-1.42510E-003
	172	172	1.10004E+000	3.27072E-002	0.00000E+000	3.59792E-002	3.26235E-001	4.01045E-002	4.86306E+001	11	...........	6.69840E-002	-5.26639E-003	6.05487E-001	5.42852E-001	-2.71761E-002	-3.81165E-002	7.05617E-001	-4.37356E-002	2.19086E-003	-1.72249E-004	1.98038E-002	1.77552E-002	-8.88855E-004	-1.24669E-003	2.30788E-002	-1.43047E-003
	173	173	1.10011E+000	3.24202E-002	0.00000E+000	3.56659E-002	3.23379E-001	4.00086E-002	4.79605E+001	11	...........	6.69782E-002	-5.24597E-003	6.05347E-001	5.42623E-001	-2.71736E-002	-3.81100E-002	7.05552E-001	-4.37211E-002	2.17144E-003	-1.70075E-004	1.96255E-002	1.75919E-002	-8.80973E-004	-1.23553E-003	2.28741E-002	-1.41745E-003
	174	174	1.10000E+000	3.23664E-002	0.00000E+000	3.56031E-002	3.22845E-001	4.00911E-002	4.88163E+001	11	...........	6.69622E-002	-5.28917E-003	6.05367E-001	5.42545E-001	-2.71976E-002	-3.81207E-002	7.05629E-001	-4.37268E-002	2.16733E-003	-1.71191E-004	1.95935E-002	1.75602E-002	-8.80290E-004	-1.23383E-003	2.28387E-002	-1.41528E-003
	175	175	1.10004E+000	3.24502E-002	0.00000E+000	3.56965E-002	3.23676E-001	4.01828E-002	4.91607E+001	11	...........	6.70971E-002	-5.33944E-003	6.05580E-001	5.42550E-001	-2.71850E-002	-3.81368E-002	7.05709E-001	-4.37717E-002	2.17732E-003	-1.73266E-004	1.96512E-002	1.76059E-002	-8.82160E-004	-1.23755E-003	2.29004E-002	-1.42040E-003
	176	176	1.10011E+000	3.21758E-002	0.00000E+000	3.53970E-002	3.20949E-001	4.01165E-002	4.75247E+001	11	...........	6.70090E-002	-5.33278E-003	6.05766E-001	5.42427E-001	-2.71543E-002	-3.81682E-002	7.05592E-001	-4.37482E-002	2.15607E-003	-1.71586E-004	1.94910E-002	1.74530E-002	-8.73711E-004	-1.22809E-003	2.27030E-002	-1.40763E-003
	177	177	1.10000E+000	3.21161E-002	0.00000E+000	3.53277E-002	3.20356E-001	3.97069E-002	4.69621E+001	11	...........	6.63144E-002	-5.28833E-003	6.05703E-001	5.42452E-001	-2.71693E-002	-3.81514E-002	7.05525E-001	-4.37483E-002	2.12976E-003	-1.69841E-004	1.94528E-002	1.74214E-002	-8.72572E-004	-1.22527E-003	2.26587E-002	-1.40503E-003
	178	178	1.10004E+000	3.22320E-002	0.00000E+000	3.54565E-002	3.21507E-001	4.02838E-002	4.65884E+001	11	...........	6.72586E-002	-5.35028E-003	6.05773E-001	5.42441E-001	-2.71972E-002	-3.81592E-002	7.05489E-001	-4.38489E-002	2.16788E-003	-1.72450E-004	1.95253E-002	1.74840E-002	-8.76621E-004	-1.22995E-003	2.27393E-002	-1.41334E-003
	179	179	1.10011E+000	3.20088E-002	0.00000E+000	3.52132E-002	3.19291E-001	3.99512E-002	4.86219E+001	11	...........	6.67208E-002	-5.42514E-003	6.05692E-001	5.42497E-001	-2.71768E-002	-3.81685E-002	7.05620E-001	-4.39244E-002	2.13565E-003	-1.73652E-004	1.93875E-002	1.73647E-002	-8.69897E-004	-1.22173E-003	2.25861E-002	-1.40597E-003
	180	180	1.10000E+000	3.18962E-002	0.00000E+000	3.50858E-002	3.18171E-001	4.01008E-002	4.88343E+001	11	...........	6.69771E-002	-5.47625E-003	6.05697E-001	5.42494E-001	-2.71481E-002	-3.81651E-002	7.05692E-001	-4.38825E-002	2.13631E-003	-1.74671E-004	1.93194E-002	1.73035E-002	-8.65919E-004	-1.21732E-003	2.25088E-002	-1.39968E-003
	181	181	1.10004E+000	3.20224E-002	0.00000E+000	3.52258E-002	3.19424E-001	3.99808E-002	4.87209E+001	11	...........	6.67810E-002	-5.39153E-003	6.05660E-001	5.42621E-001	-2.71687E-002	-3.81746E-002	7.05547E-001	-4.38999E-002	2.13849E-003	-1.72650E-004	1.93947E-002	1.73761E-002	-8.70009E-004	-1.22244E-003	2.25933E-002	-1.40578E-003
	182	182	1.10011E+000	3.17594E-002	0.00000E+000	3.49390E-002	3.16811E-001	3.99602E-002	4.88845E+001	11	...........	6.67401E-002	-5.37931E-003	6.05617E-001	5.42627E-001	-2.71685E-002	-3.81733E-002	7.05625E-001	-4.39033E-002	2.11963E-003	-1.70844E-004	1.92341E-002	1.72335E-002	-8.62855E-004	-1.21236E-003	2.24102E-002	-1.39434E-003
	183	183	1.10000E+000	3.17065E-002	0.00000E+000	3.48773E-002	3.16281E-001	4.00045E-002	4.89621E+001	11	...........	6.68260E-002	-5.41028E-003	6.05436E-001	5.42620E-001	-2.71629E-002	-3.81486E-002	7.05549E-001	-4.38651E-002	2.11882E-003	-1.71541E-004	1.91962E-002	1.72046E-002	-8.61241E-004	-1.20956E-003	2.23705E-002	-1.39081E-003
	184	184	1.10004E+000	3.17819E-002	0.00000E+000	3.49613E-002	3.17033E-001	3.99536E-002	4.70118E+001	11	...........	6.67256E-002	-5.45458E-003	6.05231E-001	5.42517E-001	-2.71712E-002	-3.81433E-002	7.05549E-001	-4.37778E-002	2.12067E-003	-1.73357E-004	1.92354E-002	1.72422E-002	-8.63555E-004	-1.21227E-003	2.24237E-002	-1.39134E-003
	185	185	1.10011E+000	3.15569E-002	0.00000E+000	3.47161E-002	3.14797E-001	3.98498E-002	4.88649E+001	11	...........	6.65735E-002	-5.38931E-003	6.05212E-001	5.42541E-001	-2.71918E-002	-3.81329E-002	7.05542E-001	-4.37274E-002	2.10085E-003	-1.70070E-004	1.90986E-002	1.71209E-002	-8.58088E-004	-1.20336E-003	2.22647E-002	-1.37990E-003
	186	186	1.10001E+000	3.14302E-002	0.00000E+000	3.45734E-002	3.13535E-001	4.00509E-002	4.79673E+001	11	...........	6.68868E-002	-5.34042E-003	6.05462E-001	5.42477E-001	-2.71951E-002	-3.81574E-002	7.05435E-001	-4.38275E-002	2.10227E-003	-1.67850E-004	1.90298E-002	1.70502E-002	-8.54749E-004	-1.19929E-003	2.21720E-002	-1.37751E-003
	187	187	1.10003E+000	3.15633E-002	0.00000E+000	3.47206E-002	3.14856E-001	3.97572E-002	4.63674E+001	11	...........	6.63924E-002	-5.31153E-003	6.05330E-001	5.42423E-001	-2.71733E-002	-3.81803E-002	7.05373E-001	-4.38706E-002	2.09556E-003	-1.67649E-004	1.91062E-002	1.71207E-002	-8.57679E-004	-1.20509E-003	2.22639E-002	-1.38470E-003
	188	188	1.10011E+000	3.13092E-002	0.00000E+000	3.44436E-002	3.12335E-001	3.96332E-002	4.74776E+001	11	...........	6.61865E-002	-5.27014E-003	6.05226E-001	5.42244E-001	-2.71657E-002	-3.81950E-002	7.05349E-001	-4.39182E-002	2.07225E-003	-1.65004E-004	1.89491E-002	1.69772E-002	-8.50536E-004	-1.19585E-003	2.20839E-002	-1.37504E-003
	189	189	1.10001E+000	3.12624E-002	0.00000E+000	3.43889E-002	3.11869E-001	4.01327E-002	4.89587E+001	11	...........	6.70221E-002	-5.31528E-003	6.05190E-001	5.42131E-001	-2.71472E-002	-3.81951E-002	7.05416E-001	-4.38785E-002	2.09527E-003	-1.66168E-004	1.89197E-002	1.69483E-002	-8.48686E-004	-1.19407E-003	2.20530E-002	-1.37175E-003
	190	190	1.10003E+000	3.13666E-002	0.00000E+000	3.45043E-002	3.12905E-001	3.98927E-002	4.90112E+001	11	...........	6.66471E-002	-5.34556E-003	6.05169E-001	5.42192E-001	-2.71803E-002	-3.82031E-002	7.05411E-001	-4.38943E-002	2.09049E-003	-1.67672E-004	1.89821E-002	1.70067E-002	-8.52552E-004	-1.19830E-003	2.21263E-002	-1.37681E-003
	191	191	1.10011E+000	3.11403E-002	0.00000E+000	3.42577E-002	3.10654E-001	3.98175E-002	4.88670E+001	11	...........	6.64883E-002	-5.35764E-003	6.05027E-001	5.42206E-001	-2.71850E-002	-3.81976E-002	7.05500E-001	-4.38453E-002	2.07046E-003	-1.66838E-004	1.88407E-002	1.68844E-002	-8.46548E-004	-1.18948E-003	2.19695E-002	-1.36535E-003
	192	192	1.10001E+000	3.10297E-002	0.00000E+000	3.41330E-002	3.09550E-001	3.98335E-002	4.89617E+001	11	...........	6.65233E-002	-5.35472E-003	6.04963E-001	5.42149E-001	-2.71729E-002	-3.81917E-002	7.05546E-001	-4.37524E-002	2.06420E-003	-1.66155E-004	1.87718E-002	1.68227E-002	-8.43166E-004	-1.18507E-003	2.18929E-002	-1.35762E-003
	193	193	1.10003E+000	3.11630E-002	0.00000E+000	3.42803E-002	3.10877E-001	3.98208E-002	4.74750E+001	11	...........	6.64906E-002	-5.31764E-003	6.04923E-001	5.42252E-001	-2.71890E-002	-3.82358E-002	7.05575E-001	-4.37326E-002	2.07205E-003	-1.65714E-004	1.88512E-002	1.68982E-002	-8.47292E-004	-1.19154E-003	2.19878E-002	-1.36284E-003
	194	194	1.10011E+000	3.09354E-002	0.00000E+000	3.40322E-002	3.08614E-001	3.96322E-002	4.82018E+001	11	...........	6.61906E-002	-5.39000E-003	6.04933E-001	5.42394E-001	-2.71882E-002	-3.82549E-002	7.05652E-001	-4.37390E-002	2.04763E-003	-1.66742E-004	1.87138E-002	1.67792E-002	-8.41077E-004	-1.18343E-003	2.18296E-002	-1.35308E-003
	195	195	1.10001E+000	3.07746E-002	0.00000E+000	3.38525E-002	3.07016E-001	3.98644E-002	4.75184E+001	11	...........	6.65990E-002	-5.38486E-003	6.05102E-001	5.42433E-001	-2.71926E-002	-3.82774E-002	7.05722E-001	-4.38954E-002	2.04956E-003	-1.65717E-004	1.86218E-002	1.66931E-002	-8.36841E-004	-1.17797E-003	2.17183E-002	-1.35086E-003
	196	196	1.10003E+000	3.09430E-002	0.00000E+000	3.40382E-002	3.08694E-001	3.97427E-002	4.86393E+001	11	...........	6.63590E-002	-5.36681E-003	6.05139E-001	5.42299E-001	-2.71849E-002	-3.82614E-002	7.05640E-001	-4.39192E-002	2.05335E-003	-1.66065E-004	1.87248E-002	1.67804E-002	-8.41181E-004	-1.18392E-003	2.18346E-002	-1.35899E-003
	197	197	1.10011E+000	3.07533E-002	0.00000E+000	3.38319E-002	3.06804E-001	3.97868E-002	4.88940E+001	11	...........	6.64379E-002	-5.37694E-003	6.05244E-001	5.42229E-001	-2.71643E-002	-3.82456E-002	7.05594E-001	-4.38024E-002	2.04319E-003	-1.65359E-004	1.86133E-002	1.66753E-002	-8.35392E-004	-1.17618E-003	2.16994E-002	-1.34707E-003
	198	198	1.10001E+000	3.05915E-002	0.00000E+000	3.36511E-002	3.05197E-001	3.97887E-002	4.89936E+001	11	...........	6.64404E-002	-5.33500E-003	6.05217E-001	5.42026E-001	-2.71353E-002	-3.82399E-002	7.05462E-001	-4.38489E-002	2.03251E-003	-1.63206E-004	1.85145E-002	1.65814E-002	-8.30109E-004	-1.16981E-003	2.15811E-002	-1.34140E-003
	199	199	1.10003E+000	3.06979E-002	0.00000E+000	3.37686E-002	3.06253E-001	3.97367E-002	4.75354E+001	11	...........	6.63463E-002	-5.26097E-003	6.05250E-001	5.42021E-001	-2.71731E-002	-3.82446E-002	7.05446E-001	-4.38961E-002	2.03669E-003	-1.61501E-004	1.85799E-002	1.66389E-002	-8.34156E-004	-1.17403E-003	2.16557E-002	-1.34752E-003
	200	200	1.10011E+000	3.05589E-002	0.00000E+000	3.36180E-002	3.04876E-001	3.97608E-002	4.87904E+001	11	...........	6.64018E-002	-5.26181E-003	6.05234E-001	5.42092E-001	-2.71826E-002	-3.82289E-002	7.05576E-001	-4.39225E-002	2.02917E-003	-1.60795E-004	1.84953E-002	1.65657E-002	-8.30672E-004	-1.16823E-003	2.15616E-002	-1.34222E-003
	201	201	1.10002E+000	3.03630E-002	0.00000E+000	3.33998E-002	3.02923E-001	3.97031E-002	4.89515E+001	11	...........	6.63014E-002	-5.27625E-003	6.05224E-001	5.42087E-001	-2.71999E-002	-3.82339E-002	7.05467E-001	-4.38663E-002	2.01311E-003	-1.60203E-004	1.83764E-002	1.64594E-002	-8.25868E-004	-1.16089E-003	2.14201E-002	-1.33191E-003
	202	202	1.10003E+000	3.04858E-002	0.00000E+000	3.35353E-002	3.04146E-001	3.97170E-002	4.89722E+001	11	...........	6.63383E-002	-5.30042E-003	6.05334E-001	5.42133E-001	-2.71789E-002	-3.82433E-002	7.05426E-001	-4.37861E-002	2.02237E-003	-1.61587E-004	1.84541E-002	1.65273E-002	-8.28569E-004	-1.16588E-003	2.15054E-002	-1.33485E-003
	203	203	1.10010E+000	3.03052E-002	0.00000E+000	3.33388E-002	3.02351E-001	3.97472E-002	4.76090E+001	11	...........	6.63753E-002	-5.38875E-003	6.05177E-001	5.42109E-001	-2.71500E-002	-3.82403E-002	7.05455E-001	-4.37553E-002	2.01151E-003	-1.63307E-004	1.83400E-002	1.64287E-002	-8.22786E-004	-1.15888E-003	2.13789E-002	-1.32601E-003
	204	204	1.10002E+000	3.00745E-002	0.00000E+000	3.30825E-002	3.00058E-001	3.92684E-002	4.59049E+001	11	...........	6.55832E-002	-5.40111E-003	6.05171E-001	5.42042E-001	-2.71611E-002	-3.82178E-002	7.05363E-001	-4.38043E-002	1.97238E-003	-1.62436E-004	1.82002E-002	1.63016E-002	-8.16857E-004	-1.14938E-003	2.12134E-002	-1.31739E-003
	205	205	1.10003E+000	3.02825E-002	0.00000E+000	3.33117E-002	3.02126E-001	3.97279E-002	4.71419E+001	11	...........	6.63610E-002	-5.34528E-003	6.05119E-001	5.41995E-001	-2.71760E-002	-3.82337E-002	7.05310E-001	-4.38212E-002	2.00958E-003	-1.61869E-004	1.83246E-002	1.64130E-002	-8.22957E-004	-1.15782E-003	2.13586E-002	-1.32702E-003
	206	206	1.10010E+000	3.01219E-002	0.00000E+000	3.31371E-002	3.00527E-001	3.96486E-002	4.86478E+001	11	...........	6.62249E-002	-5.34347E-003	6.04975E-001	5.41838E-001	-2.71824E-002	-3.82233E-002	7.05393E-001	-4.39292E-002	1.99482E-003	-1.60956E-004	1.82230E-002	1.63212E-002	-8.18784E-004	-1.15136E-003	2.12478E-002	-1.32323E-003
	207	207	1.10002E+000	2.99160E-002	0.00000E+000	3.29083E-002	2.98482E-001	3.96932E-002	4.77042E+001	11	...........	6.62907E-002	-5.33833E-003	6.05064E-001	5.41700E-001	-2.71711E-002	-3.82160E-002	7.05456E-001	-4.38949E-002	1.98315E-003	-1.59701E-004	1.81011E-002	1.62055E-002	-8.12850E-004	-1.14327E-003	2.11044E-002	-1.31316E-003
	208	208	1.10003E+000	3.00837E-002	0.00000E+000	3.30929E-002	3.00147E-001	3.95219E-002	4.88031E+001	11	...........	6.59974E-002	-5.31972E-003	6.04997E-001	5.41586E-001	-2.71649E-002	-3.81975E-002	7.05486E-001	-4.38746E-002	1.98545E-003	-1.60037E-004	1.82006E-002	1.62929E-002	-8.17220E-004	-1.14912E-003	2.12236E-002	-1.31991E-003
	209	209	1.10010E+000	2.99183E-002	0.00000E+000	3.29132E-002	2.98507E-001	3.96643E-002	4.91160E+001	11	...........	6.62379E-002	-5.32000E-003	6.05117E-001	5.41673E-001	-2.71756E-002	-3.81868E-002	7.05510E-001	-4.39096E-002	1.98173E-003	-1.59166E-004	1.81041E-002	1.62060E-002	-8.13048E-004	-1.14249E-003	2.11077E-002	-1.31370E-003
	210	210	1.10002E+000	2.96917E-002	0.00000E+000	3.26616E-002	2.96255E-001	3.95917E-002	4.83900E+001	11	...........	6.61169E-002	-5.32375E-003	6.05234E-001	5.41633E-001	-2.72006E-002	-3.81804E-002	7.05374E-001	-4.39269E-002	1.96313E-003	-1.58071E-004	1.79704E-002	1.60820E-002	-8.07631E-004	-1.13364E-003	2.09438E-002	-1.30427E-003
	211	211	1.10003E+000	2.98233E-002	0.00000E+000	3.28065E-002	2.97564E-001	3.92258E-002	4.66056E+001	11	...........	6.55199E-002	-5.26847E-003	6.05111E-001	5.41632E-001	-2.72007E-002	-3.81689E-002	7.05247E-001	-4.39240E-002	1.95402E-003	-1.57123E-004	1.80464E-002	1.61533E-002	-8.11215E-004	-1.13832E-003	2.10328E-002	-1.30996E-003
	212	212	1.10010E+000	2.97248E-002	0.00000E+000	3.27003E-002	2.96586E-001	3.97292E-002	4.86603E+001	11	...........	6.63675E-002	-5.28472E-003	6.05129E-001	5.41602E-001	-2.72081E-002	-3.81314E-002	7.05166E-001	-4.38678E-002	1.97276E-003	-1.57087E-004	1.79873E-002	1.60990E-002	-8.08754E-004	-1.13345E-003	2.09609E-002	-1.30396E-003
	213	213	1.10003E+000	2.95060E-002	0.00000E+000	3.24574E-002	2.94409E-001	3.94838E-002	4.92390E+001	11	...........	6.59421E-002	-5.34736E-003	6.05166E-001	5.41523E-001	-2.72178E-002	-3.81410E-002	7.05335E-001	-4.39400E-002	1.94569E-003	-1.57779E-004	1.78560E-002	1.59782E-002	-8.03087E-004	-1.12539E-003	2.08116E-002	-1.29649E-003
	214	214	1.10003E+000	2.96464E-002	0.00000E+000	3.26119E-002	2.95806E-001	3.95552E-002	4.85758E+001	11	...........	6.60665E-002	-5.42403E-003	6.05320E-001	5.41488E-001	-2.72275E-002	-3.81553E-002	7.05288E-001	-4.39243E-002	1.95864E-003	-1.60803E-004	1.79456E-002	1.60532E-002	-8.07198E-004	-1.13117E-003	2.09093E-002	-1.30220E-003
	215	215	1.10010E+000	2.94996E-002	0.00000E+000	3.24524E-002	2.94345E-001	3.95855E-002	4.87435E+001	11	...........	6.61110E-002	-5.33806E-003	6.05320E-001	5.41623E-001	-2.72235E-002	-3.81571E-002	7.05305E-001	-4.39006E-002	1.95024E-003	-1.57470E-004	1.78567E-002	1.59776E-002	-8.03080E-004	-1.12562E-003	2.08062E-002	-1.29505E-003
	216	216	1.10003E+000	2.92240E-002	0.00000E+000	3.21472E-002	2.91602E-001	3.93049E-002	4.62120E+001	11	...........	6.56256E-002	-5.36000E-003	6.05237E-001	5.41558E-001	-2.72281E-002	-3.81429E-002	7.05375E-001	-4.37658E-002	1.91784E-003	-1.56641E-004	1.76874E-002	1.58265E-002	-7.95712E-004	-1.11469E-003	2.06139E-002	-1.27901E-003
	217	217	1.10003E+000	2.94613E-002	0.00000E+000	3.24082E-002	2.93964E-001	3.95277E-002	4.75754E+001	11	...........	6.59953E-002	-5.32264E-003	6.05325E-001	5.41449E-001	-2.72294E-002	-3.81521E-002	7.05418E-001	-4.37844E-002	1.94431E-003	-1.56812E-004	1.78337E-002	1.59518E-002	-8.02215E-004	-1.12401E-003	2.07825E-002	-1.28995E-003
	218	218	1.10010E+000	2.93190E-002	0.00000E+000	3.22537E-002	2.92553E-001	3.95010E-002	4.84522E+001	11	...........	6.59706E-002	-5.40792E-003	6.05400E-001	5.41484E-001	-2.72304E-002	-3.81808E-002	7.05460E-001	-4.39361E-002	1.93419E-003	-1.58555E-004	1.77497E-002	1.58758E-002	-7.98369E-004	-1.11942E-003	2.06834E-002	-1.28816E-003
	219	219	1.10003E+000	2.91005E-002	0.00000E+000	3.20114E-002	2.90379E-001	3.94292E-002	4.87543E+001	11	...........	6.58560E-002	-5.31958E-003	6.05291E-001	5.41625E-001	-2.72015E-002	-3.81708E-002	7.05545E-001	-4.40014E-002	1.91644E-003	-1.54802E-004	1.76143E-002	1.57615E-002	-7.91577E-004	-1.11079E-003	2.05317E-002	-1.28046E-003
	220	220	1.10003E+000	2.92353E-002	0.00000E+000	3.21596E-002	2.91719E-001	3.95097E-002	4.88610E+001	11	...........	6.59761E-002	-5.40194E-003	6.05328E-001	5.41647E-001	-2.71865E-002	-3.81535E-002	7.05550E-001	-4.39788E-002	1.92883E-003	-1.57928E-004	1.76970E-002	1.58352E-002	-7.94806E-004	-1.11543E-003	2.06270E-002	-1.28573E-003
	221	221	1.10009E+000	2.91141E-002	0.00000E+000	3.20283E-002	2.90513E-001	3.95789E-002	4.59784E+001	11	...........	6.61018E-002	-5.35125E-003	6.05448E-001	5.41594E-001	-2.71882E-002	-3.81508E-002	7.05556E-001	-4.41290E-002	1.92450E-003	-1.55797E-004	1.76271E-002	1.57680E-002	-7.91561E-004	-1.11073E-003	2.05417E-002	-1.28478E-003
	222	222	1.10003E+000	2.88454E-002	0.00000E+000	3.17308E-002	2.87843E-001	3.90199E-002	4.75010E+001	11	...........	6.51757E-002	-5.30764E-003	6.05470E-001	5.41525E-001	-2.71907E-002	-3.81703E-002	7.05416E-001	-4.40015E-002	1.88002E-003	-1.53101E-004	1.74650E-002	1.56205E-002	-7.84325E-004	-1.10104E-003	2.03480E-002	-1.26924E-003
	223	223	1.10002E+000	2.90430E-002	0.00000E+000	3.19480E-002	2.89808E-001	3.95914E-002	4.88601E+001	11	...........	6.61444E-002	-5.35583E-003	6.05496E-001	5.41508E-001	-2.71597E-002	-3.81631E-002	7.05510E-001	-4.39515E-002	1.92103E-003	-1.55550E-004	1.75854E-002	1.57270E-002	-7.88800E-004	-1.10837E-003	2.04902E-002	-1.27649E-003
	224	224	1.10009E+000	2.89572E-002	0.00000E+000	3.18555E-002	2.88953E-001	3.94343E-002	4.66849E+001	11	...........	6.58635E-002	-5.43403E-003	6.05390E-001	5.41509E-001	-2.71151E-002	-3.81551E-002	7.05508E-001	-4.39504E-002	1.90722E-003	-1.57354E-004	1.75304E-002	1.56806E-002	-7.85177E-004	-1.10486E-003	2.04295E-002	-1.27268E-003
	225	225	1.10004E+000	2.86665E-002	0.00000E+000	3.15342E-002	2.86065E-001	3.92248E-002	4.84063E+001	11	...........	6.55225E-002	-5.36986E-003	6.05417E-001	5.41481E-001	-2.71187E-002	-3.81811E-002	7.05467E-001	-4.39283E-002	1.87830E-003	-1.53935E-004	1.73552E-002	1.55224E-002	-7.77399E-004	-1.09452E-003	2.02233E-002	-1.25927E-003
	226	226	1.10002E+000	2.88309E-002	0.00000E+000	3.17147E-002	2.87703E-001	3.94836E-002	4.88237E+001	11	...........	6.59379E-002	-5.31639E-003	6.05539E-001	5.41457E-001	-2.71394E-002	-3.81974E-002	7.05451E-001	-4.38635E-002	1.90105E-003	-1.53276E-004	1.74583E-002	1.56107E-002	-7.82455E-004	-1.10127E-003	2.03388E-002	-1.26462E-003
	227	227	1.10009E+000	2.87391E-002	0.00000E+000	3.16156E-002	2.86788E-001	3.93259E-002	4.87246E+001	11	...........	6.56986E-002	-5.34958E-003	6.05530E-001	5.41336E-001	-2.71485E-002	-3.82189E-002	7.05299E-001	-4.39224E-002	1.88812E-003	-1.53742E-004	1.74024E-002	1.55575E-002	-7.80222E-004	-1.09838E-003	2.02697E-002	-1.26229E-003
	228	228	1.10004E+000	2.84845E-002	0.00000E+000	3.13340E-002	2.84257E-001	3.93434E-002	4.89459E+001	11	...........	6.57321E-002	-5.34833E-003	6.05555E-001	5.41272E-001	-2.71583E-002	-3.82135E-002	7.05391E-001	-4.39400E-002	1.87234E-003	-1.52344E-004	1.72489E-002	1.54178E-002	-7.73591E-004	-1.08849E-003	2.00927E-002	-1.25161E-003
	229	228.335	1.10015E+000	2.87886E-002	0.00000E+000	3.16716E-002	2.87283E-001	3.95557E-002	4.89482E+001	11	...........	6.60854E-002	-5.33333E-003	6.05592E-001	5.41309E-001	-2.71787E-002	-3.82276E-002	7.05420E-001	-4.39022E-002	1.90250E-003	-1.53539E-004	1.74341E-002	1.55835E-002	-7.82435E-004	-1.10052E-003	2.03080E-002	-1.26388E-003
STARTTIMEOFFSET	QUANT	622333.9	Start Time Offset (s)
