EXPLAIN
TAG	PWR800_CHARGE
TITLE	LABEL	PWR Charge	Test Identifier
DATE	LABEL	10/11/2022	Date
TIME	LABEL	16:42:55	Time
NOTES	NOTES	1	Notes...
	
PSTAT	PSTAT	REF3000-21114	Potentiostat
CAPACITY	QUANT	5.30000E-002	Capacity (A-hr)
CELLTYPE	SELECTOR	1	Cell Type
WORKINGCONNECTION	SELECTOR	0	Working Connection
MAXCHARGETIME	VARIABLEANDUNITS	7.20000E+003	s	2.00000E+000	hour(s)	Max Charge Time
CHARGEMODE	MULTIPARAM	0	1.00000E-001	Charge Mode	Constant Current	Amp(s)
CHARGECURRENT	QUANT	0.1	Charge Current (A)
VOLTAGEFINISH	TWOPARAM	T	2.50000E-002	7.20000E+003	Voltage Finish	I (A) <	Max Time(s)
SAMPLETIME	QUANT	1.00000E+000	Sample Period (s)
CHARGESTOPAT1	MULTIPARAM	2	1.10000E+000	Stop At 1	|Voltage| > Limit	V
CHARGESTOPAT2	MULTIPARAM	0	0.00000E+000	Stop At 2	None	N/A
AESELECTOR	AESELECTOR	0x1	T	Set Limits	AE Channels
AESBHCSELECTOR	TOGGLE	F	Save Both Half Cells
IRCOMP	TOGGLE	F	IR Measure
EOC	QUANT	0.2914129	Open Circuit (V)
SEQUENCER	TOGGLE	TRUE	Run as Sequence
PSTATMODEL	IQUANT	5	Pstat Model
PSTATSECTION	LABEL	REF3000-21114	Pstat Section
PSTATSERIALNO	LABEL	21114	Pstat Serial Number
CTRLMODE	IQUANT	0	Control Mode
ELECTROMETER	IQUANT	0	RE=0 or CS=1
IESTAB	IQUANT	0	I/E Stability
CASPEED	IQUANT	4	Control Amp Speed
CONVENTION	IQUANT	1	Current Convention
ICHRANGE	IQUANT	2	Ich Range
ICHRANGEMODE	TOGGLE	T	Ich Auto Range
ICHOFFSETENABLE	TOGGLE	F	Ich Offset Enable
ICHOFFSET	QUANT	0	Ich Offset (V)
ICHFILTER	IQUANT	1	Ich Filter
VCHRANGE	IQUANT	3	Vch Range
VCHRANGEMODE	TOGGLE	T	Vch Auto Range
VCHOFFSETENABLE	TOGGLE	F	Vch Offset Enable
VCHOFFSET	QUANT	0	Vch Offset (V)
VCHFILTER	IQUANT	1	Vch Filter
ACHRANGE	IQUANT	2	Ach Range
ACHOFFSETENABLE	TOGGLE	F	Ach Offset Enable
ACHOFFSET	QUANT	0	Ach Offset (V)
ACHFILTER	IQUANT	1	Ach Filter
IERANGELOWERLIMIT	IQUANT	9	I/E Range Lower Limit
IERANGEMODE	TOGGLE	F	I/E AutoRange
IERANGE	IQUANT	9	I/E Range
POSFEEDENABLE	TOGGLE	F	Positive Feedback IR Comp
POSFEEDRESISTANCE	QUANT	0	Positive Feedback Resistance (ohm)
ACHSELECT	IQUANT	1	Ach Select
SENSECABLEID	IQUANT	13	Sense Cable ID
PWRCABLEID	IQUANT	13	Power Cable ID
DCCALDATE	LABEL		DC Calibration Date
ACCALDATE	LABEL		AC Calibration Date
THERMOSELECT	IQUANT	1	Thermo Select
FRAMEWORKVERSION	LABEL	7.8.6	Framework Version
INSTRUMENTVERSION	LABEL	4.50	Instrument Version
COMPLIANCEVOLTAGE	IQUANT	0	Compliance Voltage
CURVE	TABLE	171
	Pt	T	Vf	Im	Vu	Pwr	Sig	Ach	Temp	IERange	Over	Vf1	Vf2	Vf3	Vf4	Vf5	Vf6	Vf7	Vf8	Pwr1	Pwr2	Pwr3	Pwr4	Pwr5	Pwr6	Pwr7	Pwr8
	#	s	V	A	V	W	V	V	deg C	#	bits	V	V	V	V	V	V	V	V	W	W	W	W	W	W	W	W
	0	1	5.30391E-001	9.98444E-002	0.00000E+000	5.29566E-002	9.94000E-001	3.63440E-002	3.56023E+001	11	...........	6.03365E-002	-3.41847E-003	5.50818E-001	7.06221E-001	-3.06325E-002	-3.95221E-002	6.13842E-001	-4.27818E-002	6.02426E-003	-3.41315E-004	5.49961E-002	7.05122E-002	-3.05848E-003	-3.94606E-003	6.12887E-002	-4.27152E-003
	1	2	6.82967E-001	9.98445E-002	0.00000E+000	6.81905E-002	9.94000E-001	3.66478E-002	3.62635E+001	11	...........	6.08593E-002	-3.42181E-003	5.50914E-001	7.06134E-001	-3.06456E-002	-3.95176E-002	6.13847E-001	-4.27126E-002	6.07646E-003	-3.41648E-004	5.50058E-002	7.05036E-002	-3.05979E-003	-3.94562E-003	6.12893E-002	-4.26462E-003
	2	2.80833	9.44829E-001	9.98450E-002	0.00000E+000	9.43365E-002	9.94000E-001	3.69919E-002	4.00980E+001	11	...........	6.14091E-002	-3.36856E-003	5.51092E-001	7.06066E-001	-3.06239E-002	-3.95436E-002	6.13888E-001	-4.28155E-002	6.13139E-003	-3.36333E-004	5.50238E-002	7.04971E-002	-3.05764E-003	-3.94823E-003	6.12936E-002	-4.27491E-003
	3	3	1.10158E+000	8.84123E-002	0.00000E+000	9.73934E-002	8.80322E-001	3.82348E-002	4.28712E+001	11	...........	6.34870E-002	-3.43768E-003	5.51218E-001	7.06051E-001	-3.07768E-002	-3.95094E-002	6.13838E-001	-4.27978E-002	5.61303E-003	-3.03933E-004	4.87345E-002	6.24236E-002	-2.72105E-003	-3.49312E-003	5.42708E-002	-3.78386E-003
	4	4	1.10051E+000	6.66732E-002	0.00000E+000	7.33746E-002	6.64147E-001	3.68969E-002	4.21214E+001	11	...........	6.12333E-002	-3.45528E-003	5.51034E-001	7.06109E-001	-3.06565E-002	-3.95246E-002	6.13735E-001	-4.28501E-002	4.08262E-003	-2.30374E-004	3.67392E-002	4.70785E-002	-2.04397E-003	-2.63523E-003	4.09197E-002	-2.85695E-003
	5	5	1.10037E+000	5.67804E-002	0.00000E+000	6.24794E-002	5.65773E-001	3.70477E-002	4.02703E+001	11	...........	6.15029E-002	-3.38500E-003	5.51006E-001	7.06156E-001	-3.06996E-002	-3.95157E-002	6.13839E-001	-4.27742E-002	3.49216E-003	-1.92202E-004	3.12863E-002	4.00958E-002	-1.74313E-003	-2.24372E-003	3.48540E-002	-2.42873E-003
	6	6	1.10046E+000	5.25786E-002	0.00000E+000	5.78607E-002	5.23989E-001	3.66482E-002	4.07269E+001	11	...........	6.08292E-002	-3.33806E-003	5.50887E-001	7.06226E-001	-3.07207E-002	-3.94928E-002	6.13835E-001	-4.27075E-002	3.19831E-003	-1.75510E-004	2.89649E-002	3.71323E-002	-1.61525E-003	-2.07647E-003	3.22746E-002	-2.24550E-003
	7	7	1.10033E+000	5.00241E-002	0.00000E+000	5.50430E-002	4.98588E-001	3.70677E-002	4.06524E+001	11	...........	6.15215E-002	-3.28889E-003	5.50727E-001	7.06357E-001	-3.07017E-002	-3.95044E-002	6.13842E-001	-4.26743E-002	3.07756E-003	-1.64524E-004	2.75496E-002	3.53349E-002	-1.53582E-003	-1.97618E-003	3.07069E-002	-2.13474E-003
	8	8	1.10032E+000	4.90924E-002	0.00000E+000	5.40174E-002	4.89322E-001	3.66371E-002	4.12226E+001	11	...........	6.07749E-002	-3.29056E-003	5.50645E-001	7.06291E-001	-3.06917E-002	-3.95342E-002	6.13839E-001	-4.26210E-002	2.98359E-003	-1.61541E-004	2.70325E-002	3.46735E-002	-1.50673E-003	-1.94083E-003	3.01349E-002	-2.09237E-003
	9	9	1.10043E+000	4.80111E-002	0.00000E+000	5.28330E-002	4.78573E-001	3.68424E-002	4.02867E+001	11	...........	6.11242E-002	-3.26083E-003	5.50720E-001	7.06298E-001	-3.07117E-002	-3.95460E-002	6.13836E-001	-4.26006E-002	2.93464E-003	-1.56556E-004	2.64407E-002	3.39101E-002	-1.47450E-003	-1.89865E-003	2.94709E-002	-2.04530E-003
	10	10	1.10033E+000	4.70734E-002	0.00000E+000	5.17961E-002	4.69257E-001	3.66923E-002	3.97349E+001	11	...........	6.09010E-002	-3.24028E-003	5.50724E-001	7.06290E-001	-3.06971E-002	-3.95415E-002	6.13942E-001	-4.25315E-002	2.86682E-003	-1.52531E-004	2.59245E-002	3.32475E-002	-1.44502E-003	-1.86135E-003	2.89004E-002	-2.00210E-003
	11	11	1.10031E+000	4.70632E-002	0.00000E+000	5.17842E-002	4.69155E-001	3.67585E-002	3.88034E+001	11	...........	6.10229E-002	-3.13778E-003	5.50662E-001	7.06233E-001	-3.06997E-002	-3.95257E-002	6.14037E-001	-4.26031E-002	2.87193E-003	-1.47674E-004	2.59159E-002	3.32376E-002	-1.44483E-003	-1.86020E-003	2.88985E-002	-2.00504E-003
	12	12	1.10042E+000	4.65882E-002	0.00000E+000	5.12667E-002	4.64431E-001	3.64722E-002	4.04688E+001	11	...........	6.05289E-002	-3.14375E-003	5.50743E-001	7.06118E-001	-3.06987E-002	-3.94996E-002	6.14013E-001	-4.25881E-002	2.81993E-003	-1.46462E-004	2.56581E-002	3.28968E-002	-1.43020E-003	-1.84022E-003	2.86058E-002	-1.98410E-003
	13	13	1.10033E+000	4.60243E-002	0.00000E+000	5.06418E-002	4.58825E-001	3.70248E-002	3.90334E+001	11	...........	6.14587E-002	-3.25569E-003	5.50792E-001	7.06107E-001	-3.06833E-002	-3.94800E-002	6.13958E-001	-4.27679E-002	2.82860E-003	-1.49841E-004	2.53498E-002	3.24981E-002	-1.41218E-003	-1.81704E-003	2.82570E-002	-1.96836E-003
	14	14	1.10031E+000	4.61120E-002	0.00000E+000	5.07374E-002	4.59692E-001	3.65039E-002	4.00062E+001	11	...........	6.05682E-002	-3.23042E-003	5.50667E-001	7.06162E-001	-3.06860E-002	-3.94607E-002	6.13967E-001	-4.26160E-002	2.79292E-003	-1.48961E-004	2.53923E-002	3.25625E-002	-1.41499E-003	-1.81961E-003	2.83112E-002	-1.96511E-003
	15	15	1.10042E+000	4.58168E-002	0.00000E+000	5.04177E-002	4.56763E-001	3.67080E-002	3.93590E+001	11	...........	6.09364E-002	-3.24028E-003	5.50701E-001	7.06056E-001	-3.07250E-002	-3.94428E-002	6.13963E-001	-4.26056E-002	2.79191E-003	-1.48459E-004	2.52314E-002	3.23492E-002	-1.40772E-003	-1.80714E-003	2.81298E-002	-1.95205E-003
	16	16	1.10033E+000	4.52093E-002	0.00000E+000	4.97452E-002	4.50720E-001	3.62837E-002	3.94801E+001	11	...........	6.02343E-002	-3.22278E-003	5.50691E-001	7.06138E-001	-3.07067E-002	-3.94269E-002	6.13811E-001	-4.25565E-002	2.72315E-003	-1.45700E-004	2.48964E-002	3.19240E-002	-1.38823E-003	-1.78247E-003	2.77500E-002	-1.92395E-003
	17	17	1.10031E+000	4.55200E-002	0.00000E+000	5.00862E-002	4.53810E-001	3.67991E-002	3.90762E+001	11	...........	6.10931E-002	-3.32653E-003	5.50843E-001	7.06234E-001	-3.07318E-002	-3.94246E-002	6.13888E-001	-4.25558E-002	2.78096E-003	-1.51424E-004	2.50744E-002	3.21478E-002	-1.39891E-003	-1.79461E-003	2.79442E-002	-1.93714E-003
	18	18	1.10041E+000	4.52767E-002	0.00000E+000	4.98231E-002	4.51390E-001	3.63814E-002	3.97344E+001	11	...........	6.03661E-002	-3.31903E-003	5.50712E-001	7.06159E-001	-3.07369E-002	-3.94131E-002	6.13857E-001	-4.26065E-002	2.73318E-003	-1.50275E-004	2.49344E-002	3.19725E-002	-1.39167E-003	-1.78449E-003	2.77934E-002	-1.92908E-003
	19	19	1.10033E+000	4.47232E-002	0.00000E+000	4.92104E-002	4.45884E-001	3.64891E-002	3.92974E+001	11	...........	6.05478E-002	-3.39319E-003	5.50670E-001	7.06097E-001	-3.07697E-002	-3.94222E-002	6.13834E-001	-4.26612E-002	2.70789E-003	-1.51755E-004	2.46277E-002	3.15789E-002	-1.37612E-003	-1.76309E-003	2.74526E-002	-1.90795E-003
	20	20	1.10031E+000	4.49671E-002	0.00000E+000	4.94777E-002	4.48314E-001	3.61287E-002	3.93628E+001	11	...........	6.01671E-002	-3.34944E-003	5.50590E-001	7.06154E-001	-3.07846E-002	-3.94325E-002	6.13819E-001	-4.26687E-002	2.70554E-003	-1.50615E-004	2.47584E-002	3.17537E-002	-1.38429E-003	-1.77317E-003	2.76017E-002	-1.91869E-003
	21	21	1.10041E+000	4.47785E-002	0.00000E+000	4.92747E-002	4.46443E-001	3.63172E-002	4.00080E+001	11	...........	6.06139E-002	-3.28000E-003	5.50731E-001	7.06108E-001	-3.08111E-002	-3.94304E-002	6.13878E-001	-4.26296E-002	2.71420E-003	-1.46873E-004	2.46609E-002	3.16184E-002	-1.37968E-003	-1.76564E-003	2.74885E-002	-1.90889E-003
	22	22	1.10034E+000	4.42722E-002	0.00000E+000	4.87144E-002	4.41410E-001	3.60662E-002	3.91973E+001	11	...........	6.01722E-002	-3.29347E-003	5.50827E-001	7.06086E-001	-3.08262E-002	-3.94200E-002	6.14026E-001	-4.26311E-002	2.66395E-003	-1.45809E-004	2.43863E-002	3.12599E-002	-1.36474E-003	-1.74521E-003	2.71843E-002	-1.88737E-003
	23	23	1.10030E+000	4.45358E-002	0.00000E+000	4.90029E-002	4.44027E-001	3.58917E-002	3.87390E+001	11	...........	5.99010E-002	-3.23778E-003	5.50812E-001	7.06072E-001	-3.08337E-002	-3.94147E-002	6.13980E-001	-4.25593E-002	2.66774E-003	-1.44197E-004	2.45308E-002	3.14455E-002	-1.37321E-003	-1.75537E-003	2.73441E-002	-1.89541E-003
	24	24	1.10041E+000	4.43767E-002	0.00000E+000	4.88324E-002	4.42446E-001	3.64932E-002	3.97060E+001	11	...........	6.09011E-002	-3.36111E-003	5.50769E-001	7.06113E-001	-3.08482E-002	-3.94278E-002	6.13908E-001	-4.26210E-002	2.70259E-003	-1.49155E-004	2.44413E-002	3.13349E-002	-1.36894E-003	-1.74967E-003	2.72432E-002	-1.89138E-003
	25	25	1.10035E+000	4.38243E-002	0.00000E+000	4.82219E-002	4.36958E-001	3.59786E-002	3.98452E+001	11	...........	6.00521E-002	-3.30972E-003	5.50900E-001	7.06157E-001	-3.08569E-002	-3.94065E-002	6.13868E-001	-4.26999E-002	2.63174E-003	-1.45046E-004	2.41428E-002	3.09468E-002	-1.35228E-003	-1.72696E-003	2.69023E-002	-1.87129E-003
	26	26	1.10031E+000	4.40232E-002	0.00000E+000	4.84390E-002	4.38934E-001	3.61298E-002	3.93665E+001	11	...........	6.02876E-002	-3.25458E-003	5.51049E-001	7.06024E-001	-3.08722E-002	-3.93986E-002	6.13790E-001	-4.26150E-002	2.65405E-003	-1.43277E-004	2.42589E-002	3.10814E-002	-1.35909E-003	-1.73445E-003	2.70210E-002	-1.87605E-003
	27	27	1.10040E+000	4.39362E-002	0.00000E+000	4.83474E-002	4.38069E-001	3.60290E-002	4.02134E+001	11	...........	6.01365E-002	-3.23736E-003	5.51005E-001	7.06153E-001	-3.08696E-002	-3.94317E-002	6.13790E-001	-4.25426E-002	2.64217E-003	-1.42237E-004	2.42091E-002	3.10257E-002	-1.35629E-003	-1.73248E-003	2.69676E-002	-1.86916E-003
	28	28	1.10035E+000	4.33663E-002	0.00000E+000	4.77180E-002	4.32404E-001	3.58653E-002	3.89044E+001	11	...........	5.98476E-002	-3.26222E-003	5.51001E-001	7.06099E-001	-3.08749E-002	-3.94392E-002	6.13812E-001	-4.25740E-002	2.59537E-003	-1.41471E-004	2.38949E-002	3.06209E-002	-1.33893E-003	-1.71033E-003	2.66187E-002	-1.84628E-003
	29	29	1.10031E+000	4.37040E-002	0.00000E+000	4.80877E-002	4.35760E-001	3.60363E-002	3.94942E+001	11	...........	6.01240E-002	-3.25958E-003	5.50911E-001	7.06007E-001	-3.09074E-002	-3.94242E-002	6.13830E-001	-4.26582E-002	2.62766E-003	-1.42457E-004	2.40770E-002	3.08553E-002	-1.35078E-003	-1.72299E-003	2.68268E-002	-1.86433E-003
	30	30	1.10040E+000	4.35394E-002	0.00000E+000	4.79108E-002	4.34120E-001	3.60355E-002	3.89772E+001	11	...........	6.01449E-002	-3.28833E-003	5.51052E-001	7.05896E-001	-3.09107E-002	-3.94092E-002	6.14039E-001	-4.26343E-002	2.61867E-003	-1.43172E-004	2.39925E-002	3.07343E-002	-1.34583E-003	-1.71585E-003	2.67349E-002	-1.85627E-003
	31	31	1.10035E+000	4.29660E-002	0.00000E+000	4.72778E-002	4.28422E-001	3.60270E-002	4.05557E+001	11	...........	6.01268E-002	-3.25292E-003	5.50872E-001	7.05960E-001	-3.09203E-002	-3.93872E-002	6.13792E-001	-4.26529E-002	2.58341E-003	-1.39765E-004	2.36688E-002	3.03323E-002	-1.32852E-003	-1.69231E-003	2.63722E-002	-1.83263E-003
	32	32	1.10030E+000	4.32933E-002	0.00000E+000	4.76356E-002	4.31673E-001	3.58815E-002	3.96181E+001	11	...........	5.98640E-002	-3.31111E-003	5.50811E-001	7.06034E-001	-3.09071E-002	-3.93836E-002	6.13763E-001	-4.25733E-002	2.59171E-003	-1.43349E-004	2.38464E-002	3.05665E-002	-1.33807E-003	-1.70504E-003	2.65718E-002	-1.84314E-003
	33	33	1.10040E+000	4.31474E-002	0.00000E+000	4.74794E-002	4.30227E-001	3.59991E-002	3.90762E+001	11	...........	6.00506E-002	-3.27611E-003	5.50832E-001	7.06095E-001	-3.08812E-002	-3.93900E-002	6.13664E-001	-4.25350E-002	2.59103E-003	-1.41356E-004	2.37670E-002	3.04662E-002	-1.33245E-003	-1.69958E-003	2.64780E-002	-1.83528E-003
	34	34	1.10036E+000	4.26627E-002	0.00000E+000	4.69442E-002	4.25406E-001	3.59864E-002	3.99979E+001	11	...........	6.00533E-002	-3.19764E-003	5.50985E-001	7.06098E-001	-3.08693E-002	-3.93971E-002	6.13681E-001	-4.26322E-002	2.56204E-003	-1.36420E-004	2.35065E-002	3.01241E-002	-1.31697E-003	-1.68079E-003	2.61813E-002	-1.81881E-003
	35	35	1.10030E+000	4.28964E-002	0.00000E+000	4.71989E-002	4.27727E-001	3.59504E-002	3.94918E+001	11	...........	5.99924E-002	-3.30708E-003	5.50945E-001	7.06201E-001	-3.08835E-002	-3.93896E-002	6.13672E-001	-4.26712E-002	2.57346E-003	-1.41862E-004	2.36335E-002	3.02935E-002	-1.32479E-003	-1.68967E-003	2.63243E-002	-1.83044E-003
	36	36	1.10039E+000	4.27264E-002	0.00000E+000	4.70159E-002	4.26039E-001	3.55889E-002	3.86869E+001	11	...........	5.94035E-002	-3.33417E-003	5.50774E-001	7.06111E-001	-3.08460E-002	-3.94232E-002	6.13698E-001	-4.26925E-002	2.53810E-003	-1.42457E-004	2.35326E-002	3.01696E-002	-1.31794E-003	-1.68441E-003	2.62211E-002	-1.82410E-003
	37	37	1.10036E+000	4.22117E-002	0.00000E+000	4.64482E-002	4.20925E-001	3.59093E-002	3.99139E+001	11	...........	5.99296E-002	-3.28347E-003	5.50739E-001	7.06106E-001	-3.08181E-002	-3.94250E-002	6.13571E-001	-4.28074E-002	2.52973E-003	-1.38601E-004	2.32476E-002	2.98060E-002	-1.30088E-003	-1.66420E-003	2.58999E-002	-1.80697E-003
	38	38	1.10030E+000	4.25212E-002	0.00000E+000	4.67859E-002	4.23998E-001	3.62111E-002	4.03211E+001	11	...........	6.04385E-002	-3.34708E-003	5.50770E-001	7.06113E-001	-3.08543E-002	-3.94321E-002	6.13567E-001	-4.28393E-002	2.56991E-003	-1.42322E-004	2.34194E-002	3.00248E-002	-1.31196E-003	-1.67670E-003	2.60896E-002	-1.82158E-003
	39	39	1.10039E+000	4.24091E-002	0.00000E+000	4.66666E-002	4.22885E-001	3.56475E-002	3.86376E+001	11	...........	5.94939E-002	-3.15958E-003	5.50693E-001	7.06271E-001	-3.08444E-002	-3.94315E-002	6.13702E-001	-4.27844E-002	2.52308E-003	-1.33995E-004	2.33544E-002	2.99523E-002	-1.30809E-003	-1.67226E-003	2.60266E-002	-1.81445E-003
	40	40	1.10037E+000	4.17819E-002	0.00000E+000	4.59755E-002	4.16647E-001	3.57268E-002	3.86723E+001	11	...........	5.96314E-002	-3.25986E-003	5.50572E-001	7.06446E-001	-3.08439E-002	-3.94261E-002	6.13764E-001	-4.27461E-002	2.49151E-003	-1.36203E-004	2.30040E-002	2.95167E-002	-1.28872E-003	-1.64730E-003	2.56442E-002	-1.78602E-003
	41	41	1.10030E+000	4.19580E-002	0.00000E+000	4.61663E-002	4.18394E-001	3.57605E-002	3.87513E+001	11	...........	5.96728E-002	-3.30389E-003	5.50582E-001	7.06455E-001	-3.08465E-002	-3.94237E-002	6.13775E-001	-4.27376E-002	2.50375E-003	-1.38624E-004	2.31013E-002	2.96414E-002	-1.29426E-003	-1.65414E-003	2.57528E-002	-1.79319E-003
	42	42	1.10038E+000	4.18948E-002	0.00000E+000	4.61004E-002	4.17769E-001	3.58491E-002	3.93427E+001	11	...........	5.98315E-002	-3.22486E-003	5.50608E-001	7.06411E-001	-3.08654E-002	-3.94443E-002	6.13886E-001	-4.25929E-002	2.50663E-003	-1.35105E-004	2.30677E-002	2.95950E-002	-1.29310E-003	-1.65251E-003	2.57187E-002	-1.78442E-003
	43	43	1.10037E+000	4.13746E-002	0.00000E+000	4.55275E-002	4.12597E-001	3.56880E-002	4.01240E+001	11	...........	5.95642E-002	-3.26028E-003	5.50546E-001	7.06461E-001	-3.08975E-002	-3.94175E-002	6.13930E-001	-4.25304E-002	2.46444E-003	-1.34893E-004	2.27786E-002	2.92296E-002	-1.27837E-003	-1.63088E-003	2.54011E-002	-1.75968E-003
	44	44	1.10030E+000	4.16276E-002	0.00000E+000	4.58027E-002	4.15114E-001	3.58504E-002	3.89749E+001	11	...........	5.98328E-002	-3.28222E-003	5.50533E-001	7.06343E-001	-3.08624E-002	-3.94197E-002	6.13816E-001	-4.25350E-002	2.49069E-003	-1.36631E-004	2.29174E-002	2.94034E-002	-1.28473E-003	-1.64095E-003	2.55517E-002	-1.77063E-003
	45	45	1.10038E+000	4.15453E-002	0.00000E+000	4.57158E-002	4.14293E-001	3.56848E-002	3.88571E+001	11	...........	5.95576E-002	-3.28542E-003	5.50555E-001	7.06283E-001	-3.07918E-002	-3.94458E-002	6.13733E-001	-4.25575E-002	2.47434E-003	-1.36494E-004	2.28730E-002	2.93427E-002	-1.27926E-003	-1.63879E-003	2.54977E-002	-1.76807E-003
	46	46	1.10038E+000	4.10157E-002	0.00000E+000	4.51328E-002	4.09029E-001	3.59557E-002	3.88074E+001	11	...........	5.99961E-002	-3.43250E-003	5.50646E-001	7.06407E-001	-3.07933E-002	-3.94371E-002	6.13732E-001	-4.26135E-002	2.46078E-003	-1.40786E-004	2.25851E-002	2.89738E-002	-1.26301E-003	-1.61754E-003	2.51727E-002	-1.74782E-003
	47	47	1.10029E+000	4.12700E-002	0.00000E+000	4.54091E-002	4.11557E-001	3.56487E-002	4.03697E+001	11	...........	5.95039E-002	-3.45681E-003	5.50595E-001	7.06190E-001	-3.07654E-002	-3.94397E-002	6.13722E-001	-4.26262E-002	2.45572E-003	-1.42662E-004	2.27230E-002	2.91445E-002	-1.26969E-003	-1.62768E-003	2.53283E-002	-1.75918E-003
	48	48	1.10038E+000	4.11709E-002	0.00000E+000	4.53035E-002	4.10571E-001	3.57477E-002	3.94103E+001	11	...........	5.96601E-002	-3.26292E-003	5.50853E-001	7.06123E-001	-3.07103E-002	-3.94646E-002	6.13784E-001	-4.26018E-002	2.45626E-003	-1.34337E-004	2.26791E-002	2.90717E-002	-1.26437E-003	-1.62479E-003	2.52700E-002	-1.75395E-003
	49	49	1.10038E+000	4.06569E-002	0.00000E+000	4.47382E-002	4.05462E-001	3.57862E-002	3.83021E+001	11	...........	5.97156E-002	-3.33264E-003	5.50896E-001	7.06213E-001	-3.07137E-002	-3.94710E-002	6.13761E-001	-4.25233E-002	2.42785E-003	-1.35495E-004	2.23977E-002	2.87124E-002	-1.24873E-003	-1.60477E-003	2.49536E-002	-1.72887E-003
	50	50	1.10029E+000	4.08155E-002	0.00000E+000	4.49090E-002	4.07040E-001	3.55516E-002	3.77300E+001	11	...........	5.93472E-002	-3.27944E-003	5.50854E-001	7.06152E-001	-3.07110E-002	-3.94187E-002	6.13786E-001	-4.26412E-002	2.42228E-003	-1.33852E-004	2.24834E-002	2.88219E-002	-1.25348E-003	-1.60889E-003	2.50520E-002	-1.74042E-003
	51	51	1.10038E+000	4.08512E-002	0.00000E+000	4.49517E-002	4.07395E-001	3.53061E-002	3.96202E+001	11	...........	5.89243E-002	-3.23236E-003	5.50845E-001	7.06071E-001	-3.07487E-002	-3.94150E-002	6.13794E-001	-4.27029E-002	2.40713E-003	-1.32046E-004	2.25027E-002	2.88439E-002	-1.25612E-003	-1.61015E-003	2.50742E-002	-1.74447E-003
	52	52	1.10039E+000	4.02620E-002	0.00000E+000	4.43037E-002	4.01530E-001	3.61181E-002	3.94229E+001	11	...........	6.03004E-002	-3.28431E-003	5.50749E-001	7.06110E-001	-3.07189E-002	-3.94525E-002	6.13669E-001	-4.27562E-002	2.42781E-003	-1.32233E-004	2.21742E-002	2.84294E-002	-1.23680E-003	-1.58844E-003	2.47075E-002	-1.72145E-003
	53	53	1.10029E+000	4.04736E-002	0.00000E+000	4.45327E-002	4.03635E-001	3.52486E-002	3.98160E+001	11	...........	5.88276E-002	-3.23042E-003	5.50382E-001	7.06157E-001	-3.06961E-002	-3.94528E-002	6.13667E-001	-4.27065E-002	2.38097E-003	-1.30747E-004	2.22760E-002	2.85807E-002	-1.24238E-003	-1.59680E-003	2.48373E-002	-1.72849E-003
	54	54	1.10037E+000	4.04857E-002	0.00000E+000	4.45494E-002	4.03756E-001	3.58324E-002	3.96878E+001	11	...........	5.97894E-002	-3.22347E-003	5.50342E-001	7.06226E-001	-3.07240E-002	-3.94656E-002	6.13740E-001	-4.27104E-002	2.42062E-003	-1.30505E-004	2.22810E-002	2.85921E-002	-1.24388E-003	-1.59779E-003	2.48477E-002	-1.72916E-003
	55	55	1.10039E+000	3.99415E-002	0.00000E+000	4.39514E-002	3.98343E-001	3.59163E-002	3.85177E+001	11	...........	5.99057E-002	-3.24361E-003	5.50388E-001	7.06111E-001	-3.07351E-002	-3.94624E-002	6.13571E-001	-4.27675E-002	2.39272E-003	-1.29555E-004	2.19833E-002	2.82031E-002	-1.22761E-003	-1.57618E-003	2.45069E-002	-1.70820E-003
	56	56	1.10029E+000	4.01332E-002	0.00000E+000	4.41582E-002	4.00255E-001	3.55182E-002	3.91719E+001	11	...........	5.92803E-002	-3.18083E-003	5.50311E-001	7.06049E-001	-3.07240E-002	-3.94553E-002	6.13553E-001	-4.27285E-002	2.37911E-003	-1.27657E-004	2.20858E-002	2.83360E-002	-1.23305E-003	-1.58347E-003	2.46239E-002	-1.71483E-003
	57	57	1.10036E+000	4.01276E-002	0.00000E+000	4.41550E-002	4.00196E-001	3.55600E-002	3.93814E+001	11	...........	5.93511E-002	-3.21889E-003	5.50404E-001	7.06182E-001	-3.07114E-002	-3.94417E-002	6.13688E-001	-4.26865E-002	2.38162E-003	-1.29166E-004	2.20864E-002	2.83374E-002	-1.23237E-003	-1.58270E-003	2.46258E-002	-1.71291E-003
	58	58	1.10040E+000	3.95597E-002	0.00000E+000	4.35314E-002	3.94553E-001	3.53952E-002	3.88599E+001	11	...........	5.90706E-002	-3.27222E-003	5.50327E-001	7.06211E-001	-3.07319E-002	-3.94171E-002	6.13663E-001	-4.27215E-002	2.33682E-003	-1.29448E-004	2.17708E-002	2.79375E-002	-1.21575E-003	-1.55933E-003	2.42764E-002	-1.69005E-003
	59	59	1.10029E+000	3.98011E-002	0.00000E+000	4.37928E-002	3.96951E-001	3.55092E-002	3.95628E+001	11	...........	5.92697E-002	-3.43542E-003	5.50434E-001	7.06052E-001	-3.07507E-002	-3.94311E-002	6.13554E-001	-4.26669E-002	2.35900E-003	-1.36733E-004	2.19079E-002	2.81017E-002	-1.22391E-003	-1.56940E-003	2.44201E-002	-1.69819E-003
	60	60	1.10036E+000	3.97416E-002	0.00000E+000	4.37302E-002	3.96359E-001	3.57423E-002	3.80659E+001	11	...........	5.96531E-002	-3.51611E-003	5.50530E-001	7.06038E-001	-3.07403E-002	-3.94453E-002	6.13612E-001	-4.27322E-002	2.37071E-003	-1.39736E-004	2.18789E-002	2.80591E-002	-1.22167E-003	-1.56762E-003	2.43859E-002	-1.69825E-003
	61	61	1.10040E+000	3.92153E-002	0.00000E+000	4.31524E-002	3.91126E-001	3.51637E-002	3.89132E+001	11	...........	5.86864E-002	-3.28986E-003	5.50532E-001	7.06033E-001	-3.07483E-002	-3.94551E-002	6.13543E-001	-4.25614E-002	2.30140E-003	-1.29013E-004	2.15893E-002	2.76872E-002	-1.20580E-003	-1.54724E-003	2.40602E-002	-1.66906E-003
	62	62	1.10029E+000	3.94402E-002	0.00000E+000	4.33957E-002	3.93363E-001	3.59144E-002	3.76887E+001	11	...........	5.99281E-002	-3.36125E-003	5.50605E-001	7.06093E-001	-3.07494E-002	-3.94383E-002	6.13757E-001	-4.26708E-002	2.36358E-003	-1.32568E-004	2.17160E-002	2.78485E-002	-1.21276E-003	-1.55546E-003	2.42067E-002	-1.68295E-003
	63	63	1.10036E+000	3.94325E-002	0.00000E+000	4.33900E-002	3.93284E-001	3.53376E-002	3.82792E+001	11	...........	5.89678E-002	-3.31625E-003	5.50583E-001	7.06088E-001	-3.07849E-002	-3.94090E-002	6.13728E-001	-4.27371E-002	2.32525E-003	-1.30768E-004	2.17109E-002	2.78428E-002	-1.21393E-003	-1.55400E-003	2.42009E-002	-1.68523E-003
	64	64	1.10041E+000	3.88971E-002	0.00000E+000	4.28026E-002	3.87962E-001	3.53682E-002	3.90010E+001	11	...........	5.90258E-002	-3.25500E-003	5.50435E-001	7.06155E-001	-3.08115E-002	-3.94018E-002	6.13791E-001	-4.27485E-002	2.29594E-003	-1.26610E-004	2.14104E-002	2.74674E-002	-1.19848E-003	-1.53262E-003	2.38747E-002	-1.66279E-003
	65	65	1.10029E+000	3.91401E-002	0.00000E+000	4.30654E-002	3.90381E-001	3.56964E-002	3.89806E+001	11	...........	5.95778E-002	-3.23528E-003	5.50259E-001	7.06150E-001	-3.08475E-002	-3.94304E-002	6.13774E-001	-4.28125E-002	2.33188E-003	-1.26629E-004	2.15372E-002	2.76388E-002	-1.20738E-003	-1.54331E-003	2.40232E-002	-1.67569E-003
	66	66	1.10036E+000	3.92170E-002	0.00000E+000	4.31528E-002	3.91142E-001	3.54402E-002	3.82859E+001	11	...........	5.91414E-002	-3.24958E-003	5.50082E-001	7.06125E-001	-3.08458E-002	-3.94340E-002	6.13813E-001	-4.27713E-002	2.31935E-003	-1.27439E-004	2.15726E-002	2.76921E-002	-1.20968E-003	-1.54648E-003	2.40719E-002	-1.67736E-003
	67	67	1.10041E+000	3.86442E-002	0.00000E+000	4.25244E-002	3.85449E-001	3.54546E-002	3.95205E+001	11	...........	5.91776E-002	-3.20236E-003	5.50142E-001	7.06204E-001	-3.08485E-002	-3.93892E-002	6.13832E-001	-4.27331E-002	2.28687E-003	-1.23753E-004	2.12598E-002	2.72907E-002	-1.19211E-003	-1.52216E-003	2.37210E-002	-1.65138E-003
	68	68	1.10029E+000	3.87529E-002	0.00000E+000	4.26393E-002	3.86530E-001	3.52861E-002	3.96354E+001	11	...........	5.88912E-002	-3.19458E-003	5.50173E-001	7.06280E-001	-3.08528E-002	-3.93399E-002	6.13786E-001	-4.26788E-002	2.28221E-003	-1.23799E-004	2.13208E-002	2.73704E-002	-1.19563E-003	-1.52453E-003	2.37860E-002	-1.65393E-003
	69	69	1.10036E+000	3.88538E-002	0.00000E+000	4.27531E-002	3.87531E-001	3.56390E-002	3.77864E+001	11	...........	5.94882E-002	-3.22736E-003	5.50031E-001	7.06326E-001	-3.08653E-002	-3.93271E-002	6.13926E-001	-4.26314E-002	2.31134E-003	-1.25395E-004	2.13708E-002	2.74435E-002	-1.19923E-003	-1.52801E-003	2.38534E-002	-1.65639E-003
	70	70	1.10041E+000	3.83008E-002	0.00000E+000	4.21466E-002	3.82032E-001	3.51702E-002	3.89248E+001	11	...........	5.86972E-002	-3.23417E-003	5.50000E-001	7.06379E-001	-3.08537E-002	-3.93072E-002	6.13924E-001	-4.26444E-002	2.24815E-003	-1.23871E-004	2.10654E-002	2.70549E-002	-1.18172E-003	-1.50550E-003	2.35138E-002	-1.63332E-003
	71	71	1.10029E+000	3.84422E-002	0.00000E+000	4.22974E-002	3.83439E-001	3.53987E-002	3.86546E+001	11	...........	5.90751E-002	-3.23306E-003	5.50022E-001	7.06249E-001	-3.08517E-002	-3.93257E-002	6.13893E-001	-4.26994E-002	2.27098E-003	-1.24286E-004	2.11440E-002	2.71497E-002	-1.18601E-003	-1.51177E-003	2.35994E-002	-1.64146E-003
	72	72	1.10035E+000	3.85371E-002	0.00000E+000	4.24044E-002	3.84384E-001	3.54862E-002	3.85193E+001	11	...........	5.92144E-002	-3.23347E-003	5.50087E-001	7.06198E-001	-3.08547E-002	-3.93169E-002	6.13863E-001	-4.26804E-002	2.28195E-003	-1.24609E-004	2.11987E-002	2.72148E-002	-1.18905E-003	-1.51516E-003	2.36565E-002	-1.64478E-003
	73	73	1.10042E+000	3.80384E-002	0.00000E+000	4.18580E-002	3.79424E-001	3.54313E-002	3.84914E+001	11	...........	5.91160E-002	-3.18319E-003	5.50174E-001	7.06151E-001	-3.08533E-002	-3.93001E-002	6.13859E-001	-4.28142E-002	2.24868E-003	-1.21084E-004	2.09277E-002	2.68608E-002	-1.17361E-003	-1.49491E-003	2.33502E-002	-1.62858E-003
	74	74	1.10029E+000	3.81034E-002	0.00000E+000	4.19247E-002	3.80074E-001	3.51381E-002	3.82686E+001	11	...........	5.86354E-002	-3.15306E-003	5.49971E-001	7.06148E-001	-3.08674E-002	-3.93026E-002	6.13673E-001	-4.26607E-002	2.23421E-003	-1.20142E-004	2.09558E-002	2.69067E-002	-1.17615E-003	-1.49756E-003	2.33831E-002	-1.62552E-003
	75	75	1.10035E+000	3.81832E-002	0.00000E+000	4.20148E-002	3.80868E-001	3.53321E-002	3.89093E+001	11	...........	5.89671E-002	-3.09347E-003	5.49904E-001	7.06259E-001	-3.08421E-002	-3.93119E-002	6.13721E-001	-4.25732E-002	2.25155E-003	-1.18119E-004	2.09971E-002	2.69672E-002	-1.17765E-003	-1.50105E-003	2.34338E-002	-1.62558E-003
	76	76	1.10042E+000	3.77478E-002	0.00000E+000	4.15383E-002	3.76538E-001	3.54238E-002	3.83859E+001	11	...........	5.91075E-002	-3.18514E-003	5.49802E-001	7.06175E-001	-3.08690E-002	-3.92833E-002	6.13672E-001	-4.24868E-002	2.23118E-003	-1.20232E-004	2.07538E-002	2.66565E-002	-1.16524E-003	-1.48286E-003	2.31648E-002	-1.60378E-003
	77	77	1.10029E+000	3.77993E-002	0.00000E+000	4.15901E-002	3.77052E-001	3.51529E-002	3.90688E+001	11	...........	5.86679E-002	-3.14236E-003	5.49787E-001	7.06259E-001	-3.09044E-002	-3.92729E-002	6.13715E-001	-4.25279E-002	2.21761E-003	-1.18779E-004	2.07816E-002	2.66961E-002	-1.16817E-003	-1.48449E-003	2.31980E-002	-1.60753E-003
	78	78	1.10035E+000	3.77851E-002	0.00000E+000	4.15767E-002	3.76912E-001	3.51142E-002	3.78087E+001	11	...........	5.86029E-002	-3.19694E-003	5.49813E-001	7.06373E-001	-3.09158E-002	-3.92847E-002	6.13559E-001	-4.26058E-002	2.21432E-003	-1.20797E-004	2.07747E-002	2.66903E-002	-1.16816E-003	-1.48438E-003	2.31834E-002	-1.60986E-003
	79	79	1.10042E+000	3.74293E-002	0.00000E+000	4.11880E-002	3.73373E-001	3.52944E-002	3.99736E+001	11	...........	5.89067E-002	-3.29556E-003	5.49719E-001	7.06463E-001	-3.09271E-002	-3.92711E-002	6.13582E-001	-4.26992E-002	2.20484E-003	-1.23350E-004	2.05756E-002	2.64424E-002	-1.15758E-003	-1.46989E-003	2.29659E-002	-1.59820E-003
	80	80	1.10029E+000	3.74759E-002	0.00000E+000	4.12342E-002	3.73838E-001	3.54157E-002	3.95964E+001	11	...........	5.90847E-002	-3.41986E-003	5.49778E-001	7.06430E-001	-3.09297E-002	-3.92796E-002	6.13642E-001	-4.26794E-002	2.21425E-003	-1.28162E-004	2.06034E-002	2.64741E-002	-1.15912E-003	-1.47204E-003	2.29968E-002	-1.59945E-003
	81	81	1.10034E+000	3.75522E-002	0.00000E+000	4.13203E-002	3.74599E-001	3.53258E-002	3.80120E+001	11	...........	5.89564E-002	-3.43000E-003	5.49778E-001	7.06525E-001	-3.09469E-002	-3.92872E-002	6.13760E-001	-4.26276E-002	2.21394E-003	-1.28804E-004	2.06454E-002	2.65316E-002	-1.16213E-003	-1.47532E-003	2.30481E-002	-1.60076E-003
	82	82	1.10042E+000	3.71102E-002	0.00000E+000	4.08370E-002	3.70203E-001	3.50842E-002	3.86196E+001	11	...........	5.85440E-002	-3.35944E-003	5.49889E-001	7.06635E-001	-3.09476E-002	-3.93012E-002	6.13831E-001	-4.25254E-002	2.17258E-003	-1.24670E-004	2.04065E-002	2.62233E-002	-1.14847E-003	-1.45848E-003	2.27794E-002	-1.57813E-003
	83	83	1.10028E+000	3.71139E-002	0.00000E+000	4.08359E-002	3.70238E-001	3.51850E-002	3.84818E+001	11	...........	5.86897E-002	-3.32236E-003	5.49942E-001	7.06679E-001	-3.09169E-002	-3.93228E-002	6.13907E-001	-4.25999E-002	2.17821E-003	-1.23306E-004	2.04105E-002	2.62276E-002	-1.14745E-003	-1.45942E-003	2.27845E-002	-1.58105E-003
	84	84	1.10034E+000	3.72661E-002	0.00000E+000	4.10055E-002	3.71750E-001	3.53172E-002	3.93957E+001	11	...........	5.89419E-002	-3.32583E-003	5.49893E-001	7.06665E-001	-3.09011E-002	-3.93464E-002	6.13767E-001	-4.25962E-002	2.19654E-003	-1.23941E-004	2.04924E-002	2.63346E-002	-1.15156E-003	-1.46629E-003	2.28727E-002	-1.58740E-003
	85	85	1.10043E+000	3.68200E-002	0.00000E+000	4.05177E-002	3.67312E-001	3.49128E-002	4.02193E+001	11	...........	5.82737E-002	-3.31431E-003	5.49762E-001	7.06610E-001	-3.08921E-002	-3.93564E-002	6.13825E-001	-4.26233E-002	2.14564E-003	-1.22033E-004	2.02422E-002	2.60174E-002	-1.13745E-003	-1.44910E-003	2.26010E-002	-1.56939E-003
	86	86	1.10029E+000	3.68141E-002	0.00000E+000	4.05060E-002	3.67256E-001	3.54212E-002	3.93061E+001	11	...........	5.91219E-002	-3.22653E-003	5.49817E-001	7.06563E-001	-3.08849E-002	-3.93676E-002	6.13855E-001	-4.26001E-002	2.17652E-003	-1.18782E-004	2.02410E-002	2.60115E-002	-1.13700E-003	-1.44929E-003	2.25985E-002	-1.56829E-003
	87	87	1.10034E+000	3.69012E-002	0.00000E+000	4.06039E-002	3.68124E-001	3.50203E-002	3.83588E+001	11	...........	5.84496E-002	-3.14792E-003	5.49753E-001	7.06609E-001	-3.08569E-002	-3.93593E-002	6.13895E-001	-4.26076E-002	2.15686E-003	-1.16162E-004	2.02865E-002	2.60747E-002	-1.13866E-003	-1.45241E-003	2.26535E-002	-1.57227E-003
	88	88	1.10043E+000	3.65171E-002	0.00000E+000	4.01844E-002	3.64306E-001	3.51520E-002	3.89567E+001	11	...........	5.86712E-002	-3.09569E-003	5.49791E-001	7.06601E-001	-3.08978E-002	-3.93475E-002	6.13827E-001	-4.27254E-002	2.14250E-003	-1.13046E-004	2.00768E-002	2.58030E-002	-1.12830E-003	-1.43686E-003	2.24152E-002	-1.56021E-003
	89	89	1.10029E+000	3.65008E-002	0.00000E+000	4.01614E-002	3.64143E-001	3.52084E-002	3.94637E+001	11	...........	5.87490E-002	-3.21806E-003	5.49803E-001	7.06750E-001	-3.08490E-002	-3.93607E-002	6.13840E-001	-4.28010E-002	2.14439E-003	-1.17462E-004	2.00683E-002	2.57970E-002	-1.12602E-003	-1.43670E-003	2.24057E-002	-1.56227E-003
	90	90	1.10034E+000	3.65962E-002	0.00000E+000	4.02682E-002	3.65091E-001	3.48573E-002	3.85749E+001	11	...........	5.81704E-002	-3.25111E-003	5.49731E-001	7.06727E-001	-3.08461E-002	-3.93875E-002	6.13912E-001	-4.28396E-002	2.12882E-003	-1.18978E-004	2.01181E-002	2.58635E-002	-1.12885E-003	-1.44143E-003	2.24669E-002	-1.56777E-003
	91	91	1.10043E+000	3.62040E-002	0.00000E+000	3.98398E-002	3.61188E-001	3.52523E-002	3.90466E+001	11	...........	5.88375E-002	-3.26819E-003	5.49742E-001	7.06759E-001	-3.08393E-002	-3.93778E-002	6.13816E-001	-4.28403E-002	2.13015E-003	-1.18322E-004	1.99029E-002	2.55875E-002	-1.11651E-003	-1.42563E-003	2.22226E-002	-1.55099E-003
	92	92	1.10029E+000	3.61790E-002	0.00000E+000	3.98074E-002	3.60938E-001	3.52622E-002	4.00652E+001	11	...........	5.88393E-002	-3.35569E-003	5.49673E-001	7.06633E-001	-3.08175E-002	-3.93651E-002	6.13619E-001	-4.28093E-002	2.12875E-003	-1.21406E-004	1.98866E-002	2.55653E-002	-1.11495E-003	-1.42419E-003	2.22001E-002	-1.54880E-003
	93	93	1.10034E+000	3.62207E-002	0.00000E+000	3.98551E-002	3.61357E-001	3.51454E-002	3.73330E+001	11	...........	5.86517E-002	-3.35125E-003	5.49691E-001	7.06468E-001	-3.08304E-002	-3.93767E-002	6.13707E-001	-4.26715E-002	2.12441E-003	-1.21385E-004	1.99102E-002	2.55888E-002	-1.11670E-003	-1.42625E-003	2.22289E-002	-1.54559E-003
	94	94	1.10042E+000	3.57696E-002	0.00000E+000	3.93618E-002	3.56867E-001	3.45086E-002	3.93746E+001	11	...........	5.75906E-002	-3.27611E-003	5.49508E-001	7.06319E-001	-3.08033E-002	-3.93772E-002	6.13722E-001	-4.26587E-002	2.05999E-003	-1.17185E-004	1.96557E-002	2.52648E-002	-1.10182E-003	-1.40851E-003	2.19526E-002	-1.52589E-003
	95	95	1.10029E+000	3.59012E-002	0.00000E+000	3.95017E-002	3.58175E-001	3.55863E-002	3.84414E+001	11	...........	5.93871E-002	-3.30625E-003	5.49791E-001	7.06266E-001	-3.07918E-002	-3.94110E-002	6.13881E-001	-4.26740E-002	2.13207E-003	-1.18698E-004	1.97382E-002	2.53558E-002	-1.10546E-003	-1.41490E-003	2.20391E-002	-1.53205E-003
	96	96	1.10034E+000	3.59564E-002	0.00000E+000	3.95642E-002	3.58721E-001	3.50365E-002	3.87681E+001	11	...........	5.84732E-002	-3.19611E-003	5.49925E-001	7.06124E-001	-3.08037E-002	-3.94111E-002	6.13930E-001	-4.26864E-002	2.10249E-003	-1.14921E-004	1.97734E-002	2.53897E-002	-1.10759E-003	-1.41708E-003	2.20747E-002	-1.53485E-003
	97	97	1.10043E+000	3.55782E-002	0.00000E+000	3.91512E-002	3.54964E-001	3.49503E-002	3.84298E+001	11	...........	5.83267E-002	-3.16500E-003	5.49967E-001	7.06088E-001	-3.07461E-002	-3.94131E-002	6.13900E-001	-4.26831E-002	2.07516E-003	-1.12605E-004	1.95668E-002	2.51214E-002	-1.09389E-003	-1.40225E-003	2.18415E-002	-1.51859E-003
	98	98	1.10029E+000	3.55272E-002	0.00000E+000	3.90902E-002	3.54458E-001	3.49657E-002	3.88129E+001	11	...........	5.83600E-002	-3.28208E-003	5.49956E-001	7.06203E-001	-3.07718E-002	-3.93964E-002	6.13910E-001	-4.27153E-002	2.07337E-003	-1.16603E-004	1.95384E-002	2.50894E-002	-1.09324E-003	-1.39964E-003	2.18105E-002	-1.51755E-003
	99	99	1.10034E+000	3.56690E-002	0.00000E+000	3.92479E-002	3.55872E-001	3.53603E-002	3.82790E+001	11	...........	5.90178E-002	-3.40389E-003	5.50006E-001	7.06242E-001	-3.07683E-002	-3.94212E-002	6.13871E-001	-4.26950E-002	2.10510E-003	-1.21413E-004	1.96181E-002	2.51909E-002	-1.09747E-003	-1.40612E-003	2.18961E-002	-1.52289E-003
	100	100	1.10043E+000	3.52907E-002	0.00000E+000	3.88349E-002	3.52108E-001	3.47340E-002	3.86867E+001	11	...........	5.79517E-002	-3.35236E-003	5.50007E-001	7.06332E-001	-3.07964E-002	-3.93819E-002	6.13812E-001	-4.27032E-002	2.04515E-003	-1.18307E-004	1.94101E-002	2.49269E-002	-1.08683E-003	-1.38982E-003	2.16618E-002	-1.50702E-003
	101	101	1.10029E+000	3.52178E-002	0.00000E+000	3.87496E-002	3.51382E-001	3.50522E-002	3.74027E+001	11	...........	5.84811E-002	-3.30278E-003	5.49863E-001	7.06304E-001	-3.07800E-002	-3.93849E-002	6.13716E-001	-4.27743E-002	2.05957E-003	-1.16316E-004	1.93649E-002	2.48744E-002	-1.08400E-003	-1.38705E-003	2.16137E-002	-1.50641E-003
	102	102	1.10034E+000	3.53480E-002	0.00000E+000	3.88947E-002	3.52680E-001	3.50052E-002	3.95769E+001	11	...........	5.84104E-002	-3.23542E-003	5.49814E-001	7.06292E-001	-3.07518E-002	-3.93976E-002	6.13702E-001	-4.28317E-002	2.06469E-003	-1.14366E-004	1.94348E-002	2.49660E-002	-1.08702E-003	-1.39263E-003	2.16931E-002	-1.51402E-003
	103	103	1.10043E+000	3.50198E-002	0.00000E+000	3.85369E-002	3.49417E-001	3.51268E-002	3.73934E+001	11	...........	5.86146E-002	-3.29806E-003	5.49807E-001	7.06279E-001	-3.07235E-002	-3.93781E-002	6.13673E-001	-4.28376E-002	2.05267E-003	-1.15497E-004	1.92542E-002	2.47338E-002	-1.07593E-003	-1.37901E-003	2.14907E-002	-1.50017E-003
	104	104	1.10029E+000	3.49400E-002	0.00000E+000	3.84441E-002	3.48619E-001	3.45983E-002	3.72848E+001	11	...........	5.77358E-002	-3.24306E-003	5.49758E-001	7.06272E-001	-3.07322E-002	-3.93497E-002	6.13723E-001	-4.28647E-002	2.01729E-003	-1.13312E-004	1.92086E-002	2.46771E-002	-1.07378E-003	-1.37488E-003	2.14435E-002	-1.49769E-003
	105	105	1.10034E+000	3.50790E-002	0.00000E+000	3.85986E-002	3.50002E-001	3.46537E-002	3.84815E+001	11	...........	5.78260E-002	-3.36431E-003	5.49738E-001	7.06390E-001	-3.07217E-002	-3.93433E-002	6.13804E-001	-4.26760E-002	2.02847E-003	-1.18016E-004	1.92842E-002	2.47794E-002	-1.07768E-003	-1.38012E-003	2.15316E-002	-1.49703E-003
	106	106	1.10042E+000	3.47619E-002	0.00000E+000	3.82528E-002	3.46849E-001	3.53189E-002	3.82865E+001	11	...........	5.89337E-002	-3.34653E-003	5.49720E-001	7.06371E-001	-3.07256E-002	-3.93635E-002	6.13744E-001	-4.26154E-002	2.04865E-003	-1.16332E-004	1.91093E-002	2.45548E-002	-1.06808E-003	-1.36835E-003	2.13349E-002	-1.48139E-003
	107	107	1.10029E+000	3.46811E-002	0.00000E+000	3.81594E-002	3.46042E-001	3.48150E-002	3.90655E+001	11	...........	5.80990E-002	-3.25500E-003	5.49701E-001	7.06372E-001	-3.07037E-002	-3.93889E-002	6.13771E-001	-4.26543E-002	2.01494E-003	-1.12887E-004	1.90643E-002	2.44978E-002	-1.06484E-003	-1.36605E-003	2.12863E-002	-1.47930E-003
	108	108	1.10034E+000	3.47844E-002	0.00000E+000	3.82745E-002	3.47072E-001	3.49108E-002	3.90294E+001	11	...........	5.82636E-002	-3.24431E-003	5.49655E-001	7.06317E-001	-3.06861E-002	-3.93899E-002	6.13771E-001	-4.26408E-002	2.02666E-003	-1.12851E-004	1.91194E-002	2.45688E-002	-1.06740E-003	-1.37015E-003	2.13497E-002	-1.48323E-003
	109	109	1.10042E+000	3.44576E-002	0.00000E+000	3.79179E-002	3.43827E-001	3.50141E-002	3.70404E+001	11	...........	5.84147E-002	-3.30014E-003	5.49519E-001	7.06256E-001	-3.06772E-002	-3.93954E-002	6.13751E-001	-4.26581E-002	2.01283E-003	-1.13715E-004	1.89351E-002	2.43359E-002	-1.05706E-003	-1.35747E-003	2.11484E-002	-1.46989E-003
	110	110	1.10030E+000	3.43821E-002	0.00000E+000	3.78305E-002	3.43072E-001	3.46916E-002	3.84466E+001	11	...........	5.78942E-002	-3.38542E-003	5.49405E-001	7.06360E-001	-3.07037E-002	-3.93937E-002	6.13900E-001	-4.27042E-002	1.99052E-003	-1.16398E-004	1.88897E-002	2.42861E-002	-1.05566E-003	-1.35444E-003	2.11071E-002	-1.46826E-003
	111	111	1.10033E+000	3.45404E-002	0.00000E+000	3.80059E-002	3.44646E-001	3.47092E-002	3.87656E+001	11	...........	5.79306E-002	-3.35347E-003	5.49524E-001	7.06336E-001	-3.07072E-002	-3.93840E-002	6.13908E-001	-4.27221E-002	2.00094E-003	-1.15830E-004	1.89808E-002	2.43971E-002	-1.06064E-003	-1.36034E-003	2.12046E-002	-1.47564E-003
	112	112	1.10043E+000	3.41987E-002	0.00000E+000	3.76331E-002	3.41249E-001	3.50613E-002	3.77662E+001	11	...........	5.85029E-002	-3.19861E-003	5.49607E-001	7.06318E-001	-3.06554E-002	-3.93383E-002	6.13747E-001	-4.26261E-002	2.00072E-003	-1.09388E-004	1.87959E-002	2.41552E-002	-1.04838E-003	-1.34532E-003	2.09894E-002	-1.45776E-003
	113	113	1.10030E+000	3.40881E-002	0.00000E+000	3.75070E-002	3.40145E-001	3.47787E-002	3.89005E+001	11	...........	5.80496E-002	-3.25625E-003	5.49719E-001	7.06435E-001	-3.06743E-002	-3.93272E-002	6.13719E-001	-4.26332E-002	1.97880E-003	-1.10999E-004	1.87389E-002	2.40810E-002	-1.04563E-003	-1.34059E-003	2.09205E-002	-1.45328E-003
	114	114	1.10033E+000	3.42628E-002	0.00000E+000	3.77004E-002	3.41891E-001	3.49859E-002	3.92238E+001	11	...........	5.83828E-002	-3.24222E-003	5.49650E-001	7.06402E-001	-3.06747E-002	-3.93224E-002	6.13677E-001	-4.27183E-002	2.00036E-003	-1.11088E-004	1.88325E-002	2.42033E-002	-1.05100E-003	-1.34729E-003	2.10263E-002	-1.46365E-003
	115	115	1.10042E+000	3.39293E-002	0.00000E+000	3.73366E-002	3.38570E-001	3.45812E-002	3.85252E+001	11	...........	5.77171E-002	-3.31847E-003	5.49624E-001	7.06296E-001	-3.06914E-002	-3.93203E-002	6.13795E-001	-4.26467E-002	1.95830E-003	-1.12593E-004	1.86484E-002	2.39641E-002	-1.04134E-003	-1.33411E-003	2.08256E-002	-1.44697E-003
	116	116	1.10030E+000	3.37681E-002	0.00000E+000	3.71550E-002	3.36968E-001	3.47272E-002	3.75467E+001	11	...........	5.79510E-002	-3.18847E-003	5.49554E-001	7.06318E-001	-3.07017E-002	-3.93469E-002	6.13915E-001	-4.26278E-002	1.95689E-003	-1.07669E-004	1.85574E-002	2.38510E-002	-1.03674E-003	-1.32867E-003	2.07307E-002	-1.43946E-003
	117	117	1.10033E+000	3.39779E-002	0.00000E+000	3.73870E-002	3.39056E-001	3.47622E-002	3.89257E+001	11	...........	5.80196E-002	-3.24736E-003	5.49850E-001	7.06452E-001	-3.07221E-002	-3.93185E-002	6.13904E-001	-4.26567E-002	1.97138E-003	-1.10339E-004	1.86828E-002	2.40038E-002	-1.04387E-003	-1.33596E-003	2.08592E-002	-1.44938E-003
	118	118	1.10042E+000	3.36963E-002	0.00000E+000	3.70801E-002	3.36254E-001	3.49919E-002	3.85346E+001	11	...........	5.83964E-002	-3.31917E-003	5.49872E-001	7.06383E-001	-3.07329E-002	-3.92779E-002	6.13836E-001	-4.27157E-002	1.96774E-003	-1.11844E-004	1.85287E-002	2.38025E-002	-1.03558E-003	-1.32352E-003	2.06840E-002	-1.43936E-003
	119	119	1.10030E+000	3.35319E-002	0.00000E+000	3.68952E-002	3.34622E-001	3.45475E-002	3.84857E+001	11	...........	5.76515E-002	-3.17250E-003	5.49726E-001	7.06405E-001	-3.07332E-002	-3.92635E-002	6.13811E-001	-4.27253E-002	1.93317E-003	-1.06380E-004	1.84334E-002	2.36871E-002	-1.03054E-003	-1.31658E-003	2.05823E-002	-1.43266E-003
	120	120	1.10033E+000	3.36764E-002	0.00000E+000	3.70552E-002	3.36061E-001	3.47335E-002	3.92272E+001	11	...........	5.80294E-002	-3.26042E-003	5.49809E-001	7.06431E-001	-3.07432E-002	-3.92644E-002	6.13744E-001	-4.26657E-002	1.95422E-003	-1.09799E-004	1.85156E-002	2.37901E-002	-1.03532E-003	-1.32229E-003	2.06687E-002	-1.43683E-003
	121	121	1.10042E+000	3.34004E-002	0.00000E+000	3.67545E-002	3.33315E-001	3.46925E-002	3.84589E+001	11	...........	5.78839E-002	-3.26222E-003	5.49722E-001	7.06500E-001	-3.07669E-002	-3.92547E-002	6.13774E-001	-4.26992E-002	1.93334E-003	-1.08960E-004	1.83609E-002	2.35974E-002	-1.02763E-003	-1.31112E-003	2.05003E-002	-1.42617E-003
	122	122	1.10030E+000	3.32455E-002	0.00000E+000	3.65801E-002	3.31775E-001	3.49155E-002	3.80313E+001	11	...........	5.82593E-002	-3.25639E-003	5.49555E-001	7.06449E-001	-3.07535E-002	-3.92696E-002	6.13897E-001	-4.27074E-002	1.93686E-003	-1.08260E-004	1.82702E-002	2.34862E-002	-1.02241E-003	-1.30554E-003	2.04093E-002	-1.41983E-003
	123	123	1.10033E+000	3.33697E-002	0.00000E+000	3.67176E-002	3.33009E-001	3.44814E-002	3.80680E+001	11	...........	5.75492E-002	-3.24639E-003	5.49454E-001	7.06302E-001	-3.07412E-002	-3.92935E-002	6.13760E-001	-4.26783E-002	1.92040E-003	-1.08331E-004	1.83351E-002	2.35691E-002	-1.02583E-003	-1.31121E-003	2.04810E-002	-1.42416E-003
	124	124	1.10042E+000	3.31563E-002	0.00000E+000	3.64858E-002	3.30888E-001	3.48543E-002	3.83945E+001	11	...........	5.81662E-002	-3.33069E-003	5.49445E-001	7.06314E-001	-3.07503E-002	-3.92897E-002	6.13767E-001	-4.25308E-002	1.92858E-003	-1.10433E-004	1.82176E-002	2.34187E-002	-1.01957E-003	-1.30270E-003	2.03502E-002	-1.41016E-003
	125	125	1.10031E+000	3.29525E-002	0.00000E+000	3.62579E-002	3.28856E-001	3.46555E-002	3.76573E+001	11	...........	5.78340E-002	-3.29972E-003	5.49407E-001	7.06603E-001	-3.07611E-002	-3.92882E-002	6.13595E-001	-4.26132E-002	1.90578E-003	-1.08734E-004	1.81044E-002	2.32844E-002	-1.01366E-003	-1.29465E-003	2.02195E-002	-1.40421E-003
	126	126	1.10033E+000	3.31238E-002	0.00000E+000	3.64471E-002	3.30561E-001	3.45786E-002	3.95017E+001	11	...........	5.77231E-002	-3.29542E-003	5.49406E-001	7.06674E-001	-3.07765E-002	-3.92994E-002	6.13658E-001	-4.25975E-002	1.91201E-003	-1.09157E-004	1.81984E-002	2.34078E-002	-1.01944E-003	-1.30175E-003	2.03267E-002	-1.41099E-003
	127	127	1.10042E+000	3.28232E-002	0.00000E+000	3.61192E-002	3.27572E-001	3.43997E-002	3.84867E+001	11	...........	5.74122E-002	-3.34764E-003	5.49400E-001	7.06741E-001	-3.07762E-002	-3.92978E-002	6.13719E-001	-4.26481E-002	1.88446E-003	-1.09880E-004	1.80331E-002	2.31975E-002	-1.01018E-003	-1.28988E-003	2.01442E-002	-1.39985E-003
	128	128	1.10031E+000	3.27157E-002	0.00000E+000	3.59974E-002	3.26506E-001	3.49022E-002	3.77993E+001	11	...........	5.82558E-002	-3.21375E-003	5.49409E-001	7.06748E-001	-3.07778E-002	-3.92951E-002	6.13781E-001	-4.25901E-002	1.90588E-003	-1.05140E-004	1.79743E-002	2.31217E-002	-1.00692E-003	-1.28557E-003	2.00803E-002	-1.39336E-003
	129	129	1.10033E+000	3.28174E-002	0.00000E+000	3.61100E-002	3.27516E-001	3.44637E-002	3.82836E+001	11	...........	5.75200E-002	-3.18736E-003	5.49266E-001	7.06825E-001	-3.07887E-002	-3.92785E-002	6.13732E-001	-4.26731E-002	1.88766E-003	-1.04601E-004	1.80255E-002	2.31962E-002	-1.01041E-003	-1.28902E-003	2.01411E-002	-1.40042E-003
	130	130	1.10041E+000	3.26051E-002	0.00000E+000	3.58791E-002	3.25404E-001	3.48602E-002	3.67876E+001	11	...........	5.81754E-002	-3.21278E-003	5.49411E-001	7.06671E-001	-3.07944E-002	-3.92800E-002	6.13781E-001	-4.27339E-002	1.89682E-003	-1.04753E-004	1.79136E-002	2.30411E-002	-1.00406E-003	-1.28073E-003	2.00124E-002	-1.39334E-003
	131	131	1.10031E+000	3.23813E-002	0.00000E+000	3.56296E-002	3.23180E-001	3.41856E-002	3.76118E+001	11	...........	5.70510E-002	-3.16028E-003	5.49274E-001	7.06803E-001	-3.07953E-002	-3.92546E-002	6.13775E-001	-4.27286E-002	1.84739E-003	-1.02334E-004	1.77862E-002	2.28872E-002	-9.97192E-004	-1.27112E-003	1.98749E-002	-1.38361E-003
	132	132	1.10033E+000	3.26282E-002	0.00000E+000	3.59017E-002	3.25635E-001	3.46549E-002	3.89635E+001	11	...........	5.78121E-002	-3.15069E-003	5.49275E-001	7.06890E-001	-3.07918E-002	-3.92521E-002	6.13838E-001	-4.26919E-002	1.88630E-003	-1.02801E-004	1.79218E-002	2.30645E-002	-1.00468E-003	-1.28072E-003	2.00284E-002	-1.39296E-003
	133	133	1.10041E+000	3.23261E-002	0.00000E+000	3.55719E-002	3.22629E-001	3.46985E-002	3.87005E+001	11	...........	5.79042E-002	-3.15736E-003	5.49412E-001	7.06911E-001	-3.07928E-002	-3.92346E-002	6.13769E-001	-4.26449E-002	1.87181E-003	-1.02065E-004	1.77603E-002	2.28516E-002	-9.95409E-004	-1.26830E-003	1.98407E-002	-1.37854E-003
	134	134	1.10032E+000	3.21670E-002	0.00000E+000	3.53939E-002	3.21047E-001	3.48867E-002	3.75901E+001	11	...........	5.82122E-002	-3.13861E-003	5.49455E-001	7.06837E-001	-3.07950E-002	-3.92246E-002	6.13795E-001	-4.26161E-002	1.87251E-003	-1.00960E-004	1.76743E-002	2.27369E-002	-9.90584E-004	-1.26174E-003	1.97440E-002	-1.37083E-003
	135	135	1.10033E+000	3.23403E-002	0.00000E+000	3.55849E-002	3.22770E-001	3.42932E-002	3.92219E+001	11	...........	5.72429E-002	-3.15597E-003	5.49379E-001	7.06777E-001	-3.08210E-002	-3.92397E-002	6.13860E-001	-4.27594E-002	1.85126E-003	-1.02065E-004	1.77671E-002	2.28574E-002	-9.96761E-004	-1.26903E-003	1.98524E-002	-1.38286E-003
	136	136	1.10041E+000	3.20267E-002	0.00000E+000	3.52425E-002	3.19657E-001	3.43898E-002	3.73541E+001	11	...........	5.73989E-002	-3.16458E-003	5.49458E-001	7.06826E-001	-3.08275E-002	-3.92504E-002	6.13782E-001	-4.27511E-002	1.83830E-003	-1.01351E-004	1.75973E-002	2.26373E-002	-9.87304E-004	-1.25706E-003	1.96575E-002	-1.36918E-003
	137	137	1.10032E+000	3.18666E-002	0.00000E+000	3.50634E-002	3.18061E-001	3.47450E-002	3.75536E+001	11	...........	5.79762E-002	-3.30819E-003	5.49420E-001	7.06835E-001	-3.08206E-002	-3.92524E-002	6.13746E-001	-4.26507E-002	1.84751E-003	-1.05421E-004	1.75081E-002	2.25244E-002	-9.82146E-004	-1.25084E-003	1.95580E-002	-1.35913E-003
	138	138	1.10032E+000	3.20746E-002	0.00000E+000	3.52924E-002	3.20130E-001	3.42547E-002	3.92431E+001	11	...........	5.71617E-002	-3.38361E-003	5.49320E-001	7.06762E-001	-3.08275E-002	-3.92531E-002	6.13791E-001	-4.26399E-002	1.83344E-003	-1.08528E-004	1.76192E-002	2.26691E-002	-9.88779E-004	-1.25903E-003	1.96871E-002	-1.36766E-003
	139	139	1.10041E+000	3.18765E-002	0.00000E+000	3.50771E-002	3.18162E-001	3.46225E-002	3.76386E+001	11	...........	5.77750E-002	-3.33514E-003	5.49508E-001	7.06724E-001	-3.08356E-002	-3.92832E-002	6.13811E-001	-4.26451E-002	1.84166E-003	-1.06312E-004	1.75164E-002	2.25279E-002	-9.82928E-004	-1.25221E-003	1.95661E-002	-1.35938E-003
	140	140	1.10032E+000	3.15744E-002	0.00000E+000	3.47420E-002	3.15158E-001	3.42707E-002	3.85159E+001	11	...........	5.71686E-002	-3.26208E-003	5.49560E-001	7.06553E-001	-3.08372E-002	-3.92957E-002	6.13784E-001	-4.27693E-002	1.80507E-003	-1.02998E-004	1.73520E-002	2.23090E-002	-9.73667E-004	-1.24074E-003	1.93799E-002	-1.35042E-003
	141	141	1.10033E+000	3.17664E-002	0.00000E+000	3.49534E-002	3.17066E-001	3.42330E-002	3.83510E+001	11	...........	5.71244E-002	-3.19833E-003	5.49690E-001	7.06568E-001	-3.08500E-002	-3.92722E-002	6.13631E-001	-4.27697E-002	1.81464E-003	-1.01600E-004	1.74617E-002	2.24451E-002	-9.79995E-004	-1.24754E-003	1.94929E-002	-1.35864E-003
	142	142	1.10041E+000	3.16533E-002	0.00000E+000	3.48315E-002	3.15945E-001	3.47169E-002	3.80408E+001	11	...........	5.79415E-002	-3.20208E-003	5.49713E-001	7.06636E-001	-3.08471E-002	-3.92868E-002	6.13775E-001	-4.27656E-002	1.83404E-003	-1.01357E-004	1.74002E-002	2.23674E-002	-9.76413E-004	-1.24356E-003	1.94280E-002	-1.35367E-003
	143	143	1.10032E+000	3.13313E-002	0.00000E+000	3.44746E-002	3.12742E-001	3.44269E-002	3.79650E+001	11	...........	5.74697E-002	-3.27764E-003	5.49792E-001	7.06597E-001	-3.08374E-002	-3.92962E-002	6.13790E-001	-4.27768E-002	1.80060E-003	-1.02693E-004	1.72257E-002	2.21386E-002	-9.66174E-004	-1.23120E-003	1.92308E-002	-1.34025E-003
	144	144	1.10032E+000	3.15366E-002	0.00000E+000	3.47004E-002	3.14780E-001	3.44237E-002	3.89261E+001	11	...........	5.74435E-002	-3.26194E-003	5.49806E-001	7.06691E-001	-3.08442E-002	-3.92832E-002	6.13849E-001	-4.27742E-002	1.81157E-003	-1.02870E-004	1.73390E-002	2.22866E-002	-9.72719E-004	-1.23886E-003	1.93587E-002	-1.34895E-003
	145	145	1.10040E+000	3.13363E-002	0.00000E+000	3.44825E-002	3.12789E-001	3.41888E-002	3.85826E+001	11	...........	5.70474E-002	-3.19611E-003	5.49818E-001	7.06621E-001	-3.08243E-002	-3.92879E-002	6.13699E-001	-4.28614E-002	1.78765E-003	-1.00154E-004	1.72293E-002	2.21429E-002	-9.65920E-004	-1.23114E-003	1.92311E-002	-1.34312E-003
	146	146	1.10033E+000	3.10829E-002	0.00000E+000	3.42015E-002	3.10270E-001	3.46828E-002	3.74778E+001	11	...........	5.78751E-002	-3.09556E-003	5.49756E-001	7.06633E-001	-3.08144E-002	-3.92965E-002	6.13644E-001	-4.28104E-002	1.79893E-003	-9.62190E-005	1.70880E-002	2.19642E-002	-9.57804E-004	-1.22145E-003	1.90739E-002	-1.33067E-003
	147	147	1.10032E+000	3.12527E-002	0.00000E+000	3.43880E-002	3.11955E-001	3.43512E-002	3.79377E+001	11	...........	5.73315E-002	-3.24333E-003	5.49576E-001	7.06594E-001	-3.08261E-002	-3.93064E-002	6.13650E-001	-4.27106E-002	1.79177E-003	-1.01363E-004	1.71758E-002	2.20830E-002	-9.63400E-004	-1.22843E-003	1.91782E-002	-1.33482E-003
	148	148	1.10040E+000	3.11588E-002	0.00000E+000	3.42871E-002	3.11025E-001	3.44962E-002	3.87874E+001	11	...........	5.75583E-002	-3.32236E-003	5.49267E-001	7.06602E-001	-3.08089E-002	-3.93203E-002	6.13569E-001	-4.27183E-002	1.79345E-003	-1.03521E-004	1.71145E-002	2.20168E-002	-9.59967E-004	-1.22517E-003	1.91181E-002	-1.33105E-003
	149	149	1.10033E+000	3.07672E-002	0.00000E+000	3.38542E-002	3.07131E-001	3.39201E-002	3.83012E+001	11	...........	5.66126E-002	-3.29764E-003	5.49334E-001	7.06619E-001	-3.08083E-002	-3.93165E-002	6.13660E-001	-4.27026E-002	1.74181E-003	-1.01459E-004	1.69015E-002	2.17407E-002	-9.47886E-004	-1.20966E-003	1.88806E-002	-1.31384E-003
	150	150	1.10032E+000	3.10187E-002	0.00000E+000	3.41305E-002	3.09629E-001	3.47578E-002	3.73715E+001	11	...........	5.79904E-002	-3.23069E-003	5.49463E-001	7.06695E-001	-3.08264E-002	-3.93197E-002	6.13591E-001	-4.26733E-002	1.79879E-003	-1.00212E-004	1.70436E-002	2.19208E-002	-9.56194E-004	-1.21965E-003	1.90328E-002	-1.32367E-003
	151	151	1.10040E+000	3.09273E-002	0.00000E+000	3.40324E-002	3.08723E-001	3.42407E-002	3.97302E+001	11	...........	5.71492E-002	-3.26611E-003	5.49279E-001	7.06727E-001	-3.08099E-002	-3.93015E-002	6.13721E-001	-4.26243E-002	1.76747E-003	-1.01012E-004	1.69877E-002	2.18572E-002	-9.52865E-004	-1.21549E-003	1.89807E-002	-1.31825E-003
	152	152	1.10033E+000	3.05277E-002	0.00000E+000	3.35907E-002	3.04751E-001	3.42833E-002	3.82184E+001	11	...........	5.71911E-002	-3.28819E-003	5.49423E-001	7.06723E-001	-3.08061E-002	-3.93042E-002	6.13849E-001	-4.27082E-002	1.74591E-003	-1.00381E-004	1.67726E-002	2.15746E-002	-9.40441E-004	-1.19987E-003	1.87394E-002	-1.30378E-003
	153	153	1.10032E+000	3.07761E-002	0.00000E+000	3.38636E-002	3.07221E-001	3.44117E-002	3.84772E+001	11	...........	5.74374E-002	-3.18472E-003	5.49597E-001	7.06601E-001	-3.08050E-002	-3.93167E-002	6.13783E-001	-4.27733E-002	1.76770E-003	-9.80135E-005	1.69145E-002	2.17465E-002	-9.48059E-004	-1.21002E-003	1.88899E-002	-1.31640E-003
	154	154	1.10040E+000	3.07087E-002	0.00000E+000	3.37917E-002	3.06554E-001	3.44867E-002	3.89827E+001	11	...........	5.75482E-002	-3.24875E-003	5.49639E-001	7.06537E-001	-3.08164E-002	-3.93003E-002	6.13760E-001	-4.26561E-002	1.76723E-003	-9.97650E-005	1.68787E-002	2.16968E-002	-9.46332E-004	-1.20686E-003	1.88478E-002	-1.30992E-003
	155	155	1.10034E+000	3.03699E-002	0.00000E+000	3.34171E-002	3.03184E-001	3.42862E-002	3.92018E+001	11	...........	5.72346E-002	-3.28542E-003	5.49621E-001	7.06448E-001	-3.08442E-002	-3.92874E-002	6.13723E-001	-4.25435E-002	1.73821E-003	-9.97777E-005	1.66919E-002	2.14547E-002	-9.36733E-004	-1.19315E-003	1.86387E-002	-1.29204E-003
	156	156	1.10032E+000	3.05309E-002	0.00000E+000	3.35938E-002	3.04783E-001	3.41421E-002	3.79925E+001	11	...........	5.69871E-002	-3.17889E-003	5.49572E-001	7.06491E-001	-3.08328E-002	-3.92919E-002	6.13709E-001	-4.24964E-002	1.73987E-003	-9.70543E-005	1.67789E-002	2.15698E-002	-9.41353E-004	-1.19962E-003	1.87371E-002	-1.29745E-003
	157	157	1.10039E+000	3.04787E-002	0.00000E+000	3.35386E-002	3.04267E-001	3.43909E-002	3.81150E+001	11	...........	5.73822E-002	-3.32903E-003	5.49441E-001	7.06161E-001	-3.08167E-002	-3.93094E-002	6.13724E-001	-4.25967E-002	1.74894E-003	-1.01465E-004	1.67463E-002	2.15229E-002	-9.39253E-004	-1.19810E-003	1.87055E-002	-1.29829E-003
	158	158	1.10034E+000	3.01195E-002	0.00000E+000	3.31417E-002	3.00698E-001	3.42776E-002	3.86156E+001	11	...........	5.72176E-002	-3.36708E-003	5.49456E-001	7.06186E-001	-3.08482E-002	-3.93028E-002	6.13827E-001	-4.24342E-002	1.72337E-003	-1.01415E-004	1.65494E-002	2.12700E-002	-9.29134E-004	-1.18378E-003	1.84882E-002	-1.27810E-003
	159	159	1.10032E+000	3.02714E-002	0.00000E+000	3.33083E-002	3.02207E-001	3.40311E-002	3.80881E+001	11	...........	5.67910E-002	-3.29597E-003	5.49425E-001	7.06435E-001	-3.08649E-002	-3.93217E-002	6.13857E-001	-4.25601E-002	1.71914E-003	-9.97738E-005	1.66319E-002	2.13848E-002	-9.34324E-004	-1.19032E-003	1.85823E-002	-1.28836E-003
	160	160	1.10039E+000	3.02300E-002	0.00000E+000	3.32648E-002	3.01793E-001	3.43871E-002	3.88605E+001	11	...........	5.73981E-002	-3.28264E-003	5.49564E-001	7.06611E-001	-3.08612E-002	-3.93369E-002	6.13744E-001	-4.25414E-002	1.73514E-003	-9.92341E-005	1.66133E-002	2.13608E-002	-9.32935E-004	-1.18916E-003	1.85535E-002	-1.28603E-003
	161	161	1.10034E+000	2.99045E-002	0.00000E+000	3.29053E-002	2.98558E-001	3.42045E-002	3.86003E+001	11	...........	5.70479E-002	-3.32944E-003	5.49524E-001	7.06567E-001	-3.08386E-002	-3.93328E-002	6.13688E-001	-4.25687E-002	1.70599E-003	-9.95655E-005	1.64333E-002	2.11295E-002	-9.22214E-004	-1.17623E-003	1.83520E-002	-1.27300E-003
	162	162	1.10032E+000	3.00052E-002	0.00000E+000	3.30153E-002	2.99555E-001	3.41062E-002	3.90175E+001	11	...........	5.69157E-002	-3.32611E-003	5.49447E-001	7.06440E-001	-3.08732E-002	-3.93121E-002	6.13667E-001	-4.25801E-002	1.70777E-003	-9.98005E-005	1.64863E-002	2.11969E-002	-9.26356E-004	-1.17957E-003	1.84132E-002	-1.27762E-003
	163	163	1.10039E+000	2.99677E-002	0.00000E+000	3.29762E-002	2.99182E-001	3.40995E-002	3.88034E+001	11	...........	5.69083E-002	-3.31681E-003	5.49623E-001	7.06592E-001	-3.08601E-002	-3.93212E-002	6.13646E-001	-4.25871E-002	1.70541E-003	-9.93970E-005	1.64709E-002	2.11749E-002	-9.24807E-004	-1.17837E-003	1.83896E-002	-1.27624E-003
	164	164	1.10034E+000	2.96407E-002	0.00000E+000	3.26150E-002	2.95934E-001	3.42768E-002	3.85839E+001	11	...........	5.72115E-002	-3.41069E-003	5.49790E-001	7.06773E-001	-3.08712E-002	-3.92860E-002	6.13796E-001	-4.25875E-002	1.69579E-003	-1.01095E-004	1.62962E-002	2.09493E-002	-9.15046E-004	-1.16446E-003	1.81934E-002	-1.26232E-003
	165	165	1.10032E+000	2.97421E-002	0.00000E+000	3.27257E-002	2.96938E-001	3.38881E-002	3.82619E+001	11	...........	5.65621E-002	-3.24250E-003	5.49839E-001	7.06708E-001	-3.08787E-002	-3.92679E-002	6.13791E-001	-4.26256E-002	1.68227E-003	-9.64386E-005	1.63533E-002	2.10190E-002	-9.18398E-004	-1.16791E-003	1.82554E-002	-1.26777E-003
	166	166	1.10039E+000	2.96904E-002	0.00000E+000	3.26710E-002	2.96425E-001	3.40980E-002	3.84752E+001	11	...........	5.69061E-002	-3.29819E-003	5.49891E-001	7.06631E-001	-3.08640E-002	-3.92428E-002	6.13696E-001	-4.25954E-002	1.68957E-003	-9.79248E-005	1.63265E-002	2.09802E-002	-9.16366E-004	-1.16513E-003	1.82209E-002	-1.26468E-003
	167	167	1.10035E+000	2.93687E-002	0.00000E+000	3.23159E-002	2.93226E-001	3.46646E-002	3.82817E+001	11	...........	5.78492E-002	-3.45722E-003	5.50080E-001	7.06593E-001	-3.09087E-002	-3.92112E-002	6.13799E-001	-4.25754E-002	1.69895E-003	-1.01534E-004	1.61551E-002	2.07517E-002	-9.07750E-004	-1.15158E-003	1.80265E-002	-1.25038E-003
	168	168	1.10032E+000	2.95406E-002	0.00000E+000	3.25040E-002	2.94939E-001	3.39242E-002	3.72337E+001	11	...........	5.66196E-002	-3.35542E-003	5.50188E-001	7.06489E-001	-3.09217E-002	-3.92426E-002	6.13879E-001	-4.25450E-002	1.67258E-003	-9.91210E-005	1.62529E-002	2.08701E-002	-9.13445E-004	-1.15925E-003	1.81344E-002	-1.25680E-003
	169	169	1.10038E+000	2.94627E-002	0.00000E+000	3.24203E-002	2.94164E-001	3.40850E-002	3.92064E+001	11	...........	5.68814E-002	-3.31472E-003	5.50190E-001	7.06557E-001	-3.09162E-002	-3.92576E-002	6.13858E-001	-4.26329E-002	1.67588E-003	-9.76605E-005	1.62101E-002	2.08170E-002	-9.10875E-004	-1.15663E-003	1.80859E-002	-1.25608E-003
	170	169.78	1.10038E+000	2.91679E-002	0.00000E+000	3.20960E-002	2.91235E-001	3.43623E-002	3.81690E+001	11	...........	5.73463E-002	-3.22400E-003	5.50092E-001	7.06588E-001	-3.08930E-002	-3.92717E-002	6.13838E-001	-4.27179E-002	1.67267E-003	-9.40375E-005	1.60451E-002	2.06097E-002	-9.01085E-004	-1.14548E-003	1.79044E-002	-1.24599E-003
STARTTIMEOFFSET	QUANT	419611.3	Start Time Offset (s)
