EXPLAIN
TAG	PWR800_CHARGE
TITLE	LABEL	PWR Charge	Test Identifier
DATE	LABEL	10/14/2022	Date
TIME	LABEL	3:18:45	Time
NOTES	NOTES	1	Notes...
	
PSTAT	PSTAT	REF3000-21114	Potentiostat
CAPACITY	QUANT	5.30000E-002	Capacity (A-hr)
CELLTYPE	SELECTOR	1	Cell Type
WORKINGCONNECTION	SELECTOR	0	Working Connection
MAXCHARGETIME	VARIABLEANDUNITS	7.20000E+003	s	2.00000E+000	hour(s)	Max Charge Time
CHARGEMODE	MULTIPARAM	0	1.00000E-001	Charge Mode	Constant Current	Amp(s)
CHARGECURRENT	QUANT	0.1	Charge Current (A)
VOLTAGEFINISH	TWOPARAM	T	2.50000E-002	7.20000E+003	Voltage Finish	I (A) <	Max Time(s)
SAMPLETIME	QUANT	1.00000E+000	Sample Period (s)
CHARGESTOPAT1	MULTIPARAM	2	1.10000E+000	Stop At 1	|Voltage| > Limit	V
CHARGESTOPAT2	MULTIPARAM	0	0.00000E+000	Stop At 2	None	N/A
AESELECTOR	AESELECTOR	0x1	T	Set Limits	AE Channels
AESBHCSELECTOR	TOGGLE	F	Save Both Half Cells
IRCOMP	TOGGLE	F	IR Measure
EOC	QUANT	0.2232288	Open Circuit (V)
SEQUENCER	TOGGLE	TRUE	Run as Sequence
PSTATMODEL	IQUANT	5	Pstat Model
PSTATSECTION	LABEL	REF3000-21114	Pstat Section
PSTATSERIALNO	LABEL	21114	Pstat Serial Number
CTRLMODE	IQUANT	0	Control Mode
ELECTROMETER	IQUANT	0	RE=0 or CS=1
IESTAB	IQUANT	0	I/E Stability
CASPEED	IQUANT	4	Control Amp Speed
CONVENTION	IQUANT	1	Current Convention
ICHRANGE	IQUANT	2	Ich Range
ICHRANGEMODE	TOGGLE	T	Ich Auto Range
ICHOFFSETENABLE	TOGGLE	F	Ich Offset Enable
ICHOFFSET	QUANT	0	Ich Offset (V)
ICHFILTER	IQUANT	1	Ich Filter
VCHRANGE	IQUANT	3	Vch Range
VCHRANGEMODE	TOGGLE	T	Vch Auto Range
VCHOFFSETENABLE	TOGGLE	F	Vch Offset Enable
VCHOFFSET	QUANT	0	Vch Offset (V)
VCHFILTER	IQUANT	1	Vch Filter
ACHRANGE	IQUANT	2	Ach Range
ACHOFFSETENABLE	TOGGLE	F	Ach Offset Enable
ACHOFFSET	QUANT	0	Ach Offset (V)
ACHFILTER	IQUANT	1	Ach Filter
IERANGELOWERLIMIT	IQUANT	9	I/E Range Lower Limit
IERANGEMODE	TOGGLE	F	I/E AutoRange
IERANGE	IQUANT	9	I/E Range
POSFEEDENABLE	TOGGLE	F	Positive Feedback IR Comp
POSFEEDRESISTANCE	QUANT	0	Positive Feedback Resistance (ohm)
ACHSELECT	IQUANT	1	Ach Select
SENSECABLEID	IQUANT	13	Sense Cable ID
PWRCABLEID	IQUANT	13	Power Cable ID
DCCALDATE	LABEL		DC Calibration Date
ACCALDATE	LABEL		AC Calibration Date
THERMOSELECT	IQUANT	1	Thermo Select
FRAMEWORKVERSION	LABEL	7.8.6	Framework Version
INSTRUMENTVERSION	LABEL	4.50	Instrument Version
COMPLIANCEVOLTAGE	IQUANT	0	Compliance Voltage
CURVE	TABLE	229
	Pt	T	Vf	Im	Vu	Pwr	Sig	Ach	Temp	IERange	Over	Vf1	Vf2	Vf3	Vf4	Vf5	Vf6	Vf7	Vf8	Pwr1	Pwr2	Pwr3	Pwr4	Pwr5	Pwr6	Pwr7	Pwr8
	#	s	V	A	V	W	V	V	deg C	#	bits	V	V	V	V	V	V	V	V	W	W	W	W	W	W	W	W
	0	1	4.95405E-001	9.98514E-002	0.00000E+000	4.94669E-002	9.94000E-001	4.33982E-002	4.21470E+001	11	...........	7.20708E-002	-5.26847E-003	6.06248E-001	5.40886E-001	-2.70137E-002	-3.82072E-002	7.06144E-001	-4.36940E-002	7.19637E-003	-5.26064E-004	6.05347E-002	5.40082E-002	-2.69736E-003	-3.81504E-003	7.05095E-002	-4.36291E-003
	1	2	6.34726E-001	9.98522E-002	0.00000E+000	6.33788E-002	9.94000E-001	4.35768E-002	4.37392E+001	11	...........	7.24112E-002	-5.32542E-003	6.06232E-001	5.40813E-001	-2.69956E-002	-3.82003E-002	7.06118E-001	-4.37122E-002	7.23042E-003	-5.31755E-004	6.05336E-002	5.40014E-002	-2.69557E-003	-3.81438E-003	7.05074E-002	-4.36476E-003
	2	3	8.38766E-001	9.98527E-002	0.00000E+000	8.37530E-002	9.94000E-001	4.40942E-002	4.73824E+001	11	...........	7.32374E-002	-5.41514E-003	6.06288E-001	5.40977E-001	-2.69779E-002	-3.82285E-002	7.06142E-001	-4.37639E-002	7.31295E-003	-5.40716E-004	6.05395E-002	5.40181E-002	-2.69382E-003	-3.81722E-003	7.05102E-002	-4.36994E-003
	3	3.23833	1.05661E+000	9.98540E-002	0.00000E+000	1.05507E-001	9.94000E-001	4.45850E-002	5.22536E+001	11	...........	7.40466E-002	-5.52040E-003	6.06439E-001	5.41062E-001	-2.69883E-002	-3.82395E-002	7.06104E-001	-4.36859E-002	7.39385E-003	-5.51234E-004	6.05554E-002	5.40272E-002	-2.69489E-003	-3.81837E-003	7.05073E-002	-4.36221E-003
	4	4	1.10064E+000	7.48794E-002	0.00000E+000	8.24151E-002	7.45686E-001	4.41814E-002	5.25526E+001	11	...........	7.34066E-002	-5.47009E-003	6.06451E-001	5.41066E-001	-2.70186E-002	-3.82505E-002	7.06143E-001	-4.36628E-002	5.49664E-003	-4.09597E-004	4.54107E-002	4.05147E-002	-2.02314E-003	-2.86418E-003	5.28755E-002	-3.26945E-003
	5	5	1.10025E+000	6.08480E-002	0.00000E+000	6.69479E-002	6.06159E-001	4.41741E-002	5.00467E+001	11	...........	7.33812E-002	-5.44444E-003	6.06432E-001	5.41149E-001	-2.70360E-002	-3.82297E-002	7.06102E-001	-4.36381E-002	4.46510E-003	-3.31284E-004	3.69002E-002	3.29278E-002	-1.64509E-003	-2.32620E-003	4.29649E-002	-2.65529E-003
	6	6	1.10027E+000	5.52632E-002	0.00000E+000	6.08045E-002	5.50625E-001	4.36325E-002	4.85754E+001	11	...........	7.24846E-002	-5.30167E-003	6.06392E-001	5.41152E-001	-2.70286E-002	-3.82214E-002	7.05939E-001	-4.36032E-002	4.00573E-003	-2.92987E-004	3.35112E-002	2.99058E-002	-1.49369E-003	-2.11224E-003	3.90125E-002	-2.40965E-003
	7	7	1.10009E+000	5.31528E-002	0.00000E+000	5.84727E-002	5.29640E-001	4.43496E-002	5.06130E+001	11	...........	7.36697E-002	-5.21431E-003	6.06263E-001	5.41105E-001	-2.70042E-002	-3.82044E-002	7.05960E-001	-4.35753E-002	3.91575E-003	-2.77155E-004	3.22246E-002	2.87612E-002	-1.43535E-003	-2.03067E-003	3.75238E-002	-2.31615E-003
	8	8	1.10017E+000	5.18267E-002	0.00000E+000	5.70180E-002	5.16453E-001	4.40419E-002	5.07243E+001	11	...........	7.31408E-002	-5.24875E-003	6.06053E-001	5.41247E-001	-2.70118E-002	-3.82106E-002	7.06006E-001	-4.35246E-002	3.79065E-003	-2.72025E-004	3.14097E-002	2.80511E-002	-1.39993E-003	-1.98033E-003	3.65900E-002	-2.25574E-003
	9	9	1.10024E+000	5.04228E-002	0.00000E+000	5.54773E-002	5.02490E-001	4.40834E-002	4.92542E+001	11	...........	7.31956E-002	-5.25278E-003	6.05875E-001	5.41225E-001	-2.69890E-002	-3.82283E-002	7.06062E-001	-4.35626E-002	3.69072E-003	-2.64860E-004	3.05499E-002	2.72901E-002	-1.36086E-003	-1.92758E-003	3.56016E-002	-2.19655E-003
	10	10	1.10007E+000	5.00002E-002	0.00000E+000	5.50039E-002	4.98290E-001	4.39973E-002	5.00921E+001	11	...........	7.30674E-002	-5.18611E-003	6.05804E-001	5.41183E-001	-2.70186E-002	-3.82322E-002	7.06166E-001	-4.37256E-002	3.65338E-003	-2.59307E-004	3.02903E-002	2.70593E-002	-1.35094E-003	-1.91162E-003	3.53084E-002	-2.18629E-003
	11	11	1.10015E+000	4.96776E-002	0.00000E+000	5.46530E-002	4.95086E-001	4.40383E-002	5.01632E+001	11	...........	7.31544E-002	-5.24875E-003	6.05874E-001	5.41264E-001	-2.70544E-002	-3.82107E-002	7.06210E-001	-4.36724E-002	3.63414E-003	-2.60745E-004	3.00983E-002	2.68887E-002	-1.34400E-003	-1.89822E-003	3.50828E-002	-2.16954E-003
	12	12	1.10024E+000	4.88567E-002	0.00000E+000	5.37541E-002	4.86922E-001	4.40298E-002	5.00294E+001	11	...........	7.31200E-002	-5.24417E-003	6.05875E-001	5.41384E-001	-2.70593E-002	-3.82515E-002	7.06177E-001	-4.37029E-002	3.57240E-003	-2.56213E-004	2.96010E-002	2.64502E-002	-1.32203E-003	-1.86884E-003	3.45015E-002	-2.13518E-003
	13	13	1.10007E+000	4.87154E-002	0.00000E+000	5.35906E-002	4.85520E-001	4.39830E-002	4.68644E+001	11	...........	7.30589E-002	-5.27500E-003	6.05646E-001	5.41388E-001	-2.70649E-002	-3.82256E-002	7.06125E-001	-4.37932E-002	3.55909E-003	-2.56974E-004	2.95043E-002	2.63739E-002	-1.31848E-003	-1.86217E-003	3.43991E-002	-2.13340E-003
	14	14	1.10014E+000	4.85740E-002	0.00000E+000	5.34384E-002	4.84113E-001	4.35633E-002	4.82933E+001	11	...........	7.23694E-002	-5.08889E-003	6.05577E-001	5.41484E-001	-2.70469E-002	-3.82186E-002	7.06054E-001	-4.37111E-002	3.51528E-003	-2.47188E-004	2.94153E-002	2.63021E-002	-1.31378E-003	-1.85643E-003	3.42959E-002	-2.12323E-003
	15	15	1.10024E+000	4.80794E-002	0.00000E+000	5.28989E-002	4.79196E-001	4.41542E-002	4.99974E+001	11	...........	7.33261E-002	-5.15708E-003	6.05726E-001	5.41517E-001	-2.70326E-002	-3.82335E-002	7.06157E-001	-4.37433E-002	3.52547E-003	-2.47949E-004	2.91229E-002	2.60358E-002	-1.29971E-003	-1.83824E-003	3.39516E-002	-2.10315E-003
	16	16	1.10007E+000	4.79924E-002	0.00000E+000	5.27950E-002	4.78337E-001	4.39142E-002	4.99430E+001	11	...........	7.29465E-002	-5.14292E-003	6.05773E-001	5.41398E-001	-2.70375E-002	-3.82421E-002	7.06053E-001	-4.37340E-002	3.50088E-003	-2.46821E-004	2.90725E-002	2.59830E-002	-1.29759E-003	-1.83533E-003	3.38852E-002	-2.09890E-003
	17	17	1.10014E+000	4.80373E-002	0.00000E+000	5.28479E-002	4.78781E-001	4.37782E-002	4.92728E+001	11	...........	7.27336E-002	-5.23111E-003	6.05799E-001	5.41302E-001	-2.70411E-002	-3.82331E-002	7.06124E-001	-4.38207E-002	3.49392E-003	-2.51288E-004	2.91009E-002	2.60027E-002	-1.29898E-003	-1.83661E-003	3.39203E-002	-2.10503E-003
	18	18	1.10024E+000	4.74723E-002	0.00000E+000	5.22310E-002	4.73163E-001	4.38713E-002	4.94922E+001	11	...........	7.28574E-002	-5.25667E-003	6.05814E-001	5.41373E-001	-2.70447E-002	-3.82354E-002	7.06027E-001	-4.39644E-002	3.45871E-003	-2.49546E-004	2.87594E-002	2.57003E-002	-1.28388E-003	-1.81512E-003	3.35167E-002	-2.08709E-003
	19	19	1.10007E+000	4.74663E-002	0.00000E+000	5.22163E-002	4.73108E-001	4.37873E-002	4.96366E+001	11	...........	7.27340E-002	-5.25847E-003	6.05867E-001	5.41487E-001	-2.70053E-002	-3.82336E-002	7.06139E-001	-4.38971E-002	3.45241E-003	-2.49600E-004	2.87583E-002	2.57024E-002	-1.28184E-003	-1.81481E-003	3.35178E-002	-2.08363E-003
	20	20	1.10014E+000	4.75341E-002	0.00000E+000	5.22942E-002	4.73782E-001	4.36244E-002	4.97320E+001	11	...........	7.26960E-002	-5.30889E-003	6.05848E-001	5.41478E-001	-2.70078E-002	-3.82456E-002	7.06116E-001	-4.38229E-002	3.45554E-003	-2.52353E-004	2.87984E-002	2.57387E-002	-1.28379E-003	-1.81797E-003	3.35646E-002	-2.08308E-003
	21	21	1.10025E+000	4.70032E-002	0.00000E+000	5.17151E-002	4.68502E-001	4.35217E-002	4.96648E+001	11	...........	7.26626E-002	-5.30444E-003	6.05777E-001	5.41416E-001	-2.70057E-002	-3.82196E-002	7.06177E-001	-4.38815E-002	3.41538E-003	-2.49326E-004	2.84734E-002	2.54483E-002	-1.26935E-003	-1.79644E-003	3.31926E-002	-2.06257E-003
	22	22	1.10007E+000	4.69736E-002	0.00000E+000	5.16742E-002	4.68209E-001	4.35047E-002	4.96979E+001	11	...........	7.26485E-002	-5.24792E-003	6.05742E-001	5.41413E-001	-2.70062E-002	-3.82171E-002	7.06108E-001	-4.38465E-002	3.41256E-003	-2.46514E-004	2.84539E-002	2.54321E-002	-1.26858E-003	-1.79519E-003	3.31685E-002	-2.05963E-003
	23	23	1.10014E+000	4.69983E-002	0.00000E+000	5.17046E-002	4.68457E-001	4.33109E-002	4.76764E+001	11	...........	7.23049E-002	-5.22014E-003	6.05631E-001	5.41337E-001	-2.69910E-002	-3.82460E-002	7.06115E-001	-4.38660E-002	3.39820E-003	-2.45337E-004	2.84636E-002	2.54419E-002	-1.26853E-003	-1.79749E-003	3.31862E-002	-2.06162E-003
	24	24	1.10025E+000	4.66064E-002	0.00000E+000	5.12785E-002	4.64557E-001	4.34905E-002	4.93294E+001	11	...........	7.26056E-002	-5.23097E-003	6.05507E-001	5.41360E-001	-2.69767E-002	-3.82518E-002	7.06082E-001	-4.37269E-002	3.38388E-003	-2.43797E-004	2.82205E-002	2.52308E-002	-1.25729E-003	-1.78278E-003	3.29080E-002	-2.03796E-003
	25	25	1.10008E+000	4.64735E-002	0.00000E+000	5.11243E-002	4.63236E-001	4.34452E-002	4.59009E+001	11	...........	7.25151E-002	-5.30000E-003	6.05604E-001	5.41461E-001	-2.69794E-002	-3.82285E-002	7.06183E-001	-4.38453E-002	3.37003E-003	-2.46309E-004	2.81445E-002	2.51636E-002	-1.25383E-003	-1.77661E-003	3.28188E-002	-2.03764E-003
	26	26	1.10013E+000	4.65917E-002	0.00000E+000	5.12570E-002	4.64413E-001	4.30887E-002	4.85433E+001	11	...........	7.19343E-002	-5.12625E-003	6.05510E-001	5.41417E-001	-2.69643E-002	-3.82157E-002	7.06206E-001	-4.38493E-002	3.35154E-003	-2.38841E-004	2.82118E-002	2.52256E-002	-1.25631E-003	-1.78053E-003	3.29034E-002	-2.04301E-003
	27	27	1.10025E+000	4.62309E-002	0.00000E+000	5.08655E-002	4.60826E-001	4.33558E-002	4.95910E+001	11	...........	7.23699E-002	-5.23403E-003	6.05507E-001	5.41287E-001	-2.69578E-002	-3.82025E-002	7.06231E-001	-4.38642E-002	3.34573E-003	-2.41974E-004	2.79931E-002	2.50242E-002	-1.24628E-003	-1.76614E-003	3.26497E-002	-2.02788E-003
	28	28	1.10007E+000	4.61463E-002	0.00000E+000	5.07644E-002	4.59984E-001	4.32701E-002	4.96454E+001	11	...........	7.22457E-002	-5.21486E-003	6.05437E-001	5.41342E-001	-2.69775E-002	-3.81919E-002	7.06274E-001	-4.38339E-002	3.33387E-003	-2.40647E-004	2.79387E-002	2.49809E-002	-1.24491E-003	-1.76242E-003	3.25919E-002	-2.02277E-003
	29	29	1.10013E+000	4.62671E-002	0.00000E+000	5.09000E-002	4.61186E-001	4.32357E-002	4.87989E+001	11	...........	7.21746E-002	-5.23069E-003	6.05425E-001	5.41186E-001	-2.69904E-002	-3.81933E-002	7.06172E-001	-4.38169E-002	3.33931E-003	-2.42009E-004	2.80113E-002	2.50391E-002	-1.24877E-003	-1.76710E-003	3.26725E-002	-2.02728E-003
	30	30	1.10025E+000	4.58172E-002	0.00000E+000	5.04102E-002	4.56712E-001	4.31039E-002	4.88905E+001	11	...........	7.19687E-002	-5.30361E-003	6.05472E-001	5.41203E-001	-2.69721E-002	-3.81675E-002	7.05995E-001	-4.37593E-002	3.29740E-003	-2.42996E-004	2.77410E-002	2.47964E-002	-1.23578E-003	-1.74873E-003	3.23467E-002	-2.00493E-003
	31	31	1.10007E+000	4.57813E-002	0.00000E+000	5.03628E-002	4.56356E-001	4.32432E-002	4.94405E+001	11	...........	7.21969E-002	-5.30389E-003	6.05494E-001	5.41351E-001	-2.69614E-002	-3.81547E-002	7.05997E-001	-4.37203E-002	3.30527E-003	-2.42819E-004	2.77203E-002	2.47838E-002	-1.23433E-003	-1.74677E-003	3.23215E-002	-2.00157E-003
	32	32	1.10013E+000	4.58775E-002	0.00000E+000	5.04713E-002	4.57312E-001	4.32355E-002	4.91876E+001	11	...........	7.21871E-002	-5.30792E-003	6.05663E-001	5.41209E-001	-2.69354E-002	-3.81461E-002	7.06035E-001	-4.37137E-002	3.31176E-003	-2.43514E-004	2.77863E-002	2.48293E-002	-1.23573E-003	-1.75005E-003	3.23911E-002	-2.00548E-003
	33	33	1.10025E+000	4.53495E-002	0.00000E+000	4.98958E-002	4.52063E-001	4.29509E-002	4.56868E+001	11	...........	7.16928E-002	-5.39431E-003	6.05636E-001	5.41107E-001	-2.69258E-002	-3.81282E-002	7.06004E-001	-4.36157E-002	3.25123E-003	-2.44629E-004	2.74653E-002	2.45389E-002	-1.22107E-003	-1.72909E-003	3.20169E-002	-1.97795E-003
	34	34	1.10007E+000	4.54126E-002	0.00000E+000	4.99571E-002	4.52685E-001	4.31534E-002	4.85799E+001	11	...........	7.20475E-002	-5.28306E-003	6.05833E-001	5.41083E-001	-2.69451E-002	-3.81460E-002	7.06003E-001	-4.35158E-002	3.27186E-003	-2.39917E-004	2.75124E-002	2.45719E-002	-1.22365E-003	-1.73231E-003	3.20614E-002	-1.97616E-003
	35	35	1.10013E+000	4.55388E-002	0.00000E+000	5.00987E-002	4.53944E-001	4.30726E-002	4.94861E+001	11	...........	7.19072E-002	-5.23819E-003	6.05933E-001	5.41070E-001	-2.69403E-002	-3.81411E-002	7.06153E-001	-4.36457E-002	3.27457E-003	-2.38541E-004	2.75935E-002	2.46397E-002	-1.22683E-003	-1.73690E-003	3.21574E-002	-1.98757E-003
	36	36	1.10025E+000	4.50997E-002	0.00000E+000	4.96209E-002	4.49577E-001	4.30416E-002	4.93988E+001	11	...........	7.18576E-002	-5.28889E-003	6.05936E-001	5.41057E-001	-2.69207E-002	-3.81174E-002	7.06221E-001	-4.37679E-002	3.24076E-003	-2.38528E-004	2.73275E-002	2.44015E-002	-1.21412E-003	-1.71908E-003	3.18504E-002	-1.97392E-003
	37	37	1.10008E+000	4.49865E-002	0.00000E+000	4.94886E-002	4.48452E-001	4.29944E-002	4.86115E+001	11	...........	7.17814E-002	-5.24958E-003	6.05935E-001	5.40908E-001	-2.69078E-002	-3.81201E-002	7.06177E-001	-4.37383E-002	3.22919E-003	-2.36160E-004	2.72589E-002	2.43335E-002	-1.21049E-003	-1.71489E-003	3.17684E-002	-1.96763E-003
	38	38	1.10013E+000	4.51458E-002	0.00000E+000	4.96662E-002	4.50038E-001	4.30020E-002	4.91711E+001	11	...........	7.17835E-002	-5.14431E-003	6.05982E-001	5.40838E-001	-2.68846E-002	-3.80946E-002	7.06275E-001	-4.37990E-002	3.24072E-003	-2.32244E-004	2.73575E-002	2.44166E-002	-1.21373E-003	-1.71981E-003	3.18854E-002	-1.97734E-003
	39	39	1.10025E+000	4.47288E-002	0.00000E+000	4.92127E-002	4.45887E-001	4.29424E-002	4.91539E+001	11	...........	7.17007E-002	-5.17472E-003	6.05882E-001	5.40747E-001	-2.68532E-002	-3.81524E-002	7.06275E-001	-4.38319E-002	3.20708E-003	-2.31459E-004	2.71004E-002	2.41869E-002	-1.20111E-003	-1.70651E-003	3.15908E-002	-1.96055E-003
	40	40	1.10008E+000	4.46040E-002	0.00000E+000	4.90679E-002	4.44652E-001	4.30179E-002	4.73220E+001	11	...........	7.18121E-002	-5.21125E-003	6.06039E-001	5.40630E-001	-2.68543E-002	-3.81721E-002	7.06165E-001	-4.38681E-002	3.20311E-003	-2.32443E-004	2.70318E-002	2.41143E-002	-1.19781E-003	-1.70263E-003	3.14978E-002	-1.95669E-003
	41	41	1.10013E+000	4.47327E-002	0.00000E+000	4.92117E-002	4.45927E-001	4.25760E-002	4.80648E+001	11	...........	7.10807E-002	-5.21056E-003	6.06202E-001	5.40716E-001	-2.68568E-002	-3.81790E-002	7.06096E-001	-4.39531E-002	3.17963E-003	-2.33082E-004	2.71171E-002	2.41877E-002	-1.20138E-003	-1.70785E-003	3.15856E-002	-1.96614E-003
	42	42	1.10025E+000	4.44328E-002	0.00000E+000	4.88871E-002	4.42946E-001	4.30919E-002	4.95023E+001	11	...........	7.19490E-002	-5.21458E-003	6.06197E-001	5.40859E-001	-2.68456E-002	-3.81867E-002	7.06096E-001	-4.38671E-002	3.19690E-003	-2.31699E-004	2.69350E-002	2.40319E-002	-1.19282E-003	-1.69674E-003	3.13739E-002	-1.94914E-003
	43	43	1.10008E+000	4.42678E-002	0.00000E+000	4.86981E-002	4.41307E-001	4.28210E-002	4.97134E+001	11	...........	7.14978E-002	-5.21597E-003	6.06203E-001	5.40944E-001	-2.68376E-002	-3.81876E-002	7.06050E-001	-4.38303E-002	3.16505E-003	-2.30899E-004	2.68352E-002	2.39464E-002	-1.18804E-003	-1.69048E-003	3.12552E-002	-1.94027E-003
	44	44	1.10012E+000	4.44311E-002	0.00000E+000	4.88797E-002	4.42931E-001	4.28280E-002	4.89233E+001	11	...........	7.14990E-002	-5.19056E-003	6.06202E-001	5.40989E-001	-2.68503E-002	-3.81687E-002	7.05940E-001	-4.38118E-002	3.17678E-003	-2.30622E-004	2.69342E-002	2.40367E-002	-1.19299E-003	-1.69588E-003	3.13656E-002	-1.94661E-003
	45	45	1.10025E+000	4.40933E-002	0.00000E+000	4.85135E-002	4.39568E-001	4.27784E-002	4.93399E+001	11	...........	7.14175E-002	-5.14139E-003	6.06196E-001	5.40951E-001	-2.68456E-002	-3.81651E-002	7.06069E-001	-4.38271E-002	3.14904E-003	-2.26701E-004	2.67292E-002	2.38524E-002	-1.18371E-003	-1.68283E-003	3.11329E-002	-1.93248E-003
	46	46	1.10009E+000	4.38794E-002	0.00000E+000	4.82711E-002	4.37444E-001	4.25057E-002	4.69402E+001	11	...........	7.14915E-002	-5.23667E-003	6.06340E-001	5.40826E-001	-2.68490E-002	-3.81686E-002	7.06170E-001	-4.38737E-002	3.13700E-003	-2.29782E-004	2.66058E-002	2.37311E-002	-1.17812E-003	-1.67482E-003	3.09863E-002	-1.92515E-003
	47	47	1.10012E+000	4.39734E-002	0.00000E+000	4.83761E-002	4.38377E-001	4.23662E-002	4.70089E+001	11	...........	7.07154E-002	-5.16750E-003	6.06370E-001	5.40860E-001	-2.68507E-002	-3.81428E-002	7.06132E-001	-4.38306E-002	3.10960E-003	-2.27232E-004	2.66641E-002	2.37834E-002	-1.18072E-003	-1.67727E-003	3.10510E-002	-1.92738E-003
	48	48	1.10024E+000	4.37664E-002	0.00000E+000	4.81537E-002	4.36320E-001	4.28820E-002	4.92016E+001	11	...........	7.16004E-002	-5.28319E-003	6.06325E-001	5.41044E-001	-2.68457E-002	-3.81315E-002	7.06225E-001	-4.37833E-002	3.13369E-003	-2.31226E-004	2.65367E-002	2.36796E-002	-1.17494E-003	-1.66888E-003	3.09089E-002	-1.91624E-003
	49	49	1.10009E+000	4.35747E-002	0.00000E+000	4.79360E-002	4.34411E-001	4.26970E-002	4.95102E+001	11	...........	7.12921E-002	-5.30333E-003	6.06426E-001	5.40938E-001	-2.68431E-002	-3.81472E-002	7.06380E-001	-4.36321E-002	3.10653E-003	-2.31091E-004	2.64248E-002	2.35712E-002	-1.16968E-003	-1.66225E-003	3.07803E-002	-1.90126E-003
	50	50	1.10012E+000	4.37370E-002	0.00000E+000	4.81162E-002	4.36025E-001	4.26552E-002	4.83082E+001	11	...........	7.12082E-002	-5.25000E-003	6.06413E-001	5.40898E-001	-2.68481E-002	-3.81508E-002	7.06305E-001	-4.37353E-002	3.11443E-003	-2.29619E-004	2.65227E-002	2.36573E-002	-1.17425E-003	-1.66860E-003	3.08917E-002	-1.91285E-003
	51	51	1.10024E+000	4.34135E-002	0.00000E+000	4.77652E-002	4.32807E-001	4.23763E-002	4.82251E+001	11	...........	7.07407E-002	-5.21111E-003	6.06085E-001	5.41053E-001	-2.68621E-002	-3.81256E-002	7.06198E-001	-4.38119E-002	3.07110E-003	-2.26233E-004	2.63123E-002	2.34890E-002	-1.16618E-003	-1.65516E-003	3.06585E-002	-1.90203E-003
	52	52	1.10009E+000	4.32918E-002	0.00000E+000	4.76249E-002	4.31597E-001	4.27974E-002	4.93687E+001	11	...........	7.14562E-002	-5.26431E-003	6.05990E-001	5.41041E-001	-2.68818E-002	-3.81364E-002	7.06144E-001	-4.39360E-002	3.09347E-003	-2.27901E-004	2.62344E-002	2.34226E-002	-1.16376E-003	-1.65099E-003	3.05703E-002	-1.90207E-003
	53	53	1.10012E+000	4.34292E-002	0.00000E+000	4.77775E-002	4.32964E-001	4.25136E-002	4.94607E+001	11	...........	7.09814E-002	-5.28000E-003	6.05900E-001	5.41213E-001	-2.68860E-002	-3.81243E-002	7.06165E-001	-4.38667E-002	3.08266E-003	-2.29306E-004	2.63137E-002	2.35044E-002	-1.16764E-003	-1.65571E-003	3.06682E-002	-1.90509E-003
	54	54	1.10024E+000	4.31240E-002	0.00000E+000	4.74466E-002	4.29928E-001	4.25439E-002	4.94072E+001	11	...........	7.10340E-002	-5.34097E-003	6.05936E-001	5.41272E-001	-2.69118E-002	-3.81224E-002	7.06221E-001	-4.38312E-002	3.06327E-003	-2.30324E-004	2.61304E-002	2.33418E-002	-1.16054E-003	-1.64399E-003	3.04550E-002	-1.89018E-003
	55	55	1.10009E+000	4.29291E-002	0.00000E+000	4.72261E-002	4.27993E-001	4.24975E-002	4.94713E+001	11	...........	7.09435E-002	-5.37500E-003	6.05922E-001	5.41189E-001	-2.69131E-002	-3.81064E-002	7.06271E-001	-4.38000E-002	3.04554E-003	-2.30744E-004	2.60117E-002	2.32328E-002	-1.15535E-003	-1.63587E-003	3.03196E-002	-1.88030E-003
	56	56	1.10013E+000	4.30569E-002	0.00000E+000	4.73680E-002	4.29267E-001	4.25870E-002	4.65824E+001	11	...........	7.10700E-002	-5.35681E-003	6.05804E-001	5.41117E-001	-2.69075E-002	-3.80732E-002	7.06273E-001	-4.37675E-002	3.06006E-003	-2.30648E-004	2.60841E-002	2.32988E-002	-1.15855E-003	-1.63931E-003	3.04099E-002	-1.88449E-003
	57	57	1.10023E+000	4.27766E-002	0.00000E+000	4.70641E-002	4.26477E-001	4.22421E-002	4.83207E+001	11	...........	7.05212E-002	-5.32375E-003	6.05768E-001	5.40986E-001	-2.69101E-002	-3.80353E-002	7.06157E-001	-4.38039E-002	3.01666E-003	-2.27732E-004	2.59127E-002	2.31415E-002	-1.15112E-003	-1.62702E-003	3.02070E-002	-1.87378E-003
	58	58	1.10010E+000	4.25758E-002	0.00000E+000	4.68376E-002	4.24480E-001	4.24550E-002	4.66436E+001	11	...........	7.08728E-002	-5.34500E-003	6.06016E-001	5.41082E-001	-2.69375E-002	-3.80496E-002	7.06273E-001	-4.38303E-002	3.01747E-003	-2.27568E-004	2.58016E-002	2.30370E-002	-1.14689E-003	-1.61999E-003	3.00701E-002	-1.86611E-003
	59	59	1.10012E+000	4.27475E-002	0.00000E+000	4.70273E-002	4.26189E-001	4.22234E-002	4.88388E+001	11	...........	7.04924E-002	-5.34639E-003	6.06168E-001	5.41096E-001	-2.69737E-002	-3.80247E-002	7.06199E-001	-4.37461E-002	3.01337E-003	-2.28545E-004	2.59122E-002	2.31305E-002	-1.15306E-003	-1.62546E-003	3.01883E-002	-1.87004E-003
	60	60	1.10024E+000	4.25479E-002	0.00000E+000	4.68128E-002	4.24204E-001	4.25735E-002	4.92797E+001	11	...........	7.10900E-002	-5.32000E-003	6.06173E-001	5.40945E-001	-2.69756E-002	-3.80462E-002	7.06332E-001	-4.37340E-002	3.02473E-003	-2.26355E-004	2.57914E-002	2.30161E-002	-1.14775E-003	-1.61879E-003	3.00530E-002	-1.86079E-003
	61	61	1.10010E+000	4.22959E-002	0.00000E+000	4.65297E-002	4.21699E-001	4.23278E-002	4.92972E+001	11	...........	7.06757E-002	-5.29875E-003	6.06049E-001	5.40912E-001	-2.69656E-002	-3.80212E-002	7.06260E-001	-4.38156E-002	2.98929E-003	-2.24115E-004	2.56334E-002	2.28784E-002	-1.14053E-003	-1.60814E-003	2.98719E-002	-1.85322E-003
	62	62	1.10012E+000	4.24763E-002	0.00000E+000	4.67290E-002	4.23492E-001	4.23029E-002	4.92383E+001	11	...........	7.06347E-002	-5.25236E-003	6.06033E-001	5.41040E-001	-2.69589E-002	-3.80067E-002	7.06334E-001	-4.39365E-002	3.00030E-003	-2.23101E-004	2.57420E-002	2.29814E-002	-1.14511E-003	-1.61438E-003	3.00024E-002	-1.86626E-003
	63	63	1.10023E+000	4.22059E-002	0.00000E+000	4.64363E-002	4.20802E-001	4.23113E-002	4.92364E+001	11	...........	7.06396E-002	-5.21306E-003	6.06194E-001	5.40998E-001	-2.69729E-002	-3.79931E-002	7.06283E-001	-4.39453E-002	2.98141E-003	-2.20022E-004	2.55850E-002	2.28333E-002	-1.13842E-003	-1.60353E-003	2.98093E-002	-1.85475E-003
	64	64	1.10010E+000	4.19531E-002	0.00000E+000	4.61528E-002	4.18290E-001	4.22684E-002	4.90664E+001	11	...........	7.05761E-002	-5.25319E-003	6.06123E-001	5.41059E-001	-2.69729E-002	-3.79815E-002	7.06243E-001	-4.38707E-002	2.96089E-003	-2.20388E-004	2.54287E-002	2.26991E-002	-1.13160E-003	-1.59344E-003	2.96291E-002	-1.84051E-003
	65	65	1.10012E+000	4.20855E-002	0.00000E+000	4.62991E-002	4.19608E-001	4.22166E-002	4.66560E+001	11	...........	7.04803E-002	-5.33542E-003	6.05935E-001	5.41146E-001	-2.70039E-002	-3.80106E-002	7.06323E-001	-4.38524E-002	2.96620E-003	-2.24544E-004	2.55011E-002	2.27744E-002	-1.13647E-003	-1.59969E-003	2.97259E-002	-1.84555E-003
	66	66	1.10023E+000	4.18656E-002	0.00000E+000	4.60617E-002	4.17417E-001	4.20847E-002	4.75989E+001	11	...........	7.02415E-002	-5.30111E-003	6.06061E-001	5.41093E-001	-2.69919E-002	-3.80353E-002	7.06408E-001	-4.37971E-002	2.94070E-003	-2.21934E-004	2.53731E-002	2.26532E-002	-1.13003E-003	-1.59237E-003	2.95742E-002	-1.83359E-003
	67	67	1.10011E+000	4.16878E-002	0.00000E+000	4.58611E-002	4.15650E-001	4.22846E-002	4.89537E+001	11	...........	7.05800E-002	-5.28236E-003	6.06024E-001	5.41109E-001	-2.69915E-002	-3.80344E-002	7.06347E-001	-4.38211E-002	2.94233E-003	-2.20210E-004	2.52638E-002	2.25577E-002	-1.12522E-003	-1.58557E-003	2.94460E-002	-1.82681E-003
	68	68	1.10012E+000	4.18606E-002	0.00000E+000	4.60516E-002	4.17368E-001	4.22352E-002	4.92434E+001	11	...........	7.04933E-002	-5.33653E-003	6.05992E-001	5.41208E-001	-2.69775E-002	-3.80381E-002	7.06387E-001	-4.38765E-002	2.95089E-003	-2.23390E-004	2.53672E-002	2.26553E-002	-1.12929E-003	-1.59230E-003	2.95698E-002	-1.83670E-003
	69	69	1.10023E+000	4.16018E-002	0.00000E+000	4.57714E-002	4.14797E-001	4.21644E-002	4.92313E+001	11	...........	7.04006E-002	-5.32667E-003	6.05938E-001	5.41247E-001	-2.70012E-002	-3.80324E-002	7.06246E-001	-4.37369E-002	2.92879E-003	-2.21599E-004	2.52081E-002	2.25168E-002	-1.12330E-003	-1.58222E-003	2.93811E-002	-1.81954E-003
	70	70	1.10011E+000	4.13392E-002	0.00000E+000	4.54778E-002	4.12186E-001	4.21045E-002	4.71483E+001	11	...........	7.02762E-002	-5.24083E-003	6.05844E-001	5.41260E-001	-2.70112E-002	-3.80350E-002	7.06273E-001	-4.36601E-002	2.90516E-003	-2.16652E-004	2.50451E-002	2.23753E-002	-1.11662E-003	-1.57234E-003	2.91968E-002	-1.80488E-003
	71	71	1.10012E+000	4.15195E-002	0.00000E+000	4.56763E-002	4.13976E-001	4.19865E-002	4.89125E+001	11	...........	7.01161E-002	-5.35292E-003	6.05865E-001	5.41291E-001	-2.70264E-002	-3.80243E-002	7.06135E-001	-4.36504E-002	2.91119E-003	-2.22251E-004	2.51553E-002	2.24742E-002	-1.12212E-003	-1.57875E-003	2.93184E-002	-1.81235E-003
	72	72	1.10022E+000	4.13106E-002	0.00000E+000	4.54509E-002	4.11902E-001	4.21833E-002	4.92324E+001	11	...........	7.04271E-002	-5.27389E-003	6.05810E-001	5.41106E-001	-2.70124E-002	-3.80386E-002	7.06213E-001	-4.36907E-002	2.90938E-003	-2.17867E-004	2.50264E-002	2.23534E-002	-1.11590E-003	-1.57140E-003	2.91741E-002	-1.80489E-003
	73	73	1.10012E+000	4.09887E-002	0.00000E+000	4.50923E-002	4.08699E-001	4.20757E-002	4.74607E+001	11	...........	7.02456E-002	-5.26667E-003	6.05666E-001	5.40906E-001	-2.70035E-002	-3.80433E-002	7.06147E-001	-4.37429E-002	2.87927E-003	-2.15874E-004	2.48254E-002	2.21710E-002	-1.10684E-003	-1.55935E-003	2.89440E-002	-1.79296E-003
	74	74	1.10011E+000	4.12300E-002	0.00000E+000	4.53577E-002	4.11093E-001	4.19066E-002	4.80946E+001	11	...........	6.99525E-002	-5.14722E-003	6.05597E-001	5.40919E-001	-2.69625E-002	-3.80224E-002	7.06136E-001	-4.36160E-002	2.88414E-003	-2.12220E-004	2.49688E-002	2.23021E-002	-1.11166E-003	-1.56766E-003	2.91140E-002	-1.79829E-003
	75	75	1.10022E+000	4.10446E-002	0.00000E+000	4.51582E-002	4.09253E-001	4.20827E-002	4.90605E+001	11	...........	7.02522E-002	-5.10319E-003	6.05683E-001	5.40950E-001	-2.69608E-002	-3.80199E-002	7.06096E-001	-4.36454E-002	2.88348E-003	-2.09459E-004	2.48600E-002	2.22031E-002	-1.10660E-003	-1.56051E-003	2.89814E-002	-1.79141E-003
	76	76	1.10012E+000	4.07083E-002	0.00000E+000	4.47839E-002	4.05909E-001	4.20110E-002	4.84927E+001	11	...........	7.01332E-002	-5.14986E-003	6.05859E-001	5.41076E-001	-2.69782E-002	-3.80218E-002	7.06107E-001	-4.38037E-002	2.85500E-003	-2.09642E-004	2.46635E-002	2.20263E-002	-1.09824E-003	-1.54780E-003	2.87444E-002	-1.78317E-003
	77	77	1.10011E+000	4.09217E-002	0.00000E+000	4.50186E-002	4.08033E-001	4.19826E-002	4.89210E+001	11	...........	7.00754E-002	-5.08750E-003	6.05880E-001	5.41080E-001	-2.69758E-002	-3.80306E-002	7.06090E-001	-4.38133E-002	2.86760E-003	-2.08189E-004	2.47936E-002	2.21419E-002	-1.10390E-003	-1.55627E-003	2.88944E-002	-1.79292E-003
	78	78	1.10022E+000	4.07138E-002	0.00000E+000	4.47941E-002	4.05965E-001	4.20073E-002	4.90713E+001	11	...........	7.01343E-002	-5.23444E-003	6.05759E-001	5.41276E-001	-2.69826E-002	-3.80524E-002	7.05977E-001	-4.37985E-002	2.85543E-003	-2.13114E-004	2.46627E-002	2.20374E-002	-1.09857E-003	-1.54926E-003	2.87430E-002	-1.78320E-003
	79	79	1.10012E+000	4.04269E-002	0.00000E+000	4.44745E-002	4.03108E-001	4.19303E-002	4.76120E+001	11	...........	7.00128E-002	-5.17847E-003	6.05775E-001	5.41291E-001	-2.69549E-002	-3.80436E-002	7.05962E-001	-4.36361E-002	2.83040E-003	-2.09350E-004	2.44896E-002	2.18827E-002	-1.08970E-003	-1.53799E-003	2.85399E-002	-1.76407E-003
	80	80	1.10011E+000	4.05562E-002	0.00000E+000	4.46164E-002	4.04401E-001	4.15401E-002	4.73119E+001	11	...........	6.93557E-002	-5.12028E-003	6.05769E-001	5.41199E-001	-2.69726E-002	-3.80349E-002	7.05938E-001	-4.37797E-002	2.81280E-003	-2.07659E-004	2.45677E-002	2.19490E-002	-1.09391E-003	-1.54255E-003	2.86302E-002	-1.77554E-003
	81	81	1.10022E+000	4.04597E-002	0.00000E+000	4.45145E-002	4.03439E-001	4.21539E-002	4.92437E+001	11	...........	7.03889E-002	-5.23444E-003	6.05801E-001	5.41202E-001	-2.69508E-002	-3.79900E-002	7.06125E-001	-4.38279E-002	2.84792E-003	-2.11784E-004	2.45105E-002	2.18969E-002	-1.09042E-003	-1.53707E-003	2.85696E-002	-1.77327E-003
	82	82	1.10012E+000	4.00971E-002	0.00000E+000	4.41118E-002	3.99830E-001	4.18537E-002	4.92356E+001	11	...........	6.98697E-002	-5.26722E-003	6.05940E-001	5.41176E-001	-2.69160E-002	-3.79844E-002	7.06178E-001	-4.39381E-002	2.80157E-003	-2.11200E-004	2.42965E-002	2.16996E-002	-1.07925E-003	-1.52307E-003	2.83157E-002	-1.76179E-003
	83	83	1.10011E+000	4.02988E-002	0.00000E+000	4.43332E-002	4.01836E-001	4.17670E-002	4.91612E+001	11	...........	6.97261E-002	-5.27903E-003	6.06087E-001	5.41213E-001	-2.68900E-002	-3.79763E-002	7.06124E-001	-4.37835E-002	2.80988E-003	-2.12738E-004	2.44246E-002	2.18102E-002	-1.08363E-003	-1.53040E-003	2.84559E-002	-1.76442E-003
	84	84	1.10022E+000	4.01185E-002	0.00000E+000	4.41391E-002	4.00046E-001	4.18627E-002	4.66730E+001	11	...........	6.98840E-002	-5.34153E-003	6.06139E-001	5.41066E-001	-2.68750E-002	-3.79649E-002	7.06015E-001	-4.37013E-002	2.80364E-003	-2.14294E-004	2.43174E-002	2.17067E-002	-1.07818E-003	-1.52309E-003	2.83243E-002	-1.75323E-003
	85	85	1.10013E+000	3.98179E-002	0.00000E+000	4.38047E-002	3.97056E-001	4.16694E-002	4.84358E+001	11	...........	6.95842E-002	-5.23361E-003	6.06132E-001	5.41112E-001	-2.68843E-002	-3.79876E-002	7.06065E-001	-4.37807E-002	2.77069E-003	-2.08391E-004	2.41349E-002	2.15459E-002	-1.07048E-003	-1.51259E-003	2.81140E-002	-1.74325E-003
	86	86	1.10011E+000	4.00304E-002	0.00000E+000	4.40379E-002	3.99167E-001	4.17556E-002	4.85077E+001	11	...........	6.97044E-002	-5.28125E-003	6.06118E-001	5.40963E-001	-2.68910E-002	-3.79665E-002	7.05959E-001	-4.38215E-002	2.79029E-003	-2.11410E-004	2.42631E-002	2.16550E-002	-1.07646E-003	-1.51981E-003	2.82598E-002	-1.75419E-003
	87	87	1.10021E+000	3.98529E-002	0.00000E+000	4.38466E-002	3.97403E-001	4.17611E-002	4.80073E+001	11	...........	6.97301E-002	-5.25958E-003	6.06069E-001	5.40941E-001	-2.68872E-002	-3.79867E-002	7.05986E-001	-4.38237E-002	2.77895E-003	-2.09610E-004	2.41536E-002	2.15581E-002	-1.07153E-003	-1.51388E-003	2.81356E-002	-1.74650E-003
	88	88	1.10013E+000	3.94747E-002	0.00000E+000	4.34274E-002	3.93640E-001	4.15665E-002	4.87715E+001	11	...........	6.93994E-002	-5.27472E-003	6.06112E-001	5.40943E-001	-2.68744E-002	-3.79829E-002	7.06032E-001	-4.38303E-002	2.73952E-003	-2.08218E-004	2.39261E-002	2.13535E-002	-1.06086E-003	-1.49936E-003	2.78703E-002	-1.73019E-003
	89	89	1.10011E+000	3.96765E-002	0.00000E+000	4.36486E-002	3.95649E-001	4.18120E-002	4.80098E+001	11	...........	6.97911E-002	-5.36653E-003	6.06158E-001	5.40919E-001	-2.68582E-002	-3.79486E-002	7.06056E-001	-4.38786E-002	2.76907E-003	-2.12925E-004	2.40502E-002	2.14618E-002	-1.06564E-003	-1.50567E-003	2.80138E-002	-1.74095E-003
	90	90	1.10021E+000	3.95954E-002	0.00000E+000	4.35632E-002	3.94842E-001	4.16131E-002	4.84925E+001	11	...........	6.94631E-002	-5.30153E-003	6.06058E-001	5.40916E-001	-2.68729E-002	-3.79476E-002	7.06128E-001	-4.38315E-002	2.75042E-003	-2.09916E-004	2.39971E-002	2.14178E-002	-1.06404E-003	-1.50255E-003	2.79594E-002	-1.73553E-003
	91	91	1.10014E+000	3.92473E-002	0.00000E+000	4.31774E-002	3.91383E-001	4.16663E-002	4.91067E+001	11	...........	6.95655E-002	-5.37181E-003	6.06150E-001	5.40903E-001	-2.68564E-002	-3.79312E-002	7.06164E-001	-4.38350E-002	2.73026E-003	-2.10829E-004	2.37898E-002	2.12290E-002	-1.05404E-003	-1.48870E-003	2.77150E-002	-1.72041E-003
	92	92	1.10011E+000	3.94264E-002	0.00000E+000	4.33734E-002	3.93167E-001	4.17543E-002	4.91660E+001	11	...........	6.97154E-002	-5.37486E-003	6.06103E-001	5.40838E-001	-2.68944E-002	-3.79286E-002	7.06103E-001	-4.37851E-002	2.74863E-003	-2.11911E-004	2.38965E-002	2.13233E-002	-1.06035E-003	-1.49539E-003	2.78391E-002	-1.72629E-003
	93	93	1.10021E+000	3.93086E-002	0.00000E+000	4.32475E-002	3.91994E-001	4.16657E-002	4.91096E+001	11	...........	6.95608E-002	-5.22750E-003	6.06221E-001	5.40745E-001	-2.68824E-002	-3.79489E-002	7.06194E-001	-4.37657E-002	2.73434E-003	-2.05486E-004	2.38297E-002	2.12559E-002	-1.05671E-003	-1.49172E-003	2.77595E-002	-1.72037E-003
	94	94	1.10014E+000	3.89059E-002	0.00000E+000	4.28020E-002	3.87990E-001	4.16848E-002	4.79876E+001	11	...........	6.95910E-002	-5.19000E-003	6.06098E-001	5.40796E-001	-2.68825E-002	-3.79456E-002	7.06118E-001	-4.37501E-002	2.70750E-003	-2.01921E-004	2.35808E-002	2.10401E-002	-1.04589E-003	-1.47630E-003	2.74721E-002	-1.70214E-003
	95	95	1.10011E+000	3.90491E-002	0.00000E+000	4.29582E-002	3.89416E-001	4.10475E-002	4.57905E+001	11	...........	6.85176E-002	-5.12625E-003	6.05912E-001	5.40796E-001	-2.69100E-002	-3.79342E-002	7.06081E-001	-4.37894E-002	2.67555E-003	-2.00176E-004	2.36603E-002	2.11176E-002	-1.05081E-003	-1.48130E-003	2.75719E-002	-1.70994E-003
	96	96	1.10020E+000	3.90693E-002	0.00000E+000	4.29842E-002	3.89619E-001	4.18336E-002	4.85490E+001	11	...........	6.98628E-002	-5.24944E-003	6.05868E-001	5.40799E-001	-2.69222E-002	-3.79500E-002	7.06112E-001	-4.38282E-002	2.72949E-003	-2.05092E-004	2.36709E-002	2.11287E-002	-1.05183E-003	-1.48268E-003	2.75873E-002	-1.71234E-003
	97	97	1.10015E+000	3.86463E-002	0.00000E+000	4.25166E-002	3.85413E-001	4.14856E-002	4.92365E+001	11	...........	6.92708E-002	-5.28000E-003	6.05692E-001	5.40749E-001	-2.69165E-002	-3.79432E-002	7.06105E-001	-4.38024E-002	2.67706E-003	-2.04053E-004	2.34078E-002	2.08980E-002	-1.04023E-003	-1.46637E-003	2.72884E-002	-1.69280E-003
	98	98	1.10011E+000	3.88435E-002	0.00000E+000	4.27320E-002	3.87372E-001	4.15745E-002	4.92475E+001	11	...........	6.94128E-002	-5.34972E-003	6.05803E-001	5.40861E-001	-2.69260E-002	-3.79378E-002	7.06071E-001	-4.37940E-002	2.69623E-003	-2.07802E-004	2.35315E-002	2.10089E-002	-1.04590E-003	-1.47363E-003	2.74263E-002	-1.70111E-003
	99	99	1.10020E+000	3.87304E-002	0.00000E+000	4.26111E-002	3.86247E-001	4.14758E-002	4.86312E+001	11	...........	6.92437E-002	-5.27847E-003	6.05733E-001	5.41048E-001	-2.69553E-002	-3.79224E-002	7.06124E-001	-4.38919E-002	2.68184E-003	-2.04438E-004	2.34603E-002	2.09550E-002	-1.04399E-003	-1.46875E-003	2.73485E-002	-1.69995E-003
	100	100	1.10015E+000	3.83798E-002	0.00000E+000	4.22235E-002	3.82758E-001	4.14362E-002	4.88799E+001	11	...........	6.91646E-002	-5.22444E-003	6.05637E-001	5.41120E-001	-2.69665E-002	-3.79003E-002	7.06179E-001	-4.38614E-002	2.65453E-003	-2.00513E-004	2.32443E-002	2.07681E-002	-1.03497E-003	-1.45461E-003	2.71030E-002	-1.68339E-003
	101	101	1.10011E+000	3.85870E-002	0.00000E+000	4.24498E-002	3.84820E-001	4.14677E-002	4.87693E+001	11	...........	6.92117E-002	-5.22556E-003	6.05742E-001	5.41125E-001	-2.69749E-002	-3.79218E-002	7.06213E-001	-4.38272E-002	2.67067E-003	-2.01638E-004	2.33737E-002	2.08804E-002	-1.04088E-003	-1.46329E-003	2.72506E-002	-1.69116E-003
	102	102	1.10019E+000	3.84940E-002	0.00000E+000	4.23509E-002	3.83896E-001	4.14170E-002	4.89721E+001	11	...........	6.91497E-002	-5.22472E-003	6.05632E-001	5.41264E-001	-2.69857E-002	-3.79251E-002	7.06223E-001	-4.39224E-002	2.66185E-003	-2.01121E-004	2.33132E-002	2.08354E-002	-1.03879E-003	-1.45989E-003	2.71854E-002	-1.69075E-003
	103	103	1.10016E+000	3.80851E-002	0.00000E+000	4.18995E-002	3.79830E-001	4.14812E-002	4.89100E+001	11	...........	6.92530E-002	-5.21958E-003	6.05539E-001	5.41359E-001	-2.69846E-002	-3.79214E-002	7.06292E-001	-4.39478E-002	2.63751E-003	-1.98788E-004	2.30620E-002	2.06177E-002	-1.02771E-003	-1.44424E-003	2.68992E-002	-1.67375E-003
	104	104	1.10010E+000	3.81979E-002	0.00000E+000	4.20216E-002	3.80951E-001	4.12242E-002	4.50499E+001	11	...........	6.88254E-002	-5.15903E-003	6.05371E-001	5.41388E-001	-2.69735E-002	-3.79300E-002	7.06127E-001	-4.39119E-002	2.62898E-003	-1.97064E-004	2.31239E-002	2.06799E-002	-1.03033E-003	-1.44885E-003	2.69725E-002	-1.67734E-003
	105	105	1.10019E+000	3.82725E-002	0.00000E+000	4.21071E-002	3.81694E-001	4.14048E-002	4.75229E+001	11	...........	6.91340E-002	-5.22139E-003	6.05370E-001	5.41349E-001	-2.69339E-002	-3.79276E-002	7.06031E-001	-4.38746E-002	2.64593E-003	-1.99836E-004	2.31690E-002	2.07188E-002	-1.03083E-003	-1.45159E-003	2.70216E-002	-1.67919E-003
	106	106	1.10016E+000	3.78323E-002	0.00000E+000	4.16215E-002	3.77316E-001	4.13484E-002	4.89426E+001	11	...........	6.90418E-002	-5.32333E-003	6.05619E-001	5.41284E-001	-2.69211E-002	-3.79300E-002	7.06206E-001	-4.37893E-002	2.61201E-003	-2.01394E-004	2.29120E-002	2.04780E-002	-1.01849E-003	-1.43498E-003	2.67174E-002	-1.65665E-003
	107	107	1.10010E+000	3.80278E-002	0.00000E+000	4.18346E-002	3.79262E-001	4.14027E-002	4.89583E+001	11	...........	6.91261E-002	-5.30069E-003	6.05782E-001	5.41244E-001	-2.69306E-002	-3.79335E-002	7.06239E-001	-4.38668E-002	2.62872E-003	-2.01574E-004	2.30366E-002	2.05823E-002	-1.02411E-003	-1.44253E-003	2.68567E-002	-1.66816E-003
	108	108	1.10019E+000	3.79710E-002	0.00000E+000	4.17753E-002	3.78702E-001	4.13338E-002	4.88420E+001	11	...........	6.90190E-002	-5.27403E-003	6.05869E-001	5.41214E-001	-2.69247E-002	-3.79356E-002	7.06209E-001	-4.39183E-002	2.62072E-003	-2.00260E-004	2.30055E-002	2.05505E-002	-1.02236E-003	-1.44045E-003	2.68155E-002	-1.66762E-003
	109	109	1.10016E+000	3.75608E-002	0.00000E+000	4.13230E-002	3.74622E-001	4.13211E-002	4.71608E+001	11	...........	6.89786E-002	-5.24667E-003	6.05911E-001	5.41162E-001	-2.69301E-002	-3.79321E-002	7.06219E-001	-4.37542E-002	2.59089E-003	-1.97069E-004	2.27585E-002	2.03265E-002	-1.01152E-003	-1.42476E-003	2.65262E-002	-1.64344E-003
	110	110	1.10010E+000	3.77186E-002	0.00000E+000	4.14944E-002	3.76191E-001	4.11001E-002	4.85516E+001	11	...........	6.86232E-002	-5.17625E-003	6.05877E-001	5.41130E-001	-2.69668E-002	-3.79258E-002	7.06249E-001	-4.37246E-002	2.58837E-003	-1.95241E-004	2.28528E-002	2.04107E-002	-1.01715E-003	-1.43051E-003	2.66387E-002	-1.64923E-003
	111	111	1.10019E+000	3.77083E-002	0.00000E+000	4.14862E-002	3.76087E-001	4.14627E-002	4.89469E+001	11	...........	6.92039E-002	-5.23931E-003	6.06013E-001	5.41173E-001	-2.69850E-002	-3.79197E-002	7.06361E-001	-4.38201E-002	2.60956E-003	-1.97565E-004	2.28518E-002	2.04067E-002	-1.01756E-003	-1.42989E-003	2.66357E-002	-1.65238E-003
	112	112	1.10017E+000	3.72695E-002	0.00000E+000	4.10027E-002	3.71724E-001	4.12373E-002	4.72858E+001	11	...........	6.88546E-002	-5.26292E-003	6.06082E-001	5.41196E-001	-2.69840E-002	-3.79167E-002	7.06267E-001	-4.39114E-002	2.56618E-003	-1.96146E-004	2.25884E-002	2.01701E-002	-1.00568E-003	-1.41314E-003	2.63222E-002	-1.63656E-003
	113	113	1.10010E+000	3.74134E-002	0.00000E+000	4.11585E-002	3.73155E-001	4.10373E-002	4.72625E+001	11	...........	6.84982E-002	-5.29986E-003	6.06205E-001	5.41251E-001	-2.70072E-002	-3.79065E-002	7.06094E-001	-4.38565E-002	2.56275E-003	-1.98286E-004	2.26802E-002	2.02501E-002	-1.01043E-003	-1.41821E-003	2.64174E-002	-1.64082E-003
	114	114	1.10018E+000	3.73609E-002	0.00000E+000	4.11037E-002	3.72631E-001	4.08607E-002	4.65774E+001	11	...........	6.82103E-002	-5.30667E-003	6.06186E-001	5.41197E-001	-2.70058E-002	-3.78797E-002	7.06006E-001	-4.38381E-002	2.54840E-003	-1.98262E-004	2.26476E-002	2.02196E-002	-1.00896E-003	-1.41522E-003	2.63770E-002	-1.63783E-003
	115	115	1.10017E+000	3.70375E-002	0.00000E+000	4.07476E-002	3.69414E-001	4.15492E-002	4.90020E+001	11	...........	6.93604E-002	-5.25125E-003	6.06314E-001	5.41284E-001	-2.70206E-002	-3.78774E-002	7.06104E-001	-4.38847E-002	2.56893E-003	-1.94493E-004	2.24564E-002	2.00478E-002	-1.00077E-003	-1.40288E-003	2.61523E-002	-1.62538E-003
	116	116	1.10010E+000	3.71951E-002	0.00000E+000	4.09183E-002	3.70985E-001	4.11608E-002	4.92107E+001	11	...........	6.87386E-002	-5.23611E-003	6.06301E-001	5.41260E-001	-2.70068E-002	-3.78681E-002	7.05992E-001	-4.37971E-002	2.55674E-003	-1.94758E-004	2.25514E-002	2.01323E-002	-1.00452E-003	-1.40851E-003	2.62595E-002	-1.62904E-003
	117	117	1.10018E+000	3.71606E-002	0.00000E+000	4.08833E-002	3.70642E-001	4.10718E-002	4.90117E+001	11	...........	6.85703E-002	-5.28278E-003	6.06230E-001	5.41178E-001	-2.69989E-002	-3.78614E-002	7.05983E-001	-4.38149E-002	2.54811E-003	-1.96311E-004	2.25279E-002	2.01105E-002	-1.00330E-003	-1.40695E-003	2.62348E-002	-1.62819E-003
	118	118	1.10018E+000	3.67509E-002	0.00000E+000	4.04325E-002	3.66572E-001	4.10702E-002	4.91547E+001	11	...........	6.85694E-002	-5.24653E-003	6.06018E-001	5.41242E-001	-2.69965E-002	-3.78789E-002	7.05978E-001	-4.37635E-002	2.51999E-003	-1.92815E-004	2.22717E-002	1.98911E-002	-9.92147E-004	-1.39208E-003	2.59454E-002	-1.60835E-003
	119	119	1.10010E+000	3.69109E-002	0.00000E+000	4.06056E-002	3.68159E-001	4.11782E-002	4.82917E+001	11	...........	6.87503E-002	-5.30486E-003	6.05970E-001	5.41268E-001	-2.69731E-002	-3.78801E-002	7.06046E-001	-4.37037E-002	2.53763E-003	-1.95807E-004	2.23669E-002	1.99787E-002	-9.95599E-004	-1.39819E-003	2.60608E-002	-1.61314E-003
	120	120	1.10017E+000	3.68454E-002	0.00000E+000	4.05363E-002	3.67508E-001	4.07484E-002	4.66803E+001	11	...........	6.80106E-002	-5.25361E-003	6.05933E-001	5.41141E-001	-2.69740E-002	-3.78867E-002	7.06035E-001	-4.37594E-002	2.50587E-003	-1.93571E-004	2.23258E-002	1.99385E-002	-9.93868E-004	-1.39595E-003	2.60141E-002	-1.61233E-003
	121	121	1.10018E+000	3.65147E-002	0.00000E+000	4.01728E-002	3.64220E-001	4.11852E-002	4.88154E+001	11	...........	6.87412E-002	-5.29708E-003	6.06057E-001	5.40936E-001	-2.70044E-002	-3.79203E-002	7.05943E-001	-4.37051E-002	2.51006E-003	-1.93421E-004	2.21299E-002	1.97521E-002	-9.86058E-004	-1.38465E-003	2.57773E-002	-1.59588E-003
	122	122	1.10010E+000	3.66250E-002	0.00000E+000	4.02910E-002	3.65317E-001	4.08379E-002	4.66174E+001	11	...........	6.81803E-002	-5.30611E-003	6.06038E-001	5.41065E-001	-2.70097E-002	-3.79229E-002	7.06077E-001	-4.36424E-002	2.49710E-003	-1.94336E-004	2.21962E-002	1.98165E-002	-9.89231E-004	-1.38893E-003	2.58601E-002	-1.59840E-003
	123	123	1.10017E+000	3.66338E-002	0.00000E+000	4.03035E-002	3.65403E-001	4.11662E-002	4.88774E+001	11	...........	6.87411E-002	-5.44806E-003	6.05916E-001	5.41186E-001	-2.70119E-002	-3.79165E-002	7.06049E-001	-4.36910E-002	2.51825E-003	-1.99583E-004	2.21970E-002	1.98257E-002	-9.89550E-004	-1.38903E-003	2.58652E-002	-1.60057E-003
	124	124	1.10019E+000	3.62251E-002	0.00000E+000	3.98544E-002	3.61339E-001	4.09433E-002	4.85673E+001	11	...........	6.83639E-002	-5.39486E-003	6.05830E-001	5.41342E-001	-2.70197E-002	-3.78932E-002	7.06056E-001	-4.36996E-002	2.47649E-003	-1.95429E-004	2.19463E-002	1.96102E-002	-9.78793E-004	-1.37269E-003	2.55770E-002	-1.58302E-003
	125	125	1.10010E+000	3.63629E-002	0.00000E+000	4.00027E-002	3.62713E-001	4.08941E-002	4.91019E+001	11	...........	6.82851E-002	-5.31458E-003	6.05818E-001	5.41356E-001	-2.70393E-002	-3.79194E-002	7.05980E-001	-4.38115E-002	2.48304E-003	-1.93254E-004	2.20293E-002	1.96853E-002	-9.83227E-004	-1.37886E-003	2.56715E-002	-1.59311E-003
	126	126	1.10017E+000	3.63610E-002	0.00000E+000	4.00032E-002	3.62692E-001	4.09722E-002	4.93188E+001	11	...........	6.83971E-002	-5.34014E-003	6.05904E-001	5.41402E-001	-2.70062E-002	-3.79222E-002	7.06076E-001	-4.38296E-002	2.48699E-003	-1.94173E-004	2.20313E-002	1.96859E-002	-9.81975E-004	-1.37889E-003	2.56737E-002	-1.59369E-003
	127	127	1.10019E+000	3.59610E-002	0.00000E+000	3.95640E-002	3.58717E-001	4.10117E-002	4.90610E+001	11	...........	6.84722E-002	-5.28042E-003	6.05859E-001	5.41313E-001	-2.70044E-002	-3.79246E-002	7.06272E-001	-4.38224E-002	2.46233E-003	-1.89889E-004	2.17873E-002	1.94661E-002	-9.71106E-004	-1.36380E-003	2.53982E-002	-1.57589E-003
	128	128	1.10010E+000	3.60620E-002	0.00000E+000	3.96717E-002	3.59717E-001	4.07789E-002	4.61706E+001	11	...........	6.80786E-002	-5.23972E-003	6.05717E-001	5.41226E-001	-2.70178E-002	-3.79189E-002	7.06143E-001	-4.37146E-002	2.45505E-003	-1.88955E-004	2.18434E-002	1.95177E-002	-9.74315E-004	-1.36743E-003	2.54649E-002	-1.57644E-003
	129	129	1.10016E+000	3.61600E-002	0.00000E+000	3.97820E-002	3.60694E-001	4.08730E-002	4.84787E+001	11	...........	6.82199E-002	-5.16847E-003	6.05608E-001	5.41327E-001	-2.70040E-002	-3.78982E-002	7.06093E-001	-4.37554E-002	2.46683E-003	-1.86892E-004	2.18988E-002	1.95744E-002	-9.76467E-004	-1.37040E-003	2.55324E-002	-1.58220E-003
	130	130	1.10019E+000	3.57494E-002	0.00000E+000	3.93313E-002	3.56611E-001	4.08461E-002	4.84349E+001	11	...........	6.81935E-002	-5.22667E-003	6.05886E-001	5.41313E-001	-2.69940E-002	-3.79135E-002	7.06031E-001	-4.38176E-002	2.43788E-003	-1.86850E-004	2.16601E-002	1.93516E-002	-9.65021E-004	-1.35538E-003	2.52402E-002	-1.56646E-003
	131	131	1.10009E+000	3.58429E-002	0.00000E+000	3.94306E-002	3.57537E-001	4.07015E-002	4.77838E+001	11	...........	6.79554E-002	-5.29833E-003	6.05980E-001	5.41349E-001	-2.70133E-002	-3.79161E-002	7.06008E-001	-4.38578E-002	2.43572E-003	-1.89908E-004	2.17201E-002	1.94035E-002	-9.68237E-004	-1.35902E-003	2.53054E-002	-1.57199E-003
	132	132	1.10016E+000	3.58979E-002	0.00000E+000	3.94936E-002	3.58088E-001	4.09494E-002	4.88999E+001	11	...........	6.83651E-002	-5.36194E-003	6.05946E-001	5.41388E-001	-2.70089E-002	-3.79281E-002	7.06071E-001	-4.38192E-002	2.45417E-003	-1.92483E-004	2.17522E-002	1.94347E-002	-9.69563E-004	-1.36154E-003	2.53465E-002	-1.57302E-003
	133	133	1.10020E+000	3.54867E-002	0.00000E+000	3.90424E-002	3.53993E-001	4.07922E-002	4.90505E+001	11	...........	6.81181E-002	-5.42569E-003	6.05880E-001	5.41436E-001	-2.69954E-002	-3.79246E-002	7.06048E-001	-4.37449E-002	2.41729E-003	-1.92540E-004	2.15007E-002	1.92138E-002	-9.57979E-004	-1.34582E-003	2.50553E-002	-1.55236E-003
	134	134	1.10009E+000	3.55797E-002	0.00000E+000	3.91410E-002	3.54921E-001	4.08559E-002	4.90701E+001	11	...........	6.82215E-002	-5.41667E-003	6.06007E-001	5.41370E-001	-2.70075E-002	-3.79322E-002	7.06166E-001	-4.37058E-002	2.42730E-003	-1.92723E-004	2.15615E-002	1.92618E-002	-9.60918E-004	-1.34962E-003	2.51251E-002	-1.55504E-003
	135	135	1.10016E+000	3.56164E-002	0.00000E+000	3.91838E-002	3.55289E-001	4.08162E-002	4.59256E+001	11	...........	6.81408E-002	-5.40556E-003	6.06045E-001	5.41282E-001	-2.70294E-002	-3.79407E-002	7.06177E-001	-4.35860E-002	2.42693E-003	-1.92526E-004	2.15851E-002	1.92785E-002	-9.62691E-004	-1.35131E-003	2.51515E-002	-1.55237E-003
	136	136	1.10020E+000	3.52239E-002	0.00000E+000	3.87533E-002	3.51383E-001	4.06039E-002	4.78903E+001	11	...........	6.77887E-002	-5.32764E-003	6.06025E-001	5.41187E-001	-2.70185E-002	-3.79279E-002	7.06080E-001	-4.36122E-002	2.38779E-003	-1.87660E-004	2.13466E-002	1.90627E-002	-9.51696E-004	-1.33597E-003	2.48709E-002	-1.53619E-003
	137	137	1.10009E+000	3.53545E-002	0.00000E+000	3.88932E-002	3.52682E-001	4.07573E-002	4.89047E+001	11	...........	6.80419E-002	-5.25194E-003	6.06164E-001	5.41223E-001	-2.69685E-002	-3.79426E-002	7.06163E-001	-4.36543E-002	2.40559E-003	-1.85680E-004	2.14306E-002	1.91347E-002	-9.53456E-004	-1.34144E-003	2.49660E-002	-1.54337E-003
	138	138	1.10015E+000	3.53915E-002	0.00000E+000	3.89361E-002	3.53053E-001	4.07727E-002	4.88632E+001	11	...........	6.80624E-002	-5.26736E-003	6.06059E-001	5.41249E-001	-2.69537E-002	-3.79154E-002	7.06209E-001	-4.36353E-002	2.40883E-003	-1.86420E-004	2.14494E-002	1.91556E-002	-9.53934E-004	-1.34188E-003	2.49938E-002	-1.54432E-003
	139	139	1.10021E+000	3.50409E-002	0.00000E+000	3.85522E-002	3.49566E-001	4.07251E-002	4.89525E+001	11	...........	6.79954E-002	-5.25917E-003	6.06057E-001	5.41300E-001	-2.69724E-002	-3.79196E-002	7.06130E-001	-4.37322E-002	2.38262E-003	-1.84286E-004	2.12368E-002	1.89676E-002	-9.45136E-004	-1.32874E-003	2.47434E-002	-1.53242E-003
	140	140	1.10009E+000	3.50889E-002	0.00000E+000	3.86010E-002	3.50042E-001	4.07706E-002	4.70505E+001	11	...........	6.80647E-002	-5.33944E-003	6.06154E-001	5.41340E-001	-2.69456E-002	-3.79035E-002	7.06204E-001	-4.38517E-002	2.38831E-003	-1.87355E-004	2.12693E-002	1.89950E-002	-9.45489E-004	-1.32999E-003	2.47799E-002	-1.53871E-003
	141	141	1.10015E+000	3.50465E-002	0.00000E+000	3.85565E-002	3.49622E-001	4.02209E-002	4.66535E+001	11	...........	6.71572E-002	-5.18431E-003	6.06099E-001	5.41394E-001	-2.69342E-002	-3.78908E-002	7.06056E-001	-4.37915E-002	2.35362E-003	-1.81692E-004	2.12416E-002	1.89740E-002	-9.43948E-004	-1.32794E-003	2.47448E-002	-1.53474E-003
	142	142	1.10021E+000	3.47860E-002	0.00000E+000	3.82718E-002	3.47027E-001	4.09536E-002	4.89532E+001	11	...........	6.83842E-002	-5.33500E-003	6.06115E-001	5.41455E-001	-2.69357E-002	-3.79199E-002	7.06143E-001	-4.37037E-002	2.37881E-003	-1.85583E-004	2.10843E-002	1.88350E-002	-9.36984E-004	-1.31908E-003	2.45639E-002	-1.52028E-003
	143	143	1.10009E+000	3.48511E-002	0.00000E+000	3.83395E-002	3.47680E-001	4.06506E-002	4.86634E+001	11	...........	6.78806E-002	-5.33583E-003	6.06057E-001	5.41468E-001	-2.69468E-002	-3.79428E-002	7.06244E-001	-4.37171E-002	2.36572E-003	-1.85960E-004	2.11218E-002	1.88708E-002	-9.39127E-004	-1.32235E-003	2.46134E-002	-1.52359E-003
	144	144	1.10015E+000	3.48433E-002	0.00000E+000	3.83330E-002	3.47601E-001	4.05043E-002	4.72618E+001	11	...........	6.76293E-002	-5.28611E-003	6.05884E-001	5.41412E-001	-2.69164E-002	-3.79487E-002	7.06242E-001	-4.37900E-002	2.35643E-003	-1.84186E-004	2.11110E-002	1.88646E-002	-9.37856E-004	-1.32226E-003	2.46078E-002	-1.52579E-003
	145	145	1.10021E+000	3.45410E-002	0.00000E+000	3.80023E-002	3.44595E-001	4.07436E-002	4.86770E+001	11	...........	6.80237E-002	-5.27708E-003	6.05977E-001	5.41353E-001	-2.69301E-002	-3.79529E-002	7.06270E-001	-4.38060E-002	2.34961E-003	-1.82276E-004	2.09311E-002	1.86989E-002	-9.30195E-004	-1.31093E-003	2.43953E-002	-1.51310E-003
	146	146	1.10009E+000	3.45899E-002	0.00000E+000	3.80520E-002	3.45078E-001	4.05403E-002	4.92074E+001	11	...........	6.76611E-002	-5.35722E-003	6.05935E-001	5.41270E-001	-2.69521E-002	-3.79722E-002	7.06224E-001	-4.38567E-002	2.34039E-003	-1.85306E-004	2.09592E-002	1.87225E-002	-9.32270E-004	-1.31345E-003	2.44282E-002	-1.51700E-003
	147	147	1.10015E+000	3.46575E-002	0.00000E+000	3.81285E-002	3.45754E-001	4.06212E-002	4.90976E+001	11	...........	6.78317E-002	-5.37292E-003	6.05907E-001	5.41147E-001	-2.69544E-002	-3.79476E-002	7.06331E-001	-4.38632E-002	2.35088E-003	-1.86212E-004	2.09992E-002	1.87548E-002	-9.34174E-004	-1.31517E-003	2.44797E-002	-1.52019E-003
	148	148	1.10021E+000	3.42571E-002	0.00000E+000	3.76901E-002	3.41769E-001	4.04862E-002	4.80522E+001	11	...........	6.75904E-002	-5.35583E-003	6.05957E-001	5.41243E-001	-2.69389E-002	-3.79644E-002	7.06299E-001	-4.37947E-002	2.31545E-003	-1.83475E-004	2.07583E-002	1.85414E-002	-9.22848E-004	-1.30055E-003	2.41957E-002	-1.50028E-003
	149	149	1.10009E+000	3.43047E-002	0.00000E+000	3.77384E-002	3.42248E-001	4.05212E-002	4.84507E+001	11	...........	6.76522E-002	-5.28750E-003	6.05945E-001	5.41343E-001	-2.69365E-002	-3.79929E-002	7.06260E-001	-4.38086E-002	2.32079E-003	-1.81386E-004	2.07868E-002	1.85706E-002	-9.24051E-004	-1.30334E-003	2.42281E-002	-1.50284E-003
	150	150	1.10015E+000	3.43882E-002	0.00000E+000	3.78321E-002	3.43069E-001	4.05654E-002	4.87567E+001	11	...........	6.77292E-002	-5.32875E-003	6.05808E-001	5.41317E-001	-2.69633E-002	-3.79926E-002	7.06221E-001	-4.38512E-002	2.32908E-003	-1.83246E-004	2.08326E-002	1.86149E-002	-9.27220E-004	-1.30650E-003	2.42856E-002	-1.50796E-003
	151	151	1.10021E+000	3.40403E-002	0.00000E+000	3.74516E-002	3.39616E-001	4.05592E-002	4.75959E+001	11	...........	6.77292E-002	-5.35486E-003	6.05819E-001	5.41336E-001	-2.69635E-002	-3.79881E-002	7.06183E-001	-4.39142E-002	2.30552E-003	-1.82281E-004	2.06223E-002	1.84273E-002	-9.17845E-004	-1.29313E-003	2.40387E-002	-1.49485E-003
	152	152	1.10009E+000	3.40292E-002	0.00000E+000	3.74352E-002	3.39501E-001	4.03090E-002	4.78933E+001	11	...........	6.72992E-002	-5.26292E-003	6.05734E-001	5.41295E-001	-2.69371E-002	-3.79560E-002	7.06288E-001	-4.38868E-002	2.29014E-003	-1.79093E-004	2.06126E-002	1.84198E-002	-9.16647E-004	-1.29161E-003	2.40344E-002	-1.49343E-003
	153	153	1.10015E+000	3.41881E-002	0.00000E+000	3.76119E-002	3.41082E-001	4.06546E-002	4.87713E+001	11	...........	6.78578E-002	-5.31042E-003	6.05804E-001	5.41439E-001	-2.69399E-002	-3.79521E-002	7.06141E-001	-4.39240E-002	2.31993E-003	-1.81553E-004	2.07113E-002	1.85108E-002	-9.21023E-004	-1.29751E-003	2.41416E-002	-1.50168E-003
	154	154	1.10022E+000	3.38455E-002	0.00000E+000	3.72373E-002	3.37676E-001	4.04346E-002	4.90723E+001	11	...........	6.75010E-002	-5.29750E-003	6.05768E-001	5.41477E-001	-2.69408E-002	-3.79415E-002	7.06168E-001	-4.38806E-002	2.28460E-003	-1.79296E-004	2.05025E-002	1.83265E-002	-9.11825E-004	-1.28415E-003	2.39006E-002	-1.48516E-003
	155	155	1.10009E+000	3.37808E-002	0.00000E+000	3.71619E-002	3.37030E-001	4.03557E-002	4.70907E+001	11	...........	6.73965E-002	-5.26292E-003	6.05789E-001	5.41537E-001	-2.69429E-002	-3.79428E-002	7.06117E-001	-4.38182E-002	2.27671E-003	-1.77785E-004	2.04640E-002	1.82935E-002	-9.10152E-004	-1.28174E-003	2.38532E-002	-1.48021E-003
	156	156	1.10014E+000	3.39539E-002	0.00000E+000	3.73542E-002	3.38753E-001	4.04851E-002	4.87879E+001	11	...........	6.75915E-002	-5.26083E-003	6.05920E-001	5.41265E-001	-2.69383E-002	-3.79389E-002	7.06200E-001	-4.37606E-002	2.29500E-003	-1.78626E-004	2.05733E-002	1.83781E-002	-9.14662E-004	-1.28817E-003	2.39783E-002	-1.48584E-003
	157	157	1.10021E+000	3.35746E-002	0.00000E+000	3.69393E-002	3.34979E-001	4.04387E-002	4.87421E+001	11	...........	6.75124E-002	-5.29014E-003	6.05963E-001	5.41222E-001	-2.69200E-002	-3.79521E-002	7.06231E-001	-4.38943E-002	2.26670E-003	-1.77614E-004	2.03450E-002	1.81713E-002	-9.03828E-004	-1.27423E-003	2.37114E-002	-1.47373E-003
	158	158	1.10009E+000	3.35642E-002	0.00000E+000	3.69238E-002	3.34881E-001	4.02154E-002	4.58421E+001	11	...........	6.71500E-002	-5.24014E-003	6.06004E-001	5.41231E-001	-2.69349E-002	-3.79664E-002	7.06120E-001	-4.39208E-002	2.25384E-003	-1.75881E-004	2.03400E-002	1.81660E-002	-9.04048E-004	-1.27431E-003	2.37004E-002	-1.47417E-003
	159	159	1.10014E+000	3.36835E-002	0.00000E+000	3.70567E-002	3.36067E-001	4.03893E-002	4.84918E+001	11	...........	6.74308E-002	-5.20528E-003	6.06167E-001	5.41405E-001	-2.69510E-002	-3.79618E-002	7.06092E-001	-4.37560E-002	2.27131E-003	-1.75332E-004	2.04178E-002	1.82364E-002	-9.07803E-004	-1.27869E-003	2.37837E-002	-1.47385E-003
	160	160	1.10022E+000	3.33874E-002	0.00000E+000	3.67333E-002	3.33124E-001	4.03516E-002	4.91206E+001	11	...........	6.73869E-002	-5.30153E-003	6.06333E-001	5.41436E-001	-2.69560E-002	-3.79797E-002	7.06081E-001	-4.38879E-002	2.24987E-003	-1.77004E-004	2.02439E-002	1.80771E-002	-8.99989E-004	-1.26804E-003	2.35742E-002	-1.46530E-003
	161	161	1.10009E+000	3.33749E-002	0.00000E+000	3.67155E-002	3.33003E-001	4.03657E-002	4.77350E+001	11	...........	6.74039E-002	-5.29917E-003	6.06434E-001	5.41345E-001	-2.69629E-002	-3.79876E-002	7.06002E-001	-4.39287E-002	2.24960E-003	-1.76859E-004	2.02397E-002	1.80673E-002	-8.99884E-004	-1.26783E-003	2.35627E-002	-1.46612E-003
	162	162	1.10014E+000	3.34307E-002	0.00000E+000	3.67785E-002	3.33556E-001	4.02440E-002	4.88421E+001	11	...........	6.71771E-002	-5.35319E-003	6.06451E-001	5.41364E-001	-2.69826E-002	-3.79854E-002	7.05956E-001	-4.38817E-002	2.24578E-003	-1.78961E-004	2.02741E-002	1.80982E-002	-9.02049E-004	-1.26988E-003	2.36006E-002	-1.46700E-003
	163	163	1.10022E+000	3.31468E-002	0.00000E+000	3.64687E-002	3.30733E-001	4.04344E-002	4.89833E+001	11	...........	6.75061E-002	-5.30903E-003	6.06543E-001	5.41291E-001	-2.69611E-002	-3.79849E-002	7.05944E-001	-4.38206E-002	2.23761E-003	-1.75977E-004	2.01050E-002	1.79420E-002	-8.93674E-004	-1.25908E-003	2.33998E-002	-1.45251E-003
	164	164	1.10009E+000	3.31059E-002	0.00000E+000	3.64196E-002	3.30327E-001	4.03140E-002	4.79183E+001	11	...........	6.73215E-002	-5.28375E-003	6.06438E-001	5.41385E-001	-2.69468E-002	-3.79832E-002	7.06048E-001	-4.37510E-002	2.22874E-003	-1.74923E-004	2.00767E-002	1.79230E-002	-8.92098E-004	-1.25747E-003	2.33744E-002	-1.44841E-003
	165	165	1.10014E+000	3.31746E-002	0.00000E+000	3.64967E-002	3.31010E-001	3.99604E-002	4.64666E+001	11	...........	6.67106E-002	-5.23125E-003	6.06512E-001	5.41536E-001	-2.69783E-002	-3.79785E-002	7.06057E-001	-4.37924E-002	2.21309E-003	-1.73544E-004	2.01208E-002	1.79652E-002	-8.94995E-004	-1.25992E-003	2.34231E-002	-1.45279E-003
	166	166	1.10022E+000	3.29161E-002	0.00000E+000	3.62150E-002	3.28442E-001	4.02352E-002	4.83394E+001	11	...........	6.71769E-002	-5.22472E-003	6.06632E-001	5.41599E-001	-2.70093E-002	-3.79683E-002	7.06096E-001	-4.38012E-002	2.21121E-003	-1.71978E-004	1.99680E-002	1.78274E-002	-8.89042E-004	-1.24977E-003	2.32420E-002	-1.44177E-003
	167	167	1.10010E+000	3.28908E-002	0.00000E+000	3.61830E-002	3.28187E-001	4.04193E-002	4.91855E+001	11	...........	6.74790E-002	-5.33722E-003	6.06670E-001	5.41569E-001	-2.70110E-002	-3.79618E-002	7.06132E-001	-4.38293E-002	2.21944E-003	-1.75545E-004	1.99538E-002	1.78126E-002	-8.88411E-004	-1.24859E-003	2.32252E-002	-1.44158E-003
	168	168	1.10014E+000	3.29768E-002	0.00000E+000	3.62790E-002	3.29042E-001	4.02096E-002	4.92191E+001	11	...........	6.71307E-002	-5.36694E-003	6.06629E-001	5.41476E-001	-2.69828E-002	-3.79656E-002	7.06063E-001	-4.38865E-002	2.21375E-003	-1.76984E-004	2.00047E-002	1.78561E-002	-8.89805E-004	-1.25198E-003	2.32837E-002	-1.44724E-003
	169	169	1.10022E+000	3.27056E-002	0.00000E+000	3.59833E-002	3.26348E-001	4.01883E-002	4.92238E+001	11	...........	6.71075E-002	-5.31639E-003	6.06670E-001	5.41466E-001	-2.69932E-002	-3.79622E-002	7.06066E-001	-4.38257E-002	2.19479E-003	-1.73876E-004	1.98415E-002	1.77090E-002	-8.82828E-004	-1.24158E-003	2.30923E-002	-1.43335E-003
	170	170	1.10010E+000	3.26484E-002	0.00000E+000	3.59164E-002	3.25777E-001	4.02006E-002	4.68398E+001	11	...........	6.71189E-002	-5.20347E-003	6.06482E-001	5.41482E-001	-2.69978E-002	-3.79681E-002	7.06114E-001	-4.38333E-002	2.19133E-003	-1.69885E-004	1.98007E-002	1.76786E-002	-8.81435E-004	-1.23960E-003	2.30535E-002	-1.43109E-003
	171	171	1.10014E+000	3.26915E-002	0.00000E+000	3.59651E-002	3.26204E-001	3.98556E-002	4.80462E+001	11	...........	6.65480E-002	-5.19403E-003	6.06432E-001	5.41478E-001	-2.69864E-002	-3.79886E-002	7.06063E-001	-4.37310E-002	2.17555E-003	-1.69800E-004	1.98252E-002	1.77017E-002	-8.82225E-004	-1.24190E-003	2.30822E-002	-1.42963E-003
	172	172	1.10022E+000	3.24844E-002	0.00000E+000	3.57399E-002	3.24146E-001	4.03229E-002	4.80821E+001	11	...........	6.73092E-002	-5.34000E-003	6.06432E-001	5.41466E-001	-2.69779E-002	-3.80246E-002	7.05996E-001	-4.38242E-002	2.18650E-003	-1.73467E-004	1.96996E-002	1.75892E-002	-8.76363E-004	-1.23521E-003	2.29339E-002	-1.42360E-003
	173	173	1.10010E+000	3.24386E-002	0.00000E+000	3.56856E-002	3.23688E-001	4.00878E-002	4.89362E+001	11	...........	6.69328E-002	-5.25542E-003	6.06347E-001	5.41408E-001	-2.69654E-002	-3.80382E-002	7.06044E-001	-4.38015E-002	2.17121E-003	-1.70478E-004	1.96690E-002	1.75625E-002	-8.74720E-004	-1.23391E-003	2.29031E-002	-1.42086E-003
	174	174	1.10014E+000	3.25451E-002	0.00000E+000	3.58041E-002	3.24745E-001	4.01411E-002	4.87179E+001	11	...........	6.70364E-002	-5.24361E-003	6.06477E-001	5.41345E-001	-2.69440E-002	-3.80539E-002	7.06109E-001	-4.37000E-002	2.18171E-003	-1.70654E-004	1.97379E-002	1.76181E-002	-8.76896E-004	-1.23847E-003	2.29804E-002	-1.42222E-003
	175	175	1.10022E+000	3.22633E-002	0.00000E+000	3.54967E-002	3.21942E-001	4.01017E-002	4.89680E+001	11	...........	6.69628E-002	-5.12847E-003	6.06418E-001	5.41309E-001	-2.69478E-002	-3.80314E-002	7.06190E-001	-4.37501E-002	2.16044E-003	-1.65462E-004	1.95651E-002	1.74644E-002	-8.69425E-004	-1.22702E-003	2.27840E-002	-1.41152E-003
	176	176	1.10010E+000	3.21702E-002	0.00000E+000	3.53903E-002	3.21019E-001	4.00985E-002	4.90143E+001	11	...........	6.69424E-002	-5.10583E-003	6.06570E-001	5.41322E-001	-2.69651E-002	-3.80294E-002	7.05994E-001	-4.37468E-002	2.15355E-003	-1.64255E-004	1.95135E-002	1.74144E-002	-8.67473E-004	-1.22341E-003	2.27119E-002	-1.40734E-003
	177	177	1.10014E+000	3.23033E-002	0.00000E+000	3.55380E-002	3.22341E-001	4.01659E-002	4.61489E+001	11	...........	6.70557E-002	-5.17194E-003	6.06648E-001	5.41482E-001	-2.69869E-002	-3.80453E-002	7.06059E-001	-4.37985E-002	2.16612E-003	-1.67071E-004	1.95967E-002	1.74916E-002	-8.71766E-004	-1.22899E-003	2.28080E-002	-1.41483E-003
	178	178	1.10022E+000	3.19743E-002	0.00000E+000	3.51786E-002	3.19074E-001	3.96136E-002	4.71634E+001	11	...........	6.61450E-002	-5.18792E-003	6.06496E-001	5.41415E-001	-2.69990E-002	-3.80194E-002	7.05936E-001	-4.38664E-002	2.11494E-003	-1.65880E-004	1.93922E-002	1.73113E-002	-8.63274E-004	-1.21564E-003	2.25718E-002	-1.40259E-003
	179	179	1.10010E+000	3.19667E-002	0.00000E+000	3.51667E-002	3.18999E-001	4.03402E-002	4.89505E+001	11	...........	6.73543E-002	-5.29403E-003	6.06669E-001	5.41366E-001	-2.70119E-002	-3.80139E-002	7.05915E-001	-4.37246E-002	2.15310E-003	-1.69233E-004	1.93932E-002	1.73057E-002	-8.63484E-004	-1.21518E-003	2.25658E-002	-1.39773E-003
	180	180	1.10013E+000	3.20543E-002	0.00000E+000	3.52641E-002	3.19869E-001	4.00176E-002	4.92171E+001	11	...........	6.68254E-002	-5.24986E-003	6.06706E-001	5.41368E-001	-2.70228E-002	-3.80201E-002	7.05995E-001	-4.38228E-002	2.14204E-003	-1.68281E-004	1.94476E-002	1.73532E-002	-8.66197E-004	-1.21871E-003	2.26302E-002	-1.40471E-003
	181	181	1.10022E+000	3.18454E-002	0.00000E+000	3.50369E-002	3.17797E-001	4.00088E-002	4.85454E+001	11	...........	6.68021E-002	-5.13292E-003	6.06622E-001	5.41344E-001	-2.70161E-002	-3.80175E-002	7.06056E-001	-4.38315E-002	2.12734E-003	-1.63460E-004	1.93181E-002	1.72393E-002	-8.60339E-004	-1.21068E-003	2.24846E-002	-1.39583E-003
	182	182	1.10010E+000	3.17281E-002	0.00000E+000	3.49042E-002	3.16624E-001	3.99981E-002	4.89090E+001	11	...........	6.67917E-002	-5.11417E-003	6.06499E-001	5.41188E-001	-2.70014E-002	-3.80224E-002	7.06123E-001	-4.39235E-002	2.11917E-003	-1.62263E-004	1.92431E-002	1.71709E-002	-8.56704E-004	-1.20638E-003	2.24040E-002	-1.39361E-003
	183	183	1.10013E+000	3.18412E-002	0.00000E+000	3.50295E-002	3.17750E-001	3.99840E-002	4.89589E+001	11	...........	6.67558E-002	-5.11125E-003	6.06479E-001	5.41151E-001	-2.69694E-002	-3.80150E-002	7.06239E-001	-4.39050E-002	2.12558E-003	-1.62748E-004	1.93110E-002	1.72309E-002	-8.58739E-004	-1.21044E-003	2.24875E-002	-1.39799E-003
	184	184	1.10021E+000	3.15982E-002	0.00000E+000	3.47648E-002	3.15333E-001	4.00480E-002	4.67142E+001	11	...........	6.68380E-002	-5.15042E-003	6.06532E-001	5.41137E-001	-2.69942E-002	-3.80197E-002	7.06099E-001	-4.38206E-002	2.11196E-003	-1.62744E-004	1.91653E-002	1.70989E-002	-8.52967E-004	-1.20136E-003	2.23115E-002	-1.38465E-003
	185	185	1.10010E+000	3.14289E-002	0.00000E+000	3.45751E-002	3.13655E-001	3.95595E-002	4.62948E+001	11	...........	6.60579E-002	-5.35444E-003	6.06401E-001	5.41179E-001	-2.69986E-002	-3.80269E-002	7.06112E-001	-4.37492E-002	2.07613E-003	-1.68285E-004	1.90585E-002	1.70087E-002	-8.48538E-004	-1.19515E-003	2.21924E-002	-1.37499E-003
	186	186	1.10013E+000	3.16005E-002	0.00000E+000	3.47648E-002	3.15356E-001	4.01362E-002	4.82090E+001	11	...........	6.70150E-002	-5.33250E-003	6.06522E-001	5.41125E-001	-2.70171E-002	-3.80174E-002	7.06140E-001	-4.37325E-002	2.11771E-003	-1.68510E-004	1.91664E-002	1.70998E-002	-8.53753E-004	-1.20137E-003	2.23144E-002	-1.38197E-003
	187	187	1.10021E+000	3.14115E-002	0.00000E+000	3.45593E-002	3.13479E-001	3.99599E-002	4.90242E+001	11	...........	6.67139E-002	-5.29472E-003	6.06490E-001	5.41105E-001	-2.70046E-002	-3.80111E-002	7.06313E-001	-4.38178E-002	2.09558E-003	-1.66315E-004	1.90508E-002	1.69969E-002	-8.48255E-004	-1.19399E-003	2.21864E-002	-1.37638E-003
	188	188	1.10011E+000	3.12708E-002	0.00000E+000	3.44013E-002	3.12079E-001	3.98708E-002	4.91075E+001	11	...........	6.65818E-002	-5.27722E-003	6.06530E-001	5.41121E-001	-2.70072E-002	-3.79958E-002	7.06263E-001	-4.38290E-002	2.08207E-003	-1.65023E-004	1.89667E-002	1.69213E-002	-8.44539E-004	-1.18816E-003	2.20855E-002	-1.37057E-003
	189	189	1.10013E+000	3.14119E-002	0.00000E+000	3.45572E-002	3.13480E-001	3.99226E-002	4.81911E+001	11	...........	6.66626E-002	-5.29625E-003	6.06579E-001	5.41003E-001	-2.70147E-002	-3.80125E-002	7.06209E-001	-4.36997E-002	2.09400E-003	-1.66365E-004	1.90538E-002	1.69939E-002	-8.48584E-004	-1.19404E-003	2.21833E-002	-1.37269E-003
	190	190	1.10021E+000	3.12045E-002	0.00000E+000	3.43316E-002	3.11417E-001	3.99073E-002	4.87902E+001	11	...........	6.66367E-002	-5.30014E-003	6.06618E-001	5.41038E-001	-2.70110E-002	-3.80217E-002	7.06118E-001	-4.35932E-002	2.07937E-003	-1.65388E-004	1.89292E-002	1.68829E-002	-8.42865E-004	-1.18645E-003	2.20341E-002	-1.36031E-003
	191	191	1.10011E+000	3.10555E-002	0.00000E+000	3.41644E-002	3.09937E-001	3.99003E-002	4.75763E+001	11	...........	6.66156E-002	-5.23847E-003	6.06678E-001	5.41040E-001	-2.70310E-002	-3.80192E-002	7.06020E-001	-4.37418E-002	2.06878E-003	-1.62683E-004	1.88407E-002	1.68023E-002	-8.39461E-004	-1.18070E-003	2.19258E-002	-1.35842E-003
	192	192	1.10013E+000	3.11689E-002	0.00000E+000	3.42900E-002	3.11065E-001	3.96913E-002	4.83821E+001	11	...........	6.62921E-002	-5.24792E-003	6.06560E-001	5.41252E-001	-2.69985E-002	-3.80106E-002	7.05973E-001	-4.38479E-002	2.06625E-003	-1.63572E-004	1.89058E-002	1.68703E-002	-8.41514E-004	-1.18475E-003	2.20044E-002	-1.36669E-003
	193	193	1.10021E+000	3.09766E-002	0.00000E+000	3.40808E-002	3.09156E-001	3.98938E-002	4.64745E+001	11	...........	6.66219E-002	-5.28208E-003	6.06524E-001	5.41185E-001	-2.69814E-002	-3.80085E-002	7.06020E-001	-4.38544E-002	2.06372E-003	-1.63621E-004	1.87880E-002	1.67641E-002	-8.35791E-004	-1.17737E-003	2.18701E-002	-1.35846E-003
	194	194	1.10011E+000	3.08208E-002	0.00000E+000	3.39063E-002	3.07601E-001	3.97159E-002	4.87152E+001	11	...........	6.63235E-002	-5.15111E-003	6.06537E-001	5.41257E-001	-2.69744E-002	-3.80251E-002	7.06102E-001	-4.37407E-002	2.04414E-003	-1.58762E-004	1.86940E-002	1.66820E-002	-8.31375E-004	-1.17197E-003	2.17627E-002	-1.34812E-003
	195	195	1.10013E+000	3.09795E-002	0.00000E+000	3.40814E-002	3.09179E-001	3.99113E-002	4.91583E+001	11	...........	6.66444E-002	-5.30444E-003	6.06782E-001	5.41438E-001	-2.69825E-002	-3.80140E-002	7.06226E-001	-4.37664E-002	2.06461E-003	-1.64329E-004	1.87978E-002	1.67735E-002	-8.35903E-004	-1.17765E-003	2.18785E-002	-1.35586E-003
	196	196	1.10021E+000	3.07632E-002	0.00000E+000	3.38460E-002	3.07034E-001	3.97312E-002	4.84930E+001	11	...........	6.63368E-002	-5.32403E-003	6.06756E-001	5.41508E-001	-2.69982E-002	-3.80140E-002	7.06196E-001	-4.37908E-002	2.04073E-003	-1.63784E-004	1.86657E-002	1.66585E-002	-8.30550E-004	-1.16943E-003	2.17248E-002	-1.34714E-003
	197	197	1.10011E+000	3.06068E-002	0.00000E+000	3.36710E-002	3.05477E-001	3.98402E-002	4.86911E+001	11	...........	6.65165E-002	-5.31528E-003	6.06746E-001	5.41487E-001	-2.70233E-002	-3.80336E-002	7.06129E-001	-4.37469E-002	2.03586E-003	-1.62684E-004	1.85706E-002	1.65732E-002	-8.27098E-004	-1.16409E-003	2.16124E-002	-1.33896E-003
	198	198	1.10013E+000	3.07155E-002	0.00000E+000	3.37911E-002	3.06559E-001	3.96151E-002	4.65452E+001	11	...........	6.61439E-002	-5.43542E-003	6.06754E-001	5.41431E-001	-2.70157E-002	-3.80297E-002	7.06027E-001	-4.38592E-002	2.03165E-003	-1.66952E-004	1.86368E-002	1.66304E-002	-8.29802E-004	-1.16810E-003	2.16860E-002	-1.34716E-003
	199	199	1.10021E+000	3.05817E-002	0.00000E+000	3.36462E-002	3.05230E-001	3.96792E-002	4.84194E+001	11	...........	6.62490E-002	-5.30014E-003	6.06849E-001	5.41431E-001	-2.69768E-002	-3.80410E-002	7.06033E-001	-4.37421E-002	2.02601E-003	-1.62087E-004	1.85585E-002	1.65579E-002	-8.24997E-004	-1.16336E-003	2.15917E-002	-1.33771E-003
	200	200	1.10012E+000	3.04026E-002	0.00000E+000	3.34464E-002	3.03450E-001	3.97291E-002	4.91211E+001	11	...........	6.63562E-002	-5.31639E-003	6.06976E-001	5.41423E-001	-2.69394E-002	-3.80119E-002	7.05987E-001	-4.37604E-002	2.01740E-003	-1.61632E-004	1.84536E-002	1.64607E-002	-8.19029E-004	-1.15566E-003	2.14638E-002	-1.33043E-003
	201	201	1.10013E+000	3.05280E-002	0.00000E+000	3.35848E-002	3.04697E-001	3.97435E-002	4.67100E+001	11	...........	6.63674E-002	-5.27347E-003	6.07084E-001	5.41361E-001	-2.69132E-002	-3.79949E-002	7.06085E-001	-4.39328E-002	2.02606E-003	-1.60989E-004	1.85331E-002	1.65267E-002	-8.21607E-004	-1.15991E-003	2.15554E-002	-1.34118E-003
	202	202	1.10020E+000	3.03734E-002	0.00000E+000	3.34169E-002	3.03162E-001	3.96199E-002	4.88615E+001	11	...........	6.61564E-002	-5.22014E-003	6.06986E-001	5.41201E-001	-2.68967E-002	-3.79944E-002	7.05993E-001	-4.38503E-002	2.00939E-003	-1.58553E-004	1.84362E-002	1.64381E-002	-8.16942E-004	-1.15402E-003	2.14434E-002	-1.33188E-003
	203	203	1.10012E+000	3.01888E-002	0.00000E+000	3.32113E-002	3.01327E-001	3.97335E-002	4.91693E+001	11	...........	6.63453E-002	-5.21181E-003	6.06938E-001	5.41047E-001	-2.68881E-002	-3.80039E-002	7.05902E-001	-4.38019E-002	2.00288E-003	-1.57338E-004	1.83227E-002	1.63335E-002	-8.11717E-004	-1.14729E-003	2.13103E-002	-1.32233E-003
	204	204	1.10013E+000	3.03326E-002	0.00000E+000	3.33697E-002	3.02753E-001	3.96899E-002	4.89062E+001	11	...........	6.62717E-002	-5.24944E-003	6.07002E-001	5.41197E-001	-2.69111E-002	-3.80251E-002	7.05876E-001	-4.38282E-002	2.01019E-003	-1.59229E-004	1.84119E-002	1.64159E-002	-8.16283E-004	-1.15340E-003	2.14110E-002	-1.32942E-003
	205	205	1.10020E+000	3.01519E-002	0.00000E+000	3.31732E-002	3.00958E-001	3.96669E-002	4.63371E+001	11	...........	6.62358E-002	-5.35931E-003	6.07018E-001	5.41308E-001	-2.68999E-002	-3.79871E-002	7.05965E-001	-4.38317E-002	1.99713E-003	-1.61593E-004	1.83027E-002	1.63214E-002	-8.11081E-004	-1.14538E-003	2.12862E-002	-1.32161E-003
	206	206	1.10012E+000	2.99500E-002	0.00000E+000	3.29486E-002	2.98951E-001	3.92834E-002	4.79274E+001	11	...........	6.56057E-002	-5.20583E-003	6.07050E-001	5.41214E-001	-2.69076E-002	-3.79876E-002	7.06001E-001	-4.38336E-002	1.96489E-003	-1.55915E-004	1.81811E-002	1.62093E-002	-8.05883E-004	-1.13773E-003	2.11447E-002	-1.31282E-003
	207	207	1.10013E+000	3.01444E-002	0.00000E+000	3.31627E-002	3.00881E-001	3.98375E-002	4.92712E+001	11	...........	6.65304E-002	-5.19542E-003	6.07055E-001	5.41186E-001	-2.69343E-002	-3.80153E-002	7.06039E-001	-4.38519E-002	2.00552E-003	-1.56613E-004	1.82993E-002	1.63137E-002	-8.11918E-004	-1.14595E-003	2.12831E-002	-1.32189E-003
	208	208	1.10020E+000	2.99942E-002	0.00000E+000	3.29997E-002	2.99390E-001	3.96509E-002	4.93483E+001	11	...........	6.62054E-002	-5.17083E-003	6.07222E-001	5.41133E-001	-2.69421E-002	-3.79964E-002	7.05990E-001	-4.38404E-002	1.98578E-003	-1.55095E-004	1.82132E-002	1.62309E-002	-8.08107E-004	-1.13967E-003	2.11756E-002	-1.31496E-003
	209	209	1.10013E+000	2.97403E-002	0.00000E+000	3.27181E-002	2.96866E-001	3.96040E-002	4.69930E+001	11	...........	6.60918E-002	-5.19667E-003	6.07364E-001	5.41230E-001	-2.69371E-002	-3.79926E-002	7.05963E-001	-4.37704E-002	1.96559E-003	-1.54550E-004	1.80632E-002	1.60964E-002	-8.01117E-004	-1.12991E-003	2.09956E-002	-1.30175E-003
	210	210	1.10012E+000	2.99306E-002	0.00000E+000	3.29274E-002	2.98760E-001	3.95311E-002	4.88533E+001	11	...........	6.60110E-002	-5.18194E-003	6.07311E-001	5.41303E-001	-2.69439E-002	-3.80019E-002	7.05958E-001	-4.38322E-002	1.97575E-003	-1.55099E-004	1.81772E-002	1.62015E-002	-8.06447E-004	-1.13742E-003	2.11298E-002	-1.31193E-003
	211	211	1.10020E+000	2.98008E-002	0.00000E+000	3.27869E-002	2.97467E-001	3.95398E-002	4.91209E+001	11	...........	6.60211E-002	-5.14514E-003	6.07225E-001	5.41311E-001	-2.69490E-002	-3.80046E-002	7.06038E-001	-4.38900E-002	1.96748E-003	-1.53329E-004	1.80958E-002	1.61315E-002	-8.03103E-004	-1.13257E-003	2.10405E-002	-1.30796E-003
	212	212	1.10013E+000	2.95630E-002	0.00000E+000	3.25231E-002	2.95106E-001	3.95439E-002	4.90049E+001	11	...........	6.60365E-002	-5.20292E-003	6.07175E-001	5.41410E-001	-2.69622E-002	-3.80058E-002	7.06075E-001	-4.37922E-002	1.95224E-003	-1.53814E-004	1.79499E-002	1.60057E-002	-7.97085E-004	-1.12357E-003	2.08737E-002	-1.29463E-003
	213	213	1.10013E+000	2.96806E-002	0.00000E+000	3.26524E-002	2.96275E-001	3.95792E-002	4.60257E+001	11	...........	6.60676E-002	-5.16819E-003	6.07242E-001	5.41230E-001	-2.69549E-002	-3.79965E-002	7.06028E-001	-4.37872E-002	1.96093E-003	-1.53395E-004	1.80233E-002	1.60640E-002	-8.00036E-004	-1.12776E-003	2.09553E-002	-1.29963E-003
	214	214	1.10020E+000	2.95875E-002	0.00000E+000	3.25521E-002	2.95351E-001	3.94070E-002	4.82152E+001	11	...........	6.57971E-002	-5.06542E-003	6.07215E-001	5.41307E-001	-2.69578E-002	-3.79929E-002	7.06047E-001	-4.37990E-002	1.94677E-003	-1.49873E-004	1.79660E-002	1.60160E-002	-7.97614E-004	-1.12412E-003	2.08902E-002	-1.29591E-003
	215	215	1.10013E+000	2.93584E-002	0.00000E+000	3.22980E-002	2.93069E-001	3.95608E-002	4.90643E+001	11	...........	6.60521E-002	-5.14958E-003	6.07223E-001	5.41222E-001	-2.69708E-002	-3.79828E-002	7.06238E-001	-4.38399E-002	1.93918E-003	-1.51183E-004	1.78271E-002	1.58894E-002	-7.91820E-004	-1.11511E-003	2.07340E-002	-1.28707E-003
	216	216	1.10013E+000	2.94812E-002	0.00000E+000	3.24330E-002	2.94292E-001	3.93111E-002	4.67367E+001	11	...........	6.59822E-002	-5.11319E-003	6.07272E-001	5.41261E-001	-2.69672E-002	-3.79837E-002	7.06125E-001	-4.39160E-002	1.94523E-003	-1.50743E-004	1.79031E-002	1.59570E-002	-7.95026E-004	-1.11981E-003	2.08174E-002	-1.29470E-003
	217	217	1.10020E+000	2.93774E-002	0.00000E+000	3.23208E-002	2.93254E-001	3.93588E-002	4.85914E+001	11	...........	6.57150E-002	-5.13500E-003	6.07080E-001	5.41326E-001	-2.69454E-002	-3.79754E-002	7.06072E-001	-4.38628E-002	1.93053E-003	-1.50853E-004	1.78344E-002	1.59027E-002	-7.91585E-004	-1.11562E-003	2.07425E-002	-1.28857E-003
	218	218	1.10013E+000	2.91525E-002	0.00000E+000	3.20716E-002	2.91023E-001	3.95944E-002	4.90624E+001	11	...........	6.61090E-002	-5.29819E-003	6.07075E-001	5.41497E-001	-2.69453E-002	-3.79942E-002	7.06200E-001	-4.38679E-002	1.92724E-003	-1.54455E-004	1.76977E-002	1.57860E-002	-7.85521E-004	-1.10762E-003	2.05875E-002	-1.27886E-003
	219	219	1.10012E+000	2.92896E-002	0.00000E+000	3.22222E-002	2.92389E-001	3.94337E-002	4.90767E+001	11	...........	6.58454E-002	-5.34722E-003	6.06913E-001	5.41624E-001	-2.69283E-002	-3.79793E-002	7.06161E-001	-4.38071E-002	1.92859E-003	-1.56618E-004	1.77763E-002	1.58640E-002	-7.88721E-004	-1.11240E-003	2.06832E-002	-1.28309E-003
	220	220	1.10020E+000	2.91761E-002	0.00000E+000	3.20994E-002	2.91258E-001	3.95434E-002	4.83391E+001	11	...........	6.60343E-002	-5.40083E-003	6.06811E-001	5.41594E-001	-2.69296E-002	-3.79733E-002	7.06189E-001	-4.38576E-002	1.92662E-003	-1.57575E-004	1.77044E-002	1.58016E-002	-7.85700E-004	-1.10791E-003	2.06038E-002	-1.27960E-003
	221	221	1.10013E+000	2.89236E-002	0.00000E+000	3.18198E-002	2.88748E-001	3.91414E-002	4.61839E+001	11	...........	6.53583E-002	-5.33792E-003	6.06841E-001	5.41697E-001	-2.69394E-002	-3.80011E-002	7.06212E-001	-4.38831E-002	1.89040E-003	-1.54392E-004	1.75520E-002	1.56678E-002	-7.79185E-004	-1.09913E-003	2.04262E-002	-1.26925E-003
	222	222	1.10012E+000	2.90787E-002	0.00000E+000	3.19901E-002	2.90291E-001	3.95318E-002	4.87443E+001	11	...........	6.60131E-002	-5.24278E-003	6.06800E-001	5.41749E-001	-2.69315E-002	-3.79954E-002	7.06273E-001	-4.37681E-002	1.91957E-003	-1.52453E-004	1.76449E-002	1.57533E-002	-7.83133E-004	-1.10486E-003	2.05375E-002	-1.27272E-003
	223	223	1.10019E+000	2.89956E-002	0.00000E+000	3.19007E-002	2.89464E-001	3.94524E-002	4.75849E+001	11	...........	6.58785E-002	-5.26250E-003	6.06830E-001	5.41764E-001	-2.69111E-002	-3.79925E-002	7.06257E-001	-4.38226E-002	1.91018E-003	-1.52589E-004	1.75954E-002	1.57088E-002	-7.80303E-004	-1.10161E-003	2.04783E-002	-1.27066E-003
	224	224	1.10014E+000	2.87160E-002	0.00000E+000	3.15916E-002	2.86688E-001	3.91904E-002	4.81934E+001	11	...........	6.54349E-002	-5.28042E-003	6.06641E-001	5.41802E-001	-2.69268E-002	-3.79769E-002	7.06173E-001	-4.38203E-002	1.87903E-003	-1.51633E-004	1.74203E-002	1.55584E-002	-7.73231E-004	-1.09055E-003	2.02785E-002	-1.25834E-003
	225	225	1.10012E+000	2.88951E-002	0.00000E+000	3.17881E-002	2.88470E-001	3.96276E-002	4.90315E+001	11	...........	6.61606E-002	-5.37542E-003	6.06526E-001	5.41753E-001	-2.69339E-002	-3.79829E-002	7.06206E-001	-4.37937E-002	1.91171E-003	-1.55323E-004	1.75256E-002	1.56540E-002	-7.78256E-004	-1.09752E-003	2.04059E-002	-1.26542E-003
	226	226	1.10019E+000	2.87881E-002	0.00000E+000	3.16724E-002	2.87402E-001	3.93912E-002	4.92175E+001	11	...........	6.57685E-002	-5.41625E-003	6.06518E-001	5.41752E-001	-2.69508E-002	-3.80079E-002	7.06382E-001	-4.38731E-002	1.89335E-003	-1.55923E-004	1.74605E-002	1.55960E-002	-7.75862E-004	-1.09417E-003	2.03354E-002	-1.26302E-003
	227	227	1.10014E+000	2.85273E-002	0.00000E+000	3.13840E-002	2.84807E-001	3.93825E-002	4.91357E+001	11	...........	6.57506E-002	-5.36667E-003	6.06396E-001	5.41746E-001	-2.69590E-002	-3.80139E-002	7.06313E-001	-4.38388E-002	1.87569E-003	-1.53096E-004	1.72988E-002	1.54546E-002	-7.69068E-004	-1.08443E-003	2.01492E-002	-1.25060E-003
	228	227.337	1.10025E+000	2.88309E-002	0.00000E+000	3.17211E-002	2.87826E-001	3.92562E-002	4.92599E+001	11	...........	6.55450E-002	-5.28919E-003	6.06451E-001	5.41803E-001	-2.69604E-002	-3.80367E-002	7.06229E-001	-4.37595E-002	1.88972E-003	-1.52492E-004	1.74845E-002	1.56207E-002	-7.77292E-004	-1.09663E-003	2.03612E-002	-1.26162E-003
STARTTIMEOFFSET	QUANT	630503.6	Start Time Offset (s)
