EXPLAIN
TAG	PWR800_CHARGE
TITLE	LABEL	PWR Charge	Test Identifier
DATE	LABEL	10/13/2022	Date
TIME	LABEL	3:48:37	Time
NOTES	NOTES	1	Notes...
	
PSTAT	PSTAT	REF3000-21114	Potentiostat
CAPACITY	QUANT	5.30000E-002	Capacity (A-hr)
CELLTYPE	SELECTOR	1	Cell Type
WORKINGCONNECTION	SELECTOR	0	Working Connection
MAXCHARGETIME	VARIABLEANDUNITS	7.20000E+003	s	2.00000E+000	hour(s)	Max Charge Time
CHARGEMODE	MULTIPARAM	0	1.00000E-001	Charge Mode	Constant Current	Amp(s)
CHARGECURRENT	QUANT	0.1	Charge Current (A)
VOLTAGEFINISH	TWOPARAM	T	2.50000E-002	7.20000E+003	Voltage Finish	I (A) <	Max Time(s)
SAMPLETIME	QUANT	1.00000E+000	Sample Period (s)
CHARGESTOPAT1	MULTIPARAM	2	1.10000E+000	Stop At 1	|Voltage| > Limit	V
CHARGESTOPAT2	MULTIPARAM	0	0.00000E+000	Stop At 2	None	N/A
AESELECTOR	AESELECTOR	0x1	T	Set Limits	AE Channels
AESBHCSELECTOR	TOGGLE	F	Save Both Half Cells
IRCOMP	TOGGLE	F	IR Measure
EOC	QUANT	0.1893409	Open Circuit (V)
SEQUENCER	TOGGLE	TRUE	Run as Sequence
PSTATMODEL	IQUANT	5	Pstat Model
PSTATSECTION	LABEL	REF3000-21114	Pstat Section
PSTATSERIALNO	LABEL	21114	Pstat Serial Number
CTRLMODE	IQUANT	0	Control Mode
ELECTROMETER	IQUANT	0	RE=0 or CS=1
IESTAB	IQUANT	0	I/E Stability
CASPEED	IQUANT	4	Control Amp Speed
CONVENTION	IQUANT	1	Current Convention
ICHRANGE	IQUANT	2	Ich Range
ICHRANGEMODE	TOGGLE	T	Ich Auto Range
ICHOFFSETENABLE	TOGGLE	F	Ich Offset Enable
ICHOFFSET	QUANT	0	Ich Offset (V)
ICHFILTER	IQUANT	1	Ich Filter
VCHRANGE	IQUANT	3	Vch Range
VCHRANGEMODE	TOGGLE	T	Vch Auto Range
VCHOFFSETENABLE	TOGGLE	F	Vch Offset Enable
VCHOFFSET	QUANT	0	Vch Offset (V)
VCHFILTER	IQUANT	1	Vch Filter
ACHRANGE	IQUANT	2	Ach Range
ACHOFFSETENABLE	TOGGLE	F	Ach Offset Enable
ACHOFFSET	QUANT	0	Ach Offset (V)
ACHFILTER	IQUANT	1	Ach Filter
IERANGELOWERLIMIT	IQUANT	9	I/E Range Lower Limit
IERANGEMODE	TOGGLE	F	I/E AutoRange
IERANGE	IQUANT	9	I/E Range
POSFEEDENABLE	TOGGLE	F	Positive Feedback IR Comp
POSFEEDRESISTANCE	QUANT	0	Positive Feedback Resistance (ohm)
ACHSELECT	IQUANT	1	Ach Select
SENSECABLEID	IQUANT	13	Sense Cable ID
PWRCABLEID	IQUANT	13	Power Cable ID
DCCALDATE	LABEL		DC Calibration Date
ACCALDATE	LABEL		AC Calibration Date
THERMOSELECT	IQUANT	1	Thermo Select
FRAMEWORKVERSION	LABEL	7.8.6	Framework Version
INSTRUMENTVERSION	LABEL	4.50	Instrument Version
COMPLIANCEVOLTAGE	IQUANT	0	Compliance Voltage
CURVE	TABLE	144
	Pt	T	Vf	Im	Vu	Pwr	Sig	Ach	Temp	IERange	Over	Vf1	Vf2	Vf3	Vf4	Vf5	Vf6	Vf7	Vf8	Pwr1	Pwr2	Pwr3	Pwr4	Pwr5	Pwr6	Pwr7	Pwr8
	#	s	V	A	V	W	V	V	deg C	#	bits	V	V	V	V	V	V	V	V	W	W	W	W	W	W	W	W
	0	1	4.73358E-001	9.98416E-002	0.00000E+000	4.72608E-002	9.94000E-001	4.21833E-002	4.14638E+001	11	...........	7.00858E-002	-5.17375E-003	5.89676E-001	5.67177E-001	-2.82549E-002	-3.91458E-002	6.85796E-001	-4.39472E-002	6.99748E-003	-5.16555E-004	5.88742E-002	5.66278E-002	-2.82101E-003	-3.90838E-003	6.84710E-002	-4.38776E-003
	1	2	6.56158E-001	9.98424E-002	0.00000E+000	6.55124E-002	9.94000E-001	4.24873E-002	4.38890E+001	11	...........	7.05912E-002	-5.19278E-003	5.89574E-001	5.67015E-001	-2.82093E-002	-3.91579E-002	6.85623E-001	-4.39240E-002	7.04800E-003	-5.18459E-004	5.88645E-002	5.66121E-002	-2.81649E-003	-3.90962E-003	6.84543E-002	-4.38548E-003
	2	2.67333	9.62286E-001	9.98436E-002	0.00000E+000	9.60781E-002	9.94000E-001	4.34407E-002	5.03100E+001	11	...........	7.21522E-002	-5.31869E-003	5.89767E-001	5.66901E-001	-2.82321E-002	-3.91537E-002	6.85666E-001	-4.39103E-002	7.20394E-003	-5.31037E-004	5.88845E-002	5.66014E-002	-2.81879E-003	-3.90924E-003	6.84594E-002	-4.38416E-003
	3	3	1.10129E+000	8.24564E-002	0.00000E+000	9.08082E-002	8.21105E-001	4.31763E-002	5.28512E+001	11	...........	7.17020E-002	-5.35374E-003	5.89886E-001	5.66860E-001	-2.81492E-002	-3.91531E-002	6.85704E-001	-4.39048E-002	5.91228E-003	-4.41450E-004	4.86399E-002	4.67413E-002	-2.32108E-003	-3.22842E-003	5.65407E-002	-3.62023E-003
	4	4	1.10042E+000	6.32101E-002	0.00000E+000	6.95574E-002	6.29717E-001	4.31676E-002	5.17452E+001	11	...........	7.16862E-002	-5.34500E-003	5.90098E-001	5.66981E-001	-2.82183E-002	-3.91225E-002	6.85633E-001	-4.39590E-002	4.53130E-003	-3.37858E-004	3.73002E-002	3.58389E-002	-1.78368E-003	-2.47294E-003	4.33390E-002	-2.77866E-003
	5	5	1.10035E+000	5.45522E-002	0.00000E+000	6.00265E-002	5.43616E-001	4.28450E-002	5.10711E+001	11	...........	7.11432E-002	-5.30208E-003	5.90047E-001	5.67061E-001	-2.82137E-002	-3.91071E-002	6.85510E-001	-4.38410E-002	3.88102E-003	-2.89240E-004	3.21884E-002	3.09344E-002	-1.53912E-003	-2.13338E-003	3.73961E-002	-2.39162E-003
	6	6	1.10043E+000	5.01172E-002	0.00000E+000	5.51505E-002	4.99513E-001	4.29497E-002	5.03628E+001	11	...........	7.13168E-002	-5.16097E-003	5.89976E-001	5.67048E-001	-2.82068E-002	-3.91017E-002	6.85451E-001	-4.38460E-002	3.57420E-003	-2.58654E-004	2.95679E-002	2.84189E-002	-1.41365E-003	-1.95967E-003	3.43529E-002	-2.19744E-003
	7	7	1.10027E+000	4.73016E-002	0.00000E+000	5.20447E-002	4.71527E-001	4.29210E-002	4.98335E+001	11	...........	7.12849E-002	-5.13042E-003	5.89919E-001	5.66923E-001	-2.82187E-002	-3.90901E-002	6.85407E-001	-4.38242E-002	3.37189E-003	-2.42677E-004	2.79041E-002	2.68164E-002	-1.33479E-003	-1.84903E-003	3.24209E-002	-2.07295E-003
	8	8	1.10031E+000	4.56398E-002	0.00000E+000	5.02179E-002	4.55001E-001	4.29007E-002	4.93826E+001	11	...........	7.12628E-002	-5.04389E-003	5.89932E-001	5.66864E-001	-2.82226E-002	-3.90982E-002	6.85383E-001	-4.39297E-002	3.25242E-003	-2.30202E-004	2.69244E-002	2.58716E-002	-1.28808E-003	-1.78443E-003	3.12807E-002	-2.00494E-003
	9	9	1.10040E+000	4.39721E-002	0.00000E+000	4.83871E-002	4.38418E-001	4.28826E-002	4.90014E+001	11	...........	7.12347E-002	-5.03750E-003	5.90028E-001	5.66739E-001	-2.82165E-002	-3.91042E-002	6.85340E-001	-4.38558E-002	3.13234E-003	-2.21510E-004	2.59448E-002	2.49207E-002	-1.24074E-003	-1.71949E-003	3.01359E-002	-1.92843E-003
	10	10	1.10027E+000	4.27813E-002	0.00000E+000	4.70708E-002	4.26575E-001	4.28577E-002	4.87030E+001	11	...........	7.11875E-002	-4.89292E-003	5.89990E-001	5.66812E-001	-2.82333E-002	-3.90833E-002	6.85456E-001	-4.39562E-002	3.04550E-003	-2.09325E-004	2.52405E-002	2.42490E-002	-1.20786E-003	-1.67204E-003	2.93247E-002	-1.88051E-003
	11	11	1.10030E+000	4.22294E-002	0.00000E+000	4.64649E-002	4.21090E-001	4.28358E-002	4.84807E+001	11	...........	7.11585E-002	-4.83472E-003	5.89950E-001	5.67000E-001	-2.82306E-002	-3.91192E-002	6.85571E-001	-4.40113E-002	3.00498E-003	-2.04167E-004	2.49132E-002	2.39440E-002	-1.19216E-003	-1.65198E-003	2.89512E-002	-1.85857E-003
	12	12	1.10039E+000	4.14061E-002	0.00000E+000	4.55630E-002	4.12899E-001	4.30514E-002	4.81621E+001	11	...........	7.15193E-002	-4.98917E-003	5.89862E-001	5.66992E-001	-2.82178E-002	-3.91118E-002	6.85693E-001	-4.39258E-002	2.96134E-003	-2.06582E-004	2.44239E-002	2.34769E-002	-1.16839E-003	-1.61947E-003	2.83919E-002	-1.81880E-003
	13	13	1.10027E+000	4.08147E-002	0.00000E+000	4.49070E-002	4.07018E-001	4.26347E-002	4.81236E+001	11	...........	7.07928E-002	-4.86681E-003	5.89803E-001	5.67010E-001	-2.82178E-002	-3.91086E-002	6.85567E-001	-4.39257E-002	2.88938E-003	-1.98637E-004	2.40726E-002	2.31423E-002	-1.15170E-003	-1.59620E-003	2.79812E-002	-1.79281E-003
	14	14	1.10029E+000	4.06926E-002	0.00000E+000	4.47738E-002	4.05803E-001	4.27797E-002	4.79901E+001	11	...........	7.10325E-002	-4.84903E-003	5.89944E-001	5.67153E-001	-2.82203E-002	-3.91107E-002	6.85537E-001	-4.39983E-002	2.89050E-003	-1.97320E-004	2.40063E-002	2.30789E-002	-1.14836E-003	-1.59152E-003	2.78963E-002	-1.79041E-003
	15	15	1.10038E+000	4.02618E-002	0.00000E+000	4.43034E-002	4.01526E-001	4.27424E-002	4.78789E+001	11	...........	7.09799E-002	-4.84264E-003	5.90008E-001	5.67141E-001	-2.82414E-002	-3.91237E-002	6.85505E-001	-4.41479E-002	2.85777E-003	-1.94973E-004	2.37548E-002	2.28341E-002	-1.13705E-003	-1.57519E-003	2.75997E-002	-1.77747E-003
	16	16	1.10027E+000	3.98983E-002	0.00000E+000	4.38990E-002	3.97913E-001	4.27098E-002	4.78570E+001	11	...........	7.09411E-002	-4.89875E-003	5.89947E-001	5.67144E-001	-2.82483E-002	-3.91185E-002	6.85550E-001	-4.41212E-002	2.83043E-003	-1.95452E-004	2.35379E-002	2.26281E-002	-1.12706E-003	-1.56076E-003	2.73523E-002	-1.76036E-003
	17	17	1.10029E+000	3.99662E-002	0.00000E+000	4.39744E-002	3.98583E-001	4.26823E-002	4.77730E+001	11	...........	7.09022E-002	-4.86222E-003	5.89854E-001	5.67275E-001	-2.82476E-002	-3.91101E-002	6.85452E-001	-4.39999E-002	2.83369E-003	-1.94324E-004	2.35742E-002	2.26718E-002	-1.12895E-003	-1.56308E-003	2.73949E-002	-1.75851E-003
	18	18	1.10038E+000	3.96176E-002	0.00000E+000	4.35944E-002	3.95117E-001	4.26469E-002	4.77455E+001	11	...........	7.08432E-002	-4.93486E-003	5.89945E-001	5.67326E-001	-2.82499E-002	-3.91199E-002	6.85402E-001	-4.40075E-002	2.80664E-003	-1.95507E-004	2.33722E-002	2.24761E-002	-1.11919E-003	-1.54984E-003	2.71540E-002	-1.74347E-003
	19	19	1.10027E+000	3.93251E-002	0.00000E+000	4.32684E-002	3.92209E-001	4.26191E-002	4.77225E+001	11	...........	7.07899E-002	-4.90542E-003	5.89910E-001	5.67381E-001	-2.82699E-002	-3.91179E-002	6.85395E-001	-4.39899E-002	2.78382E-003	-1.92906E-004	2.31983E-002	2.23123E-002	-1.11171E-003	-1.53831E-003	2.69532E-002	-1.72990E-003
	20	20	1.10029E+000	3.94529E-002	0.00000E+000	4.34096E-002	3.93482E-001	4.24499E-002	4.76863E+001	11	...........	7.07489E-002	-4.91431E-003	5.89912E-001	5.67510E-001	-2.82826E-002	-3.90940E-002	6.85552E-001	-4.39732E-002	2.79125E-003	-1.93883E-004	2.32737E-002	2.23899E-002	-1.11583E-003	-1.54237E-003	2.70470E-002	-1.73487E-003
	21	21	1.10038E+000	3.91764E-002	0.00000E+000	4.31088E-002	3.90737E-001	4.23449E-002	4.76592E+001	11	...........	7.06965E-002	-5.03944E-003	5.89861E-001	5.67592E-001	-2.82985E-002	-3.91008E-002	6.85527E-001	-4.40172E-002	2.76963E-003	-1.97427E-004	2.31086E-002	2.22362E-002	-1.10863E-003	-1.53183E-003	2.68565E-002	-1.72444E-003
	22	22	1.10028E+000	3.88791E-002	0.00000E+000	4.27779E-002	3.87781E-001	4.23216E-002	4.68561E+001	11	...........	7.06482E-002	-5.09194E-003	5.89786E-001	5.67641E-001	-2.82883E-002	-3.90992E-002	6.85522E-001	-4.40715E-002	2.74674E-003	-1.97970E-004	2.29304E-002	2.20694E-002	-1.09983E-003	-1.52014E-003	2.66525E-002	-1.71346E-003
	23	23	1.10029E+000	3.89890E-002	0.00000E+000	4.28991E-002	3.88873E-001	4.22701E-002	4.71072E+001	11	...........	7.05619E-002	-5.03347E-003	5.89584E-001	5.67482E-001	-2.82774E-002	-3.90981E-002	6.85494E-001	-4.41364E-002	2.75114E-003	-1.96250E-004	2.29873E-002	2.21255E-002	-1.10251E-003	-1.52439E-003	2.67267E-002	-1.72083E-003
	24	24	1.10037E+000	3.87794E-002	0.00000E+000	4.26718E-002	3.86789E-001	4.22502E-002	4.71948E+001	11	...........	7.05388E-002	-4.99292E-003	5.89378E-001	5.67452E-001	-2.82811E-002	-3.90899E-002	6.85508E-001	-4.40879E-002	2.73545E-003	-1.93622E-004	2.28557E-002	2.20054E-002	-1.09672E-003	-1.51588E-003	2.65836E-002	-1.70970E-003
	25	25	1.10028E+000	3.84810E-002	0.00000E+000	4.23399E-002	3.83824E-001	4.22139E-002	4.71592E+001	11	...........	7.04639E-002	-5.06472E-003	5.89198E-001	5.67379E-001	-2.83010E-002	-3.91006E-002	6.85536E-001	-4.40619E-002	2.71152E-003	-1.94896E-004	2.26730E-002	2.18333E-002	-1.08905E-003	-1.50463E-003	2.63801E-002	-1.69555E-003
	26	26	1.10029E+000	3.86410E-002	0.00000E+000	4.25161E-002	3.85415E-001	4.21722E-002	4.71506E+001	11	...........	7.04008E-002	-5.14583E-003	5.89303E-001	5.67191E-001	-2.82825E-002	-3.90940E-002	6.85544E-001	-4.39342E-002	2.72036E-003	-1.98840E-004	2.27713E-002	2.19168E-002	-1.09286E-003	-1.51063E-003	2.64901E-002	-1.69766E-003
	27	27	1.10037E+000	3.84561E-002	0.00000E+000	4.23160E-002	3.83576E-001	4.21498E-002	4.71065E+001	11	...........	7.03694E-002	-4.98583E-003	5.89303E-001	5.67157E-001	-2.82886E-002	-3.91153E-002	6.85583E-001	-4.40612E-002	2.70613E-003	-1.91735E-004	2.26623E-002	2.18106E-002	-1.08787E-003	-1.50422E-003	2.63648E-002	-1.69442E-003
	28	28	1.10028E+000	3.81438E-002	0.00000E+000	4.19690E-002	3.80474E-001	4.21118E-002	4.71010E+001	11	...........	7.03078E-002	-4.99625E-003	5.89210E-001	5.66989E-001	-2.82942E-002	-3.91049E-002	6.85674E-001	-4.41768E-002	2.68181E-003	-1.90576E-004	2.24747E-002	2.16271E-002	-1.07925E-003	-1.49161E-003	2.61542E-002	-1.68507E-003
	29	29	1.10028E+000	3.83201E-002	0.00000E+000	4.21630E-002	3.82225E-001	4.21006E-002	4.71123E+001	11	...........	7.02790E-002	-5.09056E-003	5.89187E-001	5.67013E-001	-2.82829E-002	-3.91204E-002	6.85719E-001	-4.42106E-002	2.69310E-003	-1.95070E-004	2.25777E-002	2.17280E-002	-1.08380E-003	-1.49910E-003	2.62768E-002	-1.69415E-003
	30	30	1.10037E+000	3.81317E-002	0.00000E+000	4.19590E-002	3.80352E-001	4.20720E-002	4.71270E+001	11	...........	7.02217E-002	-5.15972E-003	5.89293E-001	5.67036E-001	-2.82744E-002	-3.91251E-002	6.85662E-001	-4.41428E-002	2.67767E-003	-1.96749E-004	2.24708E-002	2.16221E-002	-1.07815E-003	-1.49191E-003	2.61455E-002	-1.68324E-003
	31	31	1.10029E+000	3.78229E-002	0.00000E+000	4.16161E-002	3.77285E-001	4.20306E-002	4.71188E+001	11	...........	7.01618E-002	-5.17986E-003	5.89379E-001	5.67012E-001	-2.82681E-002	-3.91522E-002	6.85568E-001	-4.39986E-002	2.65373E-003	-1.95918E-004	2.22920E-002	2.14461E-002	-1.06918E-003	-1.48085E-003	2.59302E-002	-1.66416E-003
	32	32	1.10028E+000	3.79606E-002	0.00000E+000	4.17674E-002	3.78655E-001	4.20012E-002	4.71200E+001	11	...........	7.01365E-002	-5.10069E-003	5.89461E-001	5.67015E-001	-2.82714E-002	-3.91550E-002	6.85593E-001	-4.39312E-002	2.66242E-003	-1.93625E-004	2.23763E-002	2.15242E-002	-1.07320E-003	-1.48635E-003	2.60255E-002	-1.66766E-003
	33	33	1.10037E+000	3.77911E-002	0.00000E+000	4.15842E-002	3.76967E-001	4.19751E-002	4.71041E+001	11	...........	7.00769E-002	-5.02486E-003	5.89477E-001	5.66969E-001	-2.82706E-002	-3.91411E-002	6.85751E-001	-4.40194E-002	2.64829E-003	-1.89895E-004	2.22770E-002	2.14264E-002	-1.06838E-003	-1.47919E-003	2.59153E-002	-1.66354E-003
	34	34	1.10029E+000	3.74843E-002	0.00000E+000	4.12436E-002	3.73921E-001	4.22596E-002	4.66795E+001	11	...........	7.05488E-002	-5.00944E-003	5.89620E-001	5.66995E-001	-2.82660E-002	-3.91354E-002	6.85809E-001	-4.40575E-002	2.64447E-003	-1.87776E-004	2.21015E-002	2.12534E-002	-1.05953E-003	-1.46696E-003	2.57071E-002	-1.65146E-003
	35	35	1.10028E+000	3.76414E-002	0.00000E+000	4.14162E-002	3.75480E-001	4.18820E-002	4.68309E+001	11	...........	6.99261E-002	-4.95625E-003	5.89729E-001	5.67056E-001	-2.82779E-002	-3.91436E-002	6.85682E-001	-4.40886E-002	2.63212E-003	-1.86560E-004	2.21982E-002	2.13448E-002	-1.06442E-003	-1.47342E-003	2.58101E-002	-1.65956E-003
	36	36	1.10037E+000	3.74561E-002	0.00000E+000	4.12154E-002	3.73635E-001	4.18861E-002	4.68937E+001	11	...........	6.99476E-002	-4.92319E-003	5.89777E-001	5.67025E-001	-2.82732E-002	-3.91285E-002	6.85696E-001	-4.40086E-002	2.61996E-003	-1.84403E-004	2.20907E-002	2.12385E-002	-1.05900E-003	-1.46560E-003	2.56835E-002	-1.64839E-003
	37	37	1.10029E+000	3.71641E-002	0.00000E+000	4.08914E-002	3.70731E-001	4.18833E-002	4.68628E+001	11	...........	6.99122E-002	-4.92597E-003	5.89832E-001	5.67078E-001	-2.82899E-002	-3.91421E-002	6.85753E-001	-4.39515E-002	2.59823E-003	-1.83069E-004	2.19206E-002	2.10750E-002	-1.05137E-003	-1.45468E-003	2.54854E-002	-1.63342E-003
	38	38	1.10028E+000	3.73380E-002	0.00000E+000	4.10823E-002	3.72462E-001	4.18538E-002	4.66543E+001	11	...........	6.98697E-002	-4.96792E-003	5.89861E-001	5.67125E-001	-2.82812E-002	-3.91282E-002	6.85676E-001	-4.38604E-002	2.60880E-003	-1.85492E-004	2.20242E-002	2.11753E-002	-1.05597E-003	-1.46097E-003	2.56018E-002	-1.63766E-003
	39	39	1.10036E+000	3.71172E-002	0.00000E+000	4.08425E-002	3.70265E-001	4.18219E-002	4.60942E+001	11	...........	6.98219E-002	-4.95403E-003	5.89883E-001	5.67035E-001	-2.82744E-002	-3.91378E-002	6.85656E-001	-4.39097E-002	2.59160E-003	-1.83880E-004	2.18948E-002	2.10468E-002	-1.04947E-003	-1.45269E-003	2.54497E-002	-1.62981E-003
	40	40	1.10030E+000	3.68761E-002	0.00000E+000	4.05746E-002	3.67871E-001	4.17295E-002	4.70692E+001	11	...........	6.96597E-002	-4.85181E-003	5.89950E-001	5.67268E-001	-2.82656E-002	-3.91385E-002	6.85794E-001	-4.40274E-002	2.56878E-003	-1.78916E-004	2.17551E-002	2.09187E-002	-1.04232E-003	-1.44328E-003	2.52894E-002	-1.62356E-003
	41	41	1.10028E+000	3.70786E-002	0.00000E+000	4.07969E-002	3.69884E-001	4.17022E-002	4.72674E+001	11	...........	6.96226E-002	-4.82389E-003	5.89846E-001	5.67190E-001	-2.82903E-002	-3.91171E-002	6.85642E-001	-4.40325E-002	2.58151E-003	-1.78863E-004	2.18707E-002	2.10306E-002	-1.04896E-003	-1.45041E-003	2.54227E-002	-1.63266E-003
	42	42	1.10036E+000	3.69654E-002	0.00000E+000	4.06754E-002	3.68760E-001	4.16399E-002	4.72595E+001	11	...........	6.95251E-002	-4.89542E-003	5.89841E-001	5.67180E-001	-2.82921E-002	-3.90969E-002	6.85618E-001	-4.39082E-002	2.57002E-003	-1.80961E-004	2.18037E-002	2.09661E-002	-1.04583E-003	-1.44523E-003	2.53441E-002	-1.62308E-003
	43	43	1.10030E+000	3.66287E-002	0.00000E+000	4.03025E-002	3.65412E-001	4.16310E-002	4.73134E+001	11	...........	6.94986E-002	-4.99931E-003	5.89695E-001	5.67068E-001	-2.82779E-002	-3.90883E-002	6.85651E-001	-4.39146E-002	2.54564E-003	-1.83118E-004	2.15998E-002	2.07710E-002	-1.03578E-003	-1.43175E-003	2.51145E-002	-1.60853E-003
	44	44	1.10028E+000	3.68190E-002	0.00000E+000	4.05113E-002	3.67307E-001	4.16062E-002	4.73426E+001	11	...........	6.94626E-002	-4.84417E-003	5.89595E-001	5.67118E-001	-2.82949E-002	-3.91036E-002	6.85551E-001	-4.39307E-002	2.55755E-003	-1.78358E-004	2.17083E-002	2.08807E-002	-1.04179E-003	-1.43976E-003	2.52413E-002	-1.61749E-003
	45	45	1.10036E+000	3.66994E-002	0.00000E+000	4.03826E-002	3.66118E-001	4.15796E-002	4.73644E+001	11	...........	6.94124E-002	-4.87986E-003	5.89747E-001	5.67061E-001	-2.82929E-002	-3.90882E-002	6.85534E-001	-4.39407E-002	2.54739E-003	-1.79088E-004	2.16434E-002	2.08108E-002	-1.03833E-003	-1.43451E-003	2.51587E-002	-1.61260E-003
	46	46	1.10030E+000	3.63285E-002	0.00000E+000	3.99724E-002	3.62425E-001	4.15587E-002	4.73545E+001	11	...........	6.93711E-002	-4.97056E-003	5.89822E-001	5.66995E-001	-2.82944E-002	-3.90760E-002	6.85548E-001	-4.39844E-002	2.52015E-003	-1.80573E-004	2.14274E-002	2.05981E-002	-1.02790E-003	-1.41957E-003	2.49049E-002	-1.59789E-003
	47	47	1.10028E+000	3.65049E-002	0.00000E+000	4.01656E-002	3.64178E-001	4.15284E-002	4.73544E+001	11	...........	6.93386E-002	-5.02986E-003	5.89688E-001	5.66962E-001	-2.82965E-002	-3.90410E-002	6.85592E-001	-4.39587E-002	2.53120E-003	-1.83615E-004	2.15265E-002	2.06969E-002	-1.03296E-003	-1.42519E-003	2.50275E-002	-1.60471E-003
	48	48	1.10036E+000	3.63916E-002	0.00000E+000	4.00438E-002	3.63051E-001	4.15157E-002	4.73526E+001	11	...........	6.93143E-002	-4.98347E-003	5.89710E-001	5.66784E-001	-2.83046E-002	-3.90296E-002	6.85748E-001	-4.38669E-002	2.52246E-003	-1.81356E-004	2.14605E-002	2.06262E-002	-1.03005E-003	-1.42035E-003	2.49554E-002	-1.59639E-003
	49	49	1.10030E+000	3.60391E-002	0.00000E+000	3.96540E-002	3.59544E-001	4.14740E-002	4.73416E+001	11	...........	6.92500E-002	-4.91833E-003	5.89550E-001	5.66605E-001	-2.83067E-002	-3.90442E-002	6.85823E-001	-4.39021E-002	2.49571E-003	-1.77252E-004	2.12469E-002	2.04200E-002	-1.02015E-003	-1.40712E-003	2.47165E-002	-1.58219E-003
	50	50	1.10028E+000	3.62096E-002	0.00000E+000	3.98407E-002	3.61243E-001	4.14466E-002	4.73621E+001	11	...........	6.91969E-002	-4.99528E-003	5.89467E-001	5.66411E-001	-2.83214E-002	-3.90596E-002	6.85762E-001	-4.39636E-002	2.50560E-003	-1.80877E-004	2.13444E-002	2.05095E-002	-1.02551E-003	-1.41433E-003	2.48312E-002	-1.59191E-003
	51	51	1.10036E+000	3.60933E-002	0.00000E+000	3.97155E-002	3.60089E-001	4.12923E-002	4.73556E+001	11	...........	6.91425E-002	-4.88944E-003	5.89489E-001	5.66228E-001	-2.83310E-002	-3.90622E-002	6.85863E-001	-4.38758E-002	2.49558E-003	-1.76476E-004	2.12766E-002	2.04371E-002	-1.02256E-003	-1.40989E-003	2.47551E-002	-1.58362E-003
	52	52	1.10031E+000	3.57256E-002	0.00000E+000	3.93093E-002	3.56429E-001	4.14042E-002	4.73512E+001	11	...........	6.91018E-002	-5.00528E-003	5.89531E-001	5.66248E-001	-2.83332E-002	-3.90618E-002	6.85878E-001	-4.38665E-002	2.46871E-003	-1.78817E-004	2.10613E-002	2.02296E-002	-1.01222E-003	-1.39551E-003	2.45034E-002	-1.56716E-003
	53	53	1.10028E+000	3.58986E-002	0.00000E+000	3.94984E-002	3.58150E-001	4.13681E-002	4.73409E+001	11	...........	6.90665E-002	-5.03306E-003	5.89595E-001	5.66221E-001	-2.83453E-002	-3.90764E-002	6.85784E-001	-4.39162E-002	2.47939E-003	-1.80680E-004	2.11656E-002	2.03265E-002	-1.01756E-003	-1.40279E-003	2.46187E-002	-1.57653E-003
	54	54	1.10035E+000	3.58078E-002	0.00000E+000	3.94012E-002	3.57245E-001	4.15132E-002	4.72335E+001	11	...........	6.93100E-002	-5.06417E-003	5.89622E-001	5.66207E-001	-2.83299E-002	-3.90815E-002	6.85736E-001	-4.39468E-002	2.48184E-003	-1.81336E-004	2.11130E-002	2.02746E-002	-1.01443E-003	-1.39942E-003	2.45547E-002	-1.57364E-003
	55	55	1.10031E+000	3.54174E-002	0.00000E+000	3.89702E-002	3.53363E-001	4.13947E-002	4.70614E+001	11	...........	6.91032E-002	-5.13486E-003	5.89685E-001	5.66179E-001	-2.83308E-002	-3.90760E-002	6.85865E-001	-4.39597E-002	2.44746E-003	-1.81863E-004	2.08851E-002	2.00526E-002	-1.00340E-003	-1.38397E-003	2.42915E-002	-1.55694E-003
	56	56	1.10028E+000	3.55713E-002	0.00000E+000	3.91382E-002	3.54891E-001	4.12532E-002	4.70567E+001	11	...........	6.88687E-002	-5.15389E-003	5.89588E-001	5.66071E-001	-2.83135E-002	-3.90750E-002	6.85858E-001	-4.40229E-002	2.44975E-003	-1.83331E-004	2.09724E-002	2.01359E-002	-1.00715E-003	-1.38995E-003	2.43968E-002	-1.56595E-003
	57	57	1.10035E+000	3.55513E-002	0.00000E+000	3.91188E-002	3.54694E-001	4.12702E-002	4.71784E+001	11	...........	6.88901E-002	-5.02931E-003	5.89434E-001	5.66140E-001	-2.83172E-002	-3.90707E-002	6.85691E-001	-4.40758E-002	2.44913E-003	-1.78798E-004	2.09551E-002	2.01270E-002	-1.00671E-003	-1.38901E-003	2.43772E-002	-1.56695E-003
	58	58	1.10032E+000	3.51840E-002	0.00000E+000	3.87135E-002	3.51047E-001	4.13185E-002	4.71190E+001	11	...........	6.89789E-002	-4.97333E-003	5.89501E-001	5.66167E-001	-2.83271E-002	-3.90749E-002	6.85932E-001	-4.41210E-002	2.42695E-003	-1.74982E-004	2.07410E-002	1.99200E-002	-9.96660E-004	-1.37481E-003	2.41338E-002	-1.55235E-003
	59	59	1.10027E+000	3.53440E-002	0.00000E+000	3.88882E-002	3.52635E-001	4.12432E-002	4.72250E+001	11	...........	6.88540E-002	-4.96097E-003	5.89510E-001	5.66145E-001	-2.83237E-002	-3.90999E-002	6.85893E-001	-4.39261E-002	2.43358E-003	-1.75341E-004	2.08357E-002	2.00099E-002	-1.00108E-003	-1.38195E-003	2.42422E-002	-1.55253E-003
	60	60	1.10035E+000	3.52839E-002	0.00000E+000	3.88245E-002	3.52039E-001	4.12143E-002	4.72446E+001	11	...........	6.88162E-002	-4.93750E-003	5.89551E-001	5.66056E-001	-2.83297E-002	-3.91296E-002	6.85773E-001	-4.39806E-002	2.42810E-003	-1.74214E-004	2.08016E-002	1.99726E-002	-9.99582E-004	-1.38064E-003	2.41967E-002	-1.55180E-003
	61	61	1.10032E+000	3.48823E-002	0.00000E+000	3.83817E-002	3.48043E-001	4.11895E-002	4.72088E+001	11	...........	6.87617E-002	-5.07944E-003	5.89621E-001	5.65960E-001	-2.83182E-002	-3.91475E-002	6.85714E-001	-4.39414E-002	2.39856E-003	-1.77183E-004	2.05673E-002	1.97420E-002	-9.87804E-004	-1.36555E-003	2.39193E-002	-1.53278E-003
	62	62	1.10027E+000	3.50562E-002	0.00000E+000	3.85714E-002	3.49771E-001	4.11580E-002	4.72456E+001	11	...........	6.87226E-002	-5.00500E-003	5.89584E-001	5.65887E-001	-2.83090E-002	-3.91296E-002	6.85717E-001	-4.39247E-002	2.40915E-003	-1.75456E-004	2.06686E-002	1.98379E-002	-9.92407E-004	-1.37173E-003	2.40386E-002	-1.53983E-003
	63	63	1.10034E+000	3.50311E-002	0.00000E+000	3.85462E-002	3.49525E-001	4.11441E-002	4.61032E+001	11	...........	6.86851E-002	-5.01306E-003	5.89422E-001	5.65986E-001	-2.83082E-002	-3.91337E-002	6.85786E-001	-4.40196E-002	2.40611E-003	-1.75613E-004	2.06481E-002	1.98271E-002	-9.91667E-004	-1.37090E-003	2.40238E-002	-1.54205E-003
	64	64	1.10032E+000	3.46068E-002	0.00000E+000	3.80787E-002	3.45303E-001	4.09986E-002	4.61051E+001	11	...........	6.84535E-002	-5.05764E-003	5.89396E-001	5.66098E-001	-2.82928E-002	-3.91333E-002	6.85744E-001	-4.39374E-002	2.36896E-003	-1.75029E-004	2.03971E-002	1.95909E-002	-9.79123E-004	-1.35428E-003	2.37314E-002	-1.52053E-003
	65	65	1.10027E+000	3.48060E-002	0.00000E+000	3.82961E-002	3.47287E-001	4.10195E-002	4.66587E+001	11	...........	6.84847E-002	-4.94014E-003	5.89607E-001	5.65943E-001	-2.82814E-002	-3.91133E-002	6.85653E-001	-4.39504E-002	2.38368E-003	-1.71947E-004	2.05219E-002	1.96982E-002	-9.84363E-004	-1.36138E-003	2.38649E-002	-1.52974E-003
	66	66	1.10034E+000	3.48234E-002	0.00000E+000	3.83177E-002	3.47459E-001	4.10742E-002	4.69657E+001	11	...........	6.85594E-002	-4.96736E-003	5.89615E-001	5.65769E-001	-2.82674E-002	-3.91153E-002	6.85736E-001	-4.39722E-002	2.38747E-003	-1.72981E-004	2.05324E-002	1.97020E-002	-9.84366E-004	-1.36213E-003	2.38797E-002	-1.53126E-003
	67	67	1.10033E+000	3.44724E-002	0.00000E+000	3.79309E-002	3.43967E-001	4.10619E-002	4.71126E+001	11	...........	6.85387E-002	-4.94931E-003	5.89611E-001	5.65824E-001	-2.82515E-002	-3.90960E-002	6.85826E-001	-4.40171E-002	2.36270E-003	-1.70614E-004	2.03253E-002	1.95053E-002	-9.73898E-004	-1.34773E-003	2.36421E-002	-1.51737E-003
	68	68	1.10027E+000	3.46344E-002	0.00000E+000	3.81072E-002	3.45577E-001	4.10196E-002	4.71455E+001	11	...........	6.84892E-002	-5.03361E-003	5.89632E-001	5.65786E-001	-2.82699E-002	-3.90711E-002	6.85855E-001	-4.39682E-002	2.37208E-003	-1.74336E-004	2.04215E-002	1.95956E-002	-9.79108E-004	-1.35320E-003	2.37542E-002	-1.52281E-003
	69	69	1.10034E+000	3.45880E-002	0.00000E+000	3.80584E-002	3.45115E-001	4.09944E-002	4.71576E+001	11	...........	6.84460E-002	-5.14347E-003	5.89796E-001	5.65877E-001	-2.82769E-002	-3.90582E-002	6.85865E-001	-4.39000E-002	2.36741E-003	-1.77902E-004	2.03998E-002	1.95725E-002	-9.78042E-004	-1.35094E-003	2.37227E-002	-1.51841E-003
	70	70	1.10033E+000	3.42007E-002	0.00000E+000	3.76321E-002	3.41265E-001	4.09738E-002	4.71377E+001	11	...........	6.84187E-002	-5.19125E-003	5.89757E-001	5.65858E-001	-2.82822E-002	-3.90383E-002	6.85772E-001	-4.40533E-002	2.33997E-003	-1.77544E-004	2.01701E-002	1.93527E-002	-9.67271E-004	-1.33514E-003	2.34538E-002	-1.50665E-003
	71	71	1.10027E+000	3.43323E-002	0.00000E+000	3.77748E-002	3.42574E-001	4.09490E-002	4.71857E+001	11	...........	6.83699E-002	-5.10264E-003	5.89635E-001	5.65782E-001	-2.83039E-002	-3.90269E-002	6.85852E-001	-4.40583E-002	2.34729E-003	-1.75185E-004	2.02435E-002	1.94246E-002	-9.71736E-004	-1.33988E-003	2.35469E-002	-1.51262E-003
	72	72	1.10034E+000	3.43073E-002	0.00000E+000	3.77495E-002	3.42323E-001	4.09227E-002	4.72171E+001	11	...........	6.83242E-002	-5.04125E-003	5.89633E-001	5.65744E-001	-2.83060E-002	-3.90408E-002	6.85753E-001	-4.40672E-002	2.34402E-003	-1.72952E-004	2.02287E-002	1.94092E-002	-9.71102E-004	-1.33939E-003	2.35263E-002	-1.51183E-003
	73	73	1.10034E+000	3.39398E-002	0.00000E+000	3.73452E-002	3.38670E-001	4.08862E-002	4.72192E+001	11	...........	6.82582E-002	-5.07333E-003	5.89682E-001	5.65725E-001	-2.83269E-002	-3.90443E-002	6.85782E-001	-4.40393E-002	2.31667E-003	-1.72188E-004	2.00137E-002	1.92006E-002	-9.61412E-004	-1.32516E-003	2.32753E-002	-1.49469E-003
	74	74	1.10027E+000	3.40793E-002	0.00000E+000	3.74964E-002	3.40059E-001	4.08640E-002	4.72199E+001	11	...........	6.82154E-002	-4.99278E-003	5.89716E-001	5.65766E-001	-2.83292E-002	-3.90215E-002	6.85704E-001	-4.39037E-002	2.32473E-003	-1.70150E-004	2.00971E-002	1.92809E-002	-9.65438E-004	-1.32983E-003	2.33683E-002	-1.49621E-003
	75	75	1.10033E+000	3.40693E-002	0.00000E+000	3.74875E-002	3.39958E-001	4.08412E-002	4.72162E+001	11	...........	6.81806E-002	-5.03889E-003	5.89575E-001	5.65845E-001	-2.83385E-002	-3.89968E-002	6.85590E-001	-4.38250E-002	2.32286E-003	-1.71671E-004	2.00864E-002	1.92779E-002	-9.65471E-004	-1.32859E-003	2.33575E-002	-1.49309E-003
	76	76	1.10034E+000	3.36643E-002	0.00000E+000	3.70422E-002	3.35931E-001	4.08123E-002	4.72126E+001	11	...........	6.81322E-002	-5.02792E-003	5.89560E-001	5.65722E-001	-2.83208E-002	-3.90014E-002	6.85661E-001	-4.37821E-002	2.29363E-003	-1.69261E-004	1.98471E-002	1.90447E-002	-9.53402E-004	-1.31296E-003	2.30823E-002	-1.47389E-003
	77	77	1.10027E+000	3.38148E-002	0.00000E+000	3.72053E-002	3.37426E-001	4.07817E-002	4.72198E+001	11	...........	6.80892E-002	-5.10625E-003	5.89526E-001	5.65588E-001	-2.83112E-002	-3.90019E-002	6.85717E-001	-4.38765E-002	2.30242E-003	-1.72667E-004	1.99347E-002	1.91252E-002	-9.57338E-004	-1.31884E-003	2.31873E-002	-1.48367E-003
	78	78	1.10033E+000	3.38213E-002	0.00000E+000	3.72146E-002	3.37493E-001	4.07529E-002	4.72188E+001	11	...........	6.80400E-002	-5.04736E-003	5.89478E-001	5.65629E-001	-2.83040E-002	-3.90093E-002	6.85692E-001	-4.39792E-002	2.30120E-003	-1.70708E-004	1.99369E-002	1.91303E-002	-9.57280E-004	-1.31935E-003	2.31910E-002	-1.48743E-003
	79	79	1.10034E+000	3.34290E-002	0.00000E+000	3.67834E-002	3.33591E-001	4.07287E-002	4.72351E+001	11	...........	6.80057E-002	-5.19667E-003	5.89373E-001	5.65569E-001	-2.82982E-002	-3.90175E-002	6.85601E-001	-4.40846E-002	2.27336E-003	-1.73719E-004	1.97021E-002	1.89064E-002	-9.45979E-004	-1.30431E-003	2.29189E-002	-1.47370E-003
	80	80	1.10027E+000	3.34973E-002	0.00000E+000	3.68560E-002	3.34270E-001	4.07048E-002	4.72391E+001	11	...........	6.79703E-002	-5.20403E-003	5.89462E-001	5.65547E-001	-2.82887E-002	-3.90125E-002	6.85602E-001	-4.41047E-002	2.27682E-003	-1.74321E-004	1.97454E-002	1.89443E-002	-9.47596E-004	-1.30681E-003	2.29658E-002	-1.47739E-003
	81	81	1.10033E+000	3.34832E-002	0.00000E+000	3.68424E-002	3.34129E-001	4.06877E-002	4.72413E+001	11	...........	6.79132E-002	-5.22819E-003	5.89498E-001	5.65512E-001	-2.82653E-002	-3.89936E-002	6.85639E-001	-4.41250E-002	2.27395E-003	-1.75057E-004	1.97383E-002	1.89351E-002	-9.46412E-004	-1.30563E-003	2.29574E-002	-1.47745E-003
	82	82	1.10035E+000	3.30945E-002	0.00000E+000	3.64154E-002	3.30265E-001	4.06574E-002	4.72454E+001	11	...........	6.78614E-002	-5.15000E-003	5.89529E-001	5.65447E-001	-2.82528E-002	-3.90051E-002	6.85767E-001	-4.42235E-002	2.24584E-003	-1.70437E-004	1.95102E-002	1.87132E-002	-9.35011E-004	-1.29085E-003	2.26951E-002	-1.46355E-003
	83	83	1.10027E+000	3.32443E-002	0.00000E+000	3.65775E-002	3.31753E-001	4.06265E-002	4.72311E+001	11	...........	6.78274E-002	-5.14625E-003	5.89511E-001	5.65284E-001	-2.82349E-002	-3.90129E-002	6.85679E-001	-4.41799E-002	2.25487E-003	-1.71083E-004	1.95978E-002	1.87924E-002	-9.38647E-004	-1.29696E-003	2.27949E-002	-1.46873E-003
	84	84	1.10032E+000	3.32684E-002	0.00000E+000	3.66060E-002	3.31997E-001	4.05920E-002	4.72220E+001	11	...........	6.77719E-002	-5.04514E-003	5.89378E-001	5.65331E-001	-2.82439E-002	-3.89974E-002	6.85715E-001	-4.40539E-002	2.25466E-003	-1.67844E-004	1.96077E-002	1.88076E-002	-9.39628E-004	-1.29738E-003	2.28126E-002	-1.46560E-003
	85	85	1.10035E+000	3.28799E-002	0.00000E+000	3.61794E-002	3.28137E-001	4.05745E-002	4.72057E+001	11	...........	6.77264E-002	-5.04514E-003	5.89276E-001	5.65456E-001	-2.82789E-002	-3.89650E-002	6.85734E-001	-4.40026E-002	2.22684E-003	-1.65884E-004	1.93753E-002	1.85921E-002	-9.29806E-004	-1.28116E-003	2.25468E-002	-1.44680E-003
	86	86	1.10027E+000	3.29859E-002	0.00000E+000	3.62933E-002	3.29187E-001	4.05452E-002	4.71809E+001	11	...........	6.76836E-002	-5.10681E-003	5.89519E-001	5.65421E-001	-2.83065E-002	-3.89483E-002	6.85707E-001	-4.40150E-002	2.23261E-003	-1.68453E-004	1.94458E-002	1.86509E-002	-9.33717E-004	-1.28475E-003	2.26187E-002	-1.45188E-003
	87	87	1.10032E+000	3.30191E-002	0.00000E+000	3.63316E-002	3.29521E-001	4.05128E-002	4.71613E+001	11	...........	6.76426E-002	-5.03319E-003	5.89744E-001	5.65488E-001	-2.83069E-002	-3.89475E-002	6.85690E-001	-4.38462E-002	2.23350E-003	-1.66191E-004	1.94728E-002	1.86719E-002	-9.34669E-004	-1.28601E-003	2.26409E-002	-1.44776E-003
	88	88	1.10035E+000	3.26678E-002	0.00000E+000	3.59462E-002	3.26024E-001	4.04816E-002	4.71532E+001	11	...........	6.75843E-002	-5.09333E-003	5.89923E-001	5.65592E-001	-2.82558E-002	-3.89565E-002	6.85676E-001	-4.38919E-002	2.20783E-003	-1.66388E-004	1.92715E-002	1.84767E-002	-9.23056E-004	-1.27262E-003	2.23995E-002	-1.43385E-003
	89	89	1.10027E+000	3.27625E-002	0.00000E+000	3.60474E-002	3.26968E-001	4.04665E-002	4.71739E+001	11	...........	6.75504E-002	-5.10292E-003	5.90288E-001	5.65725E-001	-2.82586E-002	-3.89621E-002	6.85672E-001	-4.39100E-002	2.21312E-003	-1.67184E-004	1.93393E-002	1.85346E-002	-9.25822E-004	-1.27649E-003	2.24643E-002	-1.43860E-003
	90	90	1.10032E+000	3.27624E-002	0.00000E+000	3.60490E-002	3.26969E-001	4.04409E-002	4.71797E+001	11	...........	6.75024E-002	-5.17042E-003	5.90430E-001	5.65864E-001	-2.82706E-002	-3.89567E-002	6.85765E-001	-4.39033E-002	2.21154E-003	-1.69395E-004	1.93439E-002	1.85390E-002	-9.26210E-004	-1.27631E-003	2.24673E-002	-1.43838E-003
	91	91	1.10036E+000	3.24118E-002	0.00000E+000	3.56646E-002	3.23479E-001	4.03946E-002	4.71775E+001	11	...........	6.74580E-002	-5.06639E-003	5.90357E-001	5.65727E-001	-2.82740E-002	-3.89769E-002	6.85730E-001	-4.39814E-002	2.18644E-003	-1.64211E-004	1.91345E-002	1.83362E-002	-9.16412E-004	-1.26331E-003	2.22258E-002	-1.42552E-003
	92	92	1.10026E+000	3.25120E-002	0.00000E+000	3.57718E-002	3.24474E-001	4.03832E-002	4.71583E+001	11	...........	6.74178E-002	-4.94042E-003	5.90184E-001	5.65811E-001	-2.82757E-002	-3.89661E-002	6.85741E-001	-4.39078E-002	2.19189E-003	-1.60623E-004	1.91880E-002	1.83956E-002	-9.19299E-004	-1.26687E-003	2.22948E-002	-1.42753E-003
	93	93	1.10032E+000	3.25386E-002	0.00000E+000	3.58027E-002	3.24741E-001	4.03528E-002	4.71432E+001	11	...........	6.73831E-002	-4.95181E-003	5.90177E-001	5.65922E-001	-2.82722E-002	-3.89739E-002	6.85690E-001	-4.38436E-002	2.19255E-003	-1.61125E-004	1.92035E-002	1.84143E-002	-9.19937E-004	-1.26815E-003	2.23114E-002	-1.42661E-003
	94	94	1.10036E+000	3.21567E-002	0.00000E+000	3.53840E-002	3.20945E-001	4.03272E-002	4.71138E+001	11	...........	6.73344E-002	-5.07431E-003	5.90073E-001	5.65786E-001	-2.82768E-002	-3.89794E-002	6.85703E-001	-4.37761E-002	2.16526E-003	-1.63173E-004	1.89748E-002	1.81939E-002	-9.09290E-004	-1.25345E-003	2.20500E-002	-1.40770E-003
	95	95	1.10026E+000	3.22193E-002	0.00000E+000	3.54498E-002	3.21567E-001	4.03031E-002	4.71285E+001	11	...........	6.72976E-002	-5.03403E-003	5.90069E-001	5.65809E-001	-2.82844E-002	-3.89696E-002	6.85599E-001	-4.38324E-002	2.16829E-003	-1.62193E-004	1.90116E-002	1.82300E-002	-9.11306E-004	-1.25557E-003	2.20895E-002	-1.41225E-003
	96	96	1.10031E+000	3.22740E-002	0.00000E+000	3.55116E-002	3.22111E-001	4.02874E-002	4.71355E+001	11	...........	6.72583E-002	-4.97306E-003	5.89899E-001	5.65762E-001	-2.82672E-002	-3.89724E-002	6.85574E-001	-4.38963E-002	2.17070E-003	-1.60501E-004	1.90384E-002	1.82594E-002	-9.12298E-004	-1.25780E-003	2.21262E-002	-1.41671E-003
	97	97	1.10036E+000	3.19145E-002	0.00000E+000	3.51175E-002	3.18536E-001	4.02611E-002	4.71222E+001	11	...........	6.71930E-002	-5.06167E-003	5.89950E-001	5.65791E-001	-2.82731E-002	-3.89929E-002	6.85621E-001	-4.39437E-002	2.14443E-003	-1.61541E-004	1.88280E-002	1.80569E-002	-9.02320E-004	-1.24444E-003	2.18812E-002	-1.40244E-003
	98	98	1.10026E+000	3.19699E-002	0.00000E+000	3.51753E-002	3.19088E-001	4.02280E-002	4.71299E+001	11	...........	6.71643E-002	-5.12611E-003	5.90003E-001	5.65756E-001	-2.82662E-002	-3.90217E-002	6.85612E-001	-4.39268E-002	2.14723E-003	-1.63881E-004	1.88623E-002	1.80871E-002	-9.03668E-004	-1.24752E-003	2.19189E-002	-1.40433E-003
	99	99	1.10031E+000	3.20253E-002	0.00000E+000	3.52379E-002	3.19638E-001	4.01998E-002	4.71016E+001	11	...........	6.71117E-002	-5.05958E-003	5.90069E-001	5.65760E-001	-2.82492E-002	-3.90133E-002	6.85677E-001	-4.39858E-002	2.14927E-003	-1.62035E-004	1.88971E-002	1.81187E-002	-9.04689E-004	-1.24941E-003	2.19590E-002	-1.40866E-003
	100	100	1.10036E+000	3.16514E-002	0.00000E+000	3.48281E-002	3.15919E-001	4.01685E-002	4.71038E+001	11	...........	6.70669E-002	-4.97264E-003	5.89984E-001	5.65692E-001	-2.82293E-002	-3.90093E-002	6.85625E-001	-4.39522E-002	2.12277E-003	-1.57391E-004	1.86739E-002	1.79050E-002	-8.93498E-004	-1.23470E-003	2.17010E-002	-1.39115E-003
	101	101	1.10026E+000	3.16951E-002	0.00000E+000	3.48729E-002	3.16356E-001	4.01346E-002	4.71106E+001	11	...........	6.70153E-002	-4.93292E-003	5.90017E-001	5.65638E-001	-2.82196E-002	-3.89928E-002	6.85694E-001	-4.38271E-002	2.12405E-003	-1.56349E-004	1.87006E-002	1.79279E-002	-8.94421E-004	-1.23588E-003	2.17331E-002	-1.38910E-003
	102	102	1.10031E+000	3.17751E-002	0.00000E+000	3.49625E-002	3.17149E-001	4.01065E-002	4.71183E+001	11	...........	6.69635E-002	-4.92694E-003	5.90149E-001	5.65540E-001	-2.82037E-002	-3.89814E-002	6.85732E-001	-4.38468E-002	2.12777E-003	-1.56554E-004	1.87520E-002	1.79701E-002	-8.96177E-004	-1.23864E-003	2.17892E-002	-1.39324E-003
	103	103	1.10037E+000	3.14408E-002	0.00000E+000	3.45964E-002	3.13827E-001	4.00827E-002	4.71090E+001	11	...........	6.69267E-002	-5.01889E-003	5.90231E-001	5.65345E-001	-2.82085E-002	-3.89690E-002	6.85669E-001	-4.38968E-002	2.10423E-003	-1.57798E-004	1.85574E-002	1.77749E-002	-8.86897E-004	-1.22522E-003	2.15580E-002	-1.38015E-003
	104	104	1.10026E+000	3.14656E-002	0.00000E+000	3.46205E-002	3.14077E-001	4.00668E-002	4.70947E+001	11	...........	6.68856E-002	-4.91403E-003	5.90285E-001	5.65221E-001	-2.82226E-002	-3.89728E-002	6.85652E-001	-4.39439E-002	2.10459E-003	-1.54623E-004	1.85737E-002	1.77850E-002	-8.88042E-004	-1.22630E-003	2.15744E-002	-1.38272E-003
	105	105	1.10031E+000	3.15220E-002	0.00000E+000	3.46839E-002	3.14634E-001	4.00449E-002	4.70868E+001	11	...........	6.68371E-002	-4.92944E-003	5.90377E-001	5.65302E-001	-2.82037E-002	-3.89894E-002	6.85727E-001	-4.38896E-002	2.10684E-003	-1.55386E-004	1.86098E-002	1.78194E-002	-8.89037E-004	-1.22902E-003	2.16154E-002	-1.38349E-003
	106	106	1.10037E+000	3.12140E-002	0.00000E+000	3.43469E-002	3.11575E-001	4.00252E-002	4.70755E+001	11	...........	6.68107E-002	-5.10611E-003	5.90294E-001	5.65323E-001	-2.82217E-002	-3.89865E-002	6.85801E-001	-4.38879E-002	2.08543E-003	-1.59382E-004	1.84255E-002	1.76460E-002	-8.80912E-004	-1.21693E-003	2.14066E-002	-1.36992E-003
	107	107	1.10026E+000	3.12494E-002	0.00000E+000	3.43826E-002	3.11925E-001	3.99934E-002	4.70924E+001	11	...........	6.67672E-002	-5.05125E-003	5.90310E-001	5.65376E-001	-2.82201E-002	-3.89858E-002	6.85769E-001	-4.39286E-002	2.08644E-003	-1.57849E-004	1.84468E-002	1.76677E-002	-8.81863E-004	-1.21828E-003	2.14299E-002	-1.37274E-003
	108	108	1.10031E+000	3.13365E-002	0.00000E+000	3.44798E-002	3.12787E-001	3.99669E-002	4.70858E+001	11	...........	6.67242E-002	-4.95431E-003	5.90306E-001	5.65424E-001	-2.82264E-002	-3.89793E-002	6.85781E-001	-4.39768E-002	2.09090E-003	-1.55251E-004	1.84981E-002	1.77184E-002	-8.84517E-004	-1.22148E-003	2.14900E-002	-1.37808E-003
	109	109	1.10037E+000	3.10266E-002	0.00000E+000	3.41407E-002	3.09707E-001	3.99397E-002	4.70890E+001	11	...........	6.66862E-002	-4.99167E-003	5.90119E-001	5.65490E-001	-2.82257E-002	-3.89721E-002	6.85669E-001	-4.40201E-002	2.06904E-003	-1.54874E-004	1.83094E-002	1.75452E-002	-8.75746E-004	-1.20917E-003	2.12739E-002	-1.36579E-003
	110	110	1.10026E+000	3.10276E-002	0.00000E+000	3.41385E-002	3.09719E-001	3.99049E-002	4.70928E+001	11	...........	6.66435E-002	-4.94431E-003	5.90022E-001	5.65495E-001	-2.82164E-002	-3.89908E-002	6.85702E-001	-4.40554E-002	2.06778E-003	-1.53410E-004	1.83070E-002	1.75459E-002	-8.75486E-004	-1.20979E-003	2.12757E-002	-1.36693E-003
	111	111	1.10031E+000	3.11196E-002	0.00000E+000	3.42411E-002	3.10634E-001	3.98868E-002	4.71051E+001	11	...........	6.65982E-002	-4.94194E-003	5.90039E-001	5.65550E-001	-2.82418E-002	-3.89799E-002	6.85786E-001	-4.39124E-002	2.07251E-003	-1.53791E-004	1.83618E-002	1.75997E-002	-8.78873E-004	-1.21304E-003	2.13414E-002	-1.36653E-003
	112	112	1.10037E+000	3.08134E-002	0.00000E+000	3.39062E-002	3.07586E-001	3.98579E-002	4.71254E+001	11	...........	6.65562E-002	-4.94194E-003	5.90128E-001	5.65658E-001	-2.82612E-002	-3.89725E-002	6.85800E-001	-4.38451E-002	2.05083E-003	-1.52278E-004	1.81839E-002	1.74299E-002	-8.70826E-004	-1.20088E-003	2.11318E-002	-1.35102E-003
	113	113	1.10026E+000	3.08090E-002	0.00000E+000	3.38980E-002	3.07541E-001	3.98285E-002	4.71234E+001	11	...........	6.65032E-002	-4.93556E-003	5.90075E-001	5.65784E-001	-2.82426E-002	-3.89875E-002	6.85692E-001	-4.40010E-002	2.04890E-003	-1.52059E-004	1.81796E-002	1.74312E-002	-8.70127E-004	-1.20117E-003	2.11255E-002	-1.35563E-003
	114	114	1.10031E+000	3.09015E-002	0.00000E+000	3.40010E-002	3.08460E-001	3.98177E-002	4.70995E+001	11	...........	6.64697E-002	-4.78806E-003	5.90059E-001	5.65784E-001	-2.82501E-002	-3.89894E-002	6.85780E-001	-4.40812E-002	2.05401E-003	-1.47958E-004	1.82337E-002	1.74836E-002	-8.72971E-004	-1.20483E-003	2.11916E-002	-1.36217E-003
	115	115	1.10037E+000	3.06276E-002	0.00000E+000	3.37017E-002	3.05742E-001	3.97894E-002	4.70848E+001	11	...........	6.64035E-002	-4.83833E-003	5.89937E-001	5.65968E-001	-2.82657E-002	-3.90187E-002	6.85727E-001	-4.40803E-002	2.03378E-003	-1.48187E-004	1.80684E-002	1.73342E-002	-8.65711E-004	-1.19505E-003	2.10022E-002	-1.35007E-003
	116	116	1.10026E+000	3.06394E-002	0.00000E+000	3.37114E-002	3.05859E-001	3.97558E-002	4.70685E+001	11	...........	6.63854E-002	-4.92111E-003	5.89827E-001	5.66031E-001	-2.82812E-002	-3.90235E-002	6.85784E-001	-4.39757E-002	2.03401E-003	-1.50780E-004	1.80719E-002	1.73428E-002	-8.66520E-004	-1.19566E-003	2.10120E-002	-1.34739E-003
	117	117	1.10030E+000	3.07340E-002	0.00000E+000	3.38167E-002	3.06802E-001	3.97366E-002	4.70684E+001	11	...........	6.63524E-002	-4.85625E-003	5.89779E-001	5.66033E-001	-2.82951E-002	-3.90082E-002	6.85772E-001	-4.39156E-002	2.03927E-003	-1.49252E-004	1.81263E-002	1.73965E-002	-8.69623E-004	-1.19888E-003	2.10765E-002	-1.34970E-003
	118	118	1.10037E+000	3.04341E-002	0.00000E+000	3.34888E-002	3.03823E-001	3.97103E-002	4.71020E+001	11	...........	6.62978E-002	-4.87667E-003	5.89916E-001	5.66180E-001	-2.82990E-002	-3.90144E-002	6.85771E-001	-4.38988E-002	2.01771E-003	-1.48417E-004	1.79535E-002	1.72312E-002	-8.61254E-004	-1.18737E-003	2.08708E-002	-1.33602E-003
	119	119	1.10027E+000	3.04000E-002	0.00000E+000	3.34480E-002	3.03479E-001	3.96773E-002	4.71124E+001	11	...........	6.62494E-002	-4.97319E-003	5.89943E-001	5.66159E-001	-2.83007E-002	-3.89928E-002	6.85768E-001	-4.39081E-002	2.01398E-003	-1.51185E-004	1.79342E-002	1.72112E-002	-8.60340E-004	-1.18538E-003	2.08473E-002	-1.33480E-003
	120	120	1.10030E+000	3.04995E-002	0.00000E+000	3.35587E-002	3.04472E-001	3.96566E-002	4.71070E+001	11	...........	6.62179E-002	-5.05417E-003	5.89951E-001	5.66182E-001	-2.83083E-002	-3.89706E-002	6.85852E-001	-4.39340E-002	2.01961E-003	-1.54150E-004	1.79932E-002	1.72683E-002	-8.63390E-004	-1.18858E-003	2.09181E-002	-1.33997E-003
	121	121	1.10037E+000	3.02313E-002	0.00000E+000	3.32657E-002	3.01809E-001	3.96343E-002	4.70871E+001	11	...........	6.61721E-002	-4.96375E-003	5.89993E-001	5.66225E-001	-2.83165E-002	-3.89764E-002	6.85934E-001	-4.39236E-002	2.00047E-003	-1.50061E-004	1.78363E-002	1.71177E-002	-8.56046E-004	-1.17831E-003	2.07367E-002	-1.32787E-003
	122	122	1.10027E+000	3.01882E-002	0.00000E+000	3.32150E-002	3.01383E-001	3.96147E-002	4.70806E+001	11	...........	6.61186E-002	-4.94458E-003	5.90141E-001	5.66220E-001	-2.83394E-002	-3.89668E-002	6.85884E-001	-4.38686E-002	1.99600E-003	-1.49268E-004	1.78153E-002	1.70931E-002	-8.55515E-004	-1.17634E-003	2.07056E-002	-1.32431E-003
	123	123	1.10030E+000	3.02942E-002	0.00000E+000	3.33328E-002	3.02431E-001	3.95909E-002	4.70689E+001	11	...........	6.60938E-002	-4.96222E-003	5.90154E-001	5.66232E-001	-2.83461E-002	-3.89912E-002	6.85831E-001	-4.39110E-002	2.00226E-003	-1.50327E-004	1.78783E-002	1.71536E-002	-8.58723E-004	-1.18121E-003	2.07767E-002	-1.33025E-003
	124	124	1.10037E+000	3.00209E-002	0.00000E+000	3.30341E-002	2.99716E-001	3.95761E-002	4.70543E+001	11	...........	6.60611E-002	-5.10597E-003	5.90092E-001	5.66233E-001	-2.83479E-002	-3.89900E-002	6.85837E-001	-4.38722E-002	1.98321E-003	-1.53286E-004	1.77151E-002	1.69988E-002	-8.51029E-004	-1.17051E-003	2.05894E-002	-1.31708E-003
	125	125	1.10027E+000	2.99578E-002	0.00000E+000	3.29616E-002	2.99089E-001	3.95405E-002	4.70421E+001	11	...........	6.60315E-002	-5.02903E-003	5.90239E-001	5.66302E-001	-2.83354E-002	-3.89892E-002	6.85875E-001	-4.39072E-002	1.97816E-003	-1.50658E-004	1.76823E-002	1.69651E-002	-8.48866E-004	-1.16803E-003	2.05473E-002	-1.31536E-003
	126	126	1.10030E+000	3.00750E-002	0.00000E+000	3.30915E-002	3.00248E-001	3.95167E-002	4.70640E+001	11	...........	6.59940E-002	-4.85472E-003	5.90177E-001	5.66214E-001	-2.83087E-002	-3.90568E-002	6.85973E-001	-4.40058E-002	1.98477E-003	-1.46006E-004	1.77496E-002	1.70289E-002	-8.51385E-004	-1.17463E-003	2.06306E-002	-1.32347E-003
	127	127	1.10037E+000	2.98349E-002	0.00000E+000	3.28295E-002	2.97862E-001	3.94986E-002	4.70739E+001	11	...........	6.59574E-002	-4.85889E-003	5.90252E-001	5.66224E-001	-2.82808E-002	-3.90644E-002	6.85864E-001	-4.40340E-002	1.96783E-003	-1.44964E-004	1.76101E-002	1.68932E-002	-8.43755E-004	-1.16548E-003	2.04627E-002	-1.31375E-003
	128	128	1.10027E+000	2.97375E-002	0.00000E+000	3.27192E-002	2.96895E-001	3.94688E-002	4.70630E+001	11	...........	6.59087E-002	-4.90222E-003	5.90304E-001	5.66237E-001	-2.82831E-002	-3.90660E-002	6.85787E-001	-4.41711E-002	1.95996E-003	-1.45780E-004	1.75542E-002	1.68385E-002	-8.41067E-004	-1.16172E-003	2.03936E-002	-1.31354E-003
	129	129	1.10030E+000	2.98424E-002	0.00000E+000	3.28356E-002	2.97941E-001	3.94497E-002	4.70849E+001	11	...........	6.58693E-002	-4.99208E-003	5.90333E-001	5.66325E-001	-2.82806E-002	-3.90658E-002	6.85804E-001	-4.40775E-002	1.96570E-003	-1.48976E-004	1.76170E-002	1.69005E-002	-8.43960E-004	-1.16582E-003	2.04660E-002	-1.31538E-003
	130	130	1.10037E+000	2.96205E-002	0.00000E+000	3.25936E-002	2.95739E-001	3.94281E-002	4.70986E+001	11	...........	6.58260E-002	-5.01250E-003	5.90255E-001	5.66340E-001	-2.82862E-002	-3.91115E-002	6.85679E-001	-4.39596E-002	1.94980E-003	-1.48473E-004	1.74837E-002	1.67753E-002	-8.37853E-004	-1.15850E-003	2.03102E-002	-1.30211E-003
	131	131	1.10027E+000	2.95244E-002	0.00000E+000	3.24848E-002	2.94781E-001	3.94057E-002	4.70854E+001	11	...........	6.57853E-002	-5.05875E-003	5.90253E-001	5.66402E-001	-2.82792E-002	-3.91165E-002	6.85851E-001	-4.38403E-002	1.94227E-003	-1.49357E-004	1.74269E-002	1.67227E-002	-8.34926E-004	-1.15489E-003	2.02493E-002	-1.29436E-003
	132	132	1.10030E+000	2.96437E-002	0.00000E+000	3.26170E-002	2.95965E-001	3.93797E-002	4.70943E+001	11	...........	6.57556E-002	-4.99486E-003	5.90205E-001	5.66428E-001	-2.82950E-002	-3.91157E-002	6.85858E-001	-4.38453E-002	1.94924E-003	-1.48066E-004	1.74959E-002	1.67910E-002	-8.38770E-004	-1.15954E-003	2.03314E-002	-1.29974E-003
	133	133	1.10037E+000	2.94156E-002	0.00000E+000	3.23681E-002	2.93697E-001	3.93540E-002	4.70651E+001	11	...........	6.57097E-002	-5.04889E-003	5.90144E-001	5.66408E-001	-2.83074E-002	-3.91276E-002	6.85785E-001	-4.38787E-002	1.93289E-003	-1.48516E-004	1.73595E-002	1.66613E-002	-8.32679E-004	-1.15096E-003	2.01728E-002	-1.29072E-003
	134	134	1.10027E+000	2.92977E-002	0.00000E+000	3.22354E-002	2.92525E-001	3.93227E-002	4.70547E+001	11	...........	6.56601E-002	-4.99069E-003	5.90128E-001	5.66434E-001	-2.83179E-002	-3.91172E-002	6.85548E-001	-4.39892E-002	1.92369E-003	-1.46216E-004	1.72894E-002	1.65952E-002	-8.29650E-004	-1.14604E-003	2.00850E-002	-1.28878E-003
	135	135	1.10030E+000	2.94301E-002	0.00000E+000	3.23819E-002	2.93840E-001	3.93103E-002	4.70432E+001	11	...........	6.56325E-002	-5.05986E-003	5.90172E-001	5.66622E-001	-2.83283E-002	-3.90771E-002	6.85532E-001	-4.39139E-002	1.93157E-003	-1.48912E-004	1.73688E-002	1.66757E-002	-8.33706E-004	-1.15004E-003	2.01753E-002	-1.29239E-003
	136	136	1.10037E+000	2.92162E-002	0.00000E+000	3.21486E-002	2.91717E-001	3.92780E-002	4.70622E+001	11	...........	6.55864E-002	-4.98069E-003	5.90236E-001	5.66786E-001	-2.83142E-002	-3.90611E-002	6.85616E-001	-4.39097E-002	1.91618E-003	-1.45517E-004	1.72444E-002	1.65593E-002	-8.27232E-004	-1.14122E-003	2.00311E-002	-1.28287E-003
	137	137	1.10027E+000	2.91170E-002	0.00000E+000	3.20367E-002	2.90732E-001	3.92590E-002	4.70697E+001	11	...........	6.55578E-002	-4.99153E-003	5.90158E-001	5.66753E-001	-2.83092E-002	-3.91107E-002	6.85711E-001	-4.38400E-002	1.90885E-003	-1.45338E-004	1.71837E-002	1.65022E-002	-8.24278E-004	-1.13879E-003	1.99659E-002	-1.27649E-003
	138	138	1.10030E+000	2.92372E-002	0.00000E+000	3.21696E-002	2.91930E-001	3.92457E-002	4.70820E+001	11	...........	6.55056E-002	-5.06514E-003	5.90081E-001	5.66703E-001	-2.82949E-002	-3.91139E-002	6.85634E-001	-4.38589E-002	1.91520E-003	-1.48090E-004	1.72523E-002	1.65688E-002	-8.27262E-004	-1.14358E-003	2.00460E-002	-1.28231E-003
	139	139	1.10037E+000	2.90219E-002	0.00000E+000	3.19348E-002	2.89787E-001	3.92165E-002	4.71015E+001	11	...........	6.54669E-002	-5.11403E-003	5.90006E-001	5.66591E-001	-2.82985E-002	-3.90861E-002	6.85629E-001	-4.39079E-002	1.89997E-003	-1.48419E-004	1.71231E-002	1.64435E-002	-8.21275E-004	-1.13435E-003	1.98983E-002	-1.27429E-003
	140	140	1.10028E+000	2.88993E-002	0.00000E+000	3.17972E-002	2.88569E-001	3.92049E-002	4.71156E+001	11	...........	6.54331E-002	-5.11514E-003	5.90031E-001	5.66603E-001	-2.83140E-002	-3.90786E-002	6.85683E-001	-4.38876E-002	1.89097E-003	-1.47824E-004	1.70515E-002	1.63744E-002	-8.18255E-004	-1.12934E-003	1.98158E-002	-1.26832E-003
	141	141	1.10030E+000	2.90228E-002	0.00000E+000	3.19336E-002	2.89796E-001	3.91706E-002	4.71405E+001	11	...........	6.54004E-002	-5.16361E-003	5.90177E-001	5.66606E-001	-2.83046E-002	-3.90760E-002	6.85758E-001	-4.38274E-002	1.89810E-003	-1.49862E-004	1.71286E-002	1.64445E-002	-8.21478E-004	-1.13409E-003	1.99026E-002	-1.27199E-003
	142	142	1.10037E+000	2.88179E-002	0.00000E+000	3.17103E-002	2.87762E-001	3.91535E-002	4.71446E+001	11	...........	6.53624E-002	-5.06750E-003	5.90096E-001	5.66693E-001	-2.82767E-002	-3.90986E-002	6.85736E-001	-4.37683E-002	1.88361E-003	-1.46035E-004	1.70053E-002	1.63309E-002	-8.14874E-004	-1.12674E-003	1.97615E-002	-1.26131E-003
	143	142.382	1.10033E+000	2.86840E-002	0.00000E+000	3.15618E-002	2.86426E-001	3.91330E-002	4.71512E+001	11	...........	6.53479E-002	-4.98071E-003	5.90065E-001	5.66710E-001	-2.82773E-002	-3.90862E-002	6.85829E-001	-4.38352E-002	1.87444E-003	-1.42867E-004	1.69254E-002	1.62555E-002	-8.11106E-004	-1.12115E-003	1.96723E-002	-1.25737E-003
STARTTIMEOFFSET	QUANT	545919.8	Start Time Offset (s)
