EXPLAIN
TAG	PWR800_CHARGE
TITLE	LABEL	PWR Charge	Test Identifier
DATE	LABEL	10/14/2022	Date
TIME	LABEL	13:29:44	Time
NOTES	NOTES	1	Notes...
	
PSTAT	PSTAT	REF3000-21114	Potentiostat
CAPACITY	QUANT	5.30000E-002	Capacity (A-hr)
CELLTYPE	SELECTOR	1	Cell Type
WORKINGCONNECTION	SELECTOR	0	Working Connection
MAXCHARGETIME	VARIABLEANDUNITS	7.20000E+003	s	2.00000E+000	hour(s)	Max Charge Time
CHARGEMODE	MULTIPARAM	0	1.00000E-001	Charge Mode	Constant Current	Amp(s)
CHARGECURRENT	QUANT	0.1	Charge Current (A)
VOLTAGEFINISH	TWOPARAM	T	2.50000E-002	7.20000E+003	Voltage Finish	I (A) <	Max Time(s)
SAMPLETIME	QUANT	1.00000E+000	Sample Period (s)
CHARGESTOPAT1	MULTIPARAM	2	1.10000E+000	Stop At 1	|Voltage| > Limit	V
CHARGESTOPAT2	MULTIPARAM	0	0.00000E+000	Stop At 2	None	N/A
AESELECTOR	AESELECTOR	0x1	T	Set Limits	AE Channels
AESBHCSELECTOR	TOGGLE	F	Save Both Half Cells
IRCOMP	TOGGLE	F	IR Measure
EOC	QUANT	0.2369718	Open Circuit (V)
SEQUENCER	TOGGLE	TRUE	Run as Sequence
PSTATMODEL	IQUANT	5	Pstat Model
PSTATSECTION	LABEL	REF3000-21114	Pstat Section
PSTATSERIALNO	LABEL	21114	Pstat Serial Number
CTRLMODE	IQUANT	0	Control Mode
ELECTROMETER	IQUANT	0	RE=0 or CS=1
IESTAB	IQUANT	0	I/E Stability
CASPEED	IQUANT	4	Control Amp Speed
CONVENTION	IQUANT	1	Current Convention
ICHRANGE	IQUANT	2	Ich Range
ICHRANGEMODE	TOGGLE	T	Ich Auto Range
ICHOFFSETENABLE	TOGGLE	F	Ich Offset Enable
ICHOFFSET	QUANT	0	Ich Offset (V)
ICHFILTER	IQUANT	1	Ich Filter
VCHRANGE	IQUANT	3	Vch Range
VCHRANGEMODE	TOGGLE	T	Vch Auto Range
VCHOFFSETENABLE	TOGGLE	F	Vch Offset Enable
VCHOFFSET	QUANT	0	Vch Offset (V)
VCHFILTER	IQUANT	1	Vch Filter
ACHRANGE	IQUANT	2	Ach Range
ACHOFFSETENABLE	TOGGLE	F	Ach Offset Enable
ACHOFFSET	QUANT	0	Ach Offset (V)
ACHFILTER	IQUANT	1	Ach Filter
IERANGELOWERLIMIT	IQUANT	9	I/E Range Lower Limit
IERANGEMODE	TOGGLE	F	I/E AutoRange
IERANGE	IQUANT	9	I/E Range
POSFEEDENABLE	TOGGLE	F	Positive Feedback IR Comp
POSFEEDRESISTANCE	QUANT	0	Positive Feedback Resistance (ohm)
ACHSELECT	IQUANT	1	Ach Select
SENSECABLEID	IQUANT	13	Sense Cable ID
PWRCABLEID	IQUANT	13	Power Cable ID
DCCALDATE	LABEL		DC Calibration Date
ACCALDATE	LABEL		AC Calibration Date
THERMOSELECT	IQUANT	1	Thermo Select
FRAMEWORKVERSION	LABEL	7.8.6	Framework Version
INSTRUMENTVERSION	LABEL	4.50	Instrument Version
COMPLIANCEVOLTAGE	IQUANT	0	Compliance Voltage
CURVE	TABLE	215
	Pt	T	Vf	Im	Vu	Pwr	Sig	Ach	Temp	IERange	Over	Vf1	Vf2	Vf3	Vf4	Vf5	Vf6	Vf7	Vf8	Pwr1	Pwr2	Pwr3	Pwr4	Pwr5	Pwr6	Pwr7	Pwr8
	#	s	V	A	V	W	V	V	deg C	#	bits	V	V	V	V	V	V	V	V	W	W	W	W	W	W	W	W
	0	1	5.07831E-001	9.98566E-002	0.00000E+000	5.07102E-002	9.94000E-001	4.25528E-002	4.23829E+001	11	...........	7.06465E-002	-5.36986E-003	6.08132E-001	5.30279E-001	-2.55790E-002	-3.68296E-002	7.07651E-001	-4.37397E-002	7.05452E-003	-5.36216E-004	6.07260E-002	5.29519E-002	-2.55423E-003	-3.67768E-003	7.06636E-002	-4.36770E-003
	1	2	6.49138E-001	9.98575E-002	0.00000E+000	6.48213E-002	9.94000E-001	4.25556E-002	4.37624E+001	11	...........	7.06628E-002	-5.42958E-003	6.08155E-001	5.30296E-001	-2.55842E-002	-3.68253E-002	7.07634E-001	-4.37233E-002	7.05621E-003	-5.42184E-004	6.07289E-002	5.29540E-002	-2.55477E-003	-3.67728E-003	7.06625E-002	-4.36610E-003
	2	3	8.78419E-001	9.98576E-002	0.00000E+000	8.77168E-002	9.94000E-001	4.32012E-002	4.79033E+001	11	...........	7.17183E-002	-5.47764E-003	6.08318E-001	5.30364E-001	-2.55961E-002	-3.68540E-002	7.07595E-001	-4.37915E-002	7.16162E-003	-5.46984E-004	6.07452E-002	5.29609E-002	-2.55597E-003	-3.68015E-003	7.06588E-002	-4.37292E-003
	3	3.08333	1.08823E+000	9.98589E-002	0.00000E+000	1.08670E-001	9.94000E-001	4.38490E-002	5.26704E+001	11	...........	7.27433E-002	-5.49167E-003	6.08475E-001	5.30327E-001	-2.55917E-002	-3.68883E-002	7.07697E-001	-4.37983E-002	7.26407E-003	-5.48391E-004	6.07616E-002	5.29578E-002	-2.55555E-003	-3.68363E-003	7.06698E-002	-4.37365E-003
	4	4	1.10057E+000	7.18270E-002	0.00000E+000	7.90505E-002	7.15279E-001	4.31777E-002	5.22476E+001	11	...........	7.16426E-002	-5.54258E-003	6.08407E-001	5.30325E-001	-2.56098E-002	-3.68776E-002	7.07527E-001	-4.38303E-002	5.14587E-003	-3.98107E-004	4.37001E-002	3.80917E-002	-1.83948E-003	-2.64881E-003	5.08195E-002	-3.14820E-003
	5	5	1.10012E+000	5.81495E-002	0.00000E+000	6.39716E-002	5.79279E-001	4.31464E-002	4.95166E+001	11	...........	7.16057E-002	-5.43181E-003	6.08448E-001	5.30261E-001	-2.56274E-002	-3.68900E-002	7.07583E-001	-4.37674E-002	4.16383E-003	-3.15857E-004	3.53810E-002	3.08344E-002	-1.49022E-003	-2.14513E-003	4.11456E-002	-2.54505E-003
	6	6	1.10018E+000	5.35665E-002	0.00000E+000	5.89331E-002	5.33718E-001	4.28171E-002	4.73945E+001	11	...........	7.10328E-002	-5.29083E-003	6.08306E-001	5.30308E-001	-2.56436E-002	-3.68924E-002	7.07547E-001	-4.37792E-002	3.80498E-003	-2.83412E-004	3.25848E-002	2.84068E-002	-1.37364E-003	-1.97620E-003	3.79009E-002	-2.34510E-003
	7	7	1.10009E+000	5.09661E-002	0.00000E+000	5.60674E-002	5.07854E-001	4.31148E-002	4.93490E+001	11	...........	7.15315E-002	-5.35875E-003	6.08264E-001	5.30233E-001	-2.56590E-002	-3.68792E-002	7.07508E-001	-4.37507E-002	3.64568E-003	-2.73115E-004	3.10008E-002	2.70239E-002	-1.30774E-003	-1.87959E-003	3.60589E-002	-2.22980E-003
	8	8	1.10005E+000	4.98933E-002	0.00000E+000	5.48852E-002	4.97191E-001	4.32726E-002	5.06043E+001	11	...........	7.17768E-002	-5.44000E-003	6.08302E-001	5.30062E-001	-2.56772E-002	-3.68589E-002	7.07523E-001	-4.38169E-002	3.58118E-003	-2.71419E-004	3.03502E-002	2.64466E-002	-1.28112E-003	-1.83901E-003	3.53006E-002	-2.18617E-003
	9	9	1.10016E+000	4.89476E-002	0.00000E+000	5.38500E-002	4.87794E-001	4.29953E-002	4.92806E+001	11	...........	7.13587E-002	-5.42542E-003	6.08023E-001	5.30154E-001	-2.56635E-002	-3.68539E-002	7.07424E-001	-4.38562E-002	3.49284E-003	-2.65561E-004	2.97613E-002	2.59498E-002	-1.25617E-003	-1.80391E-003	3.46267E-002	-2.14666E-003
	10	10	1.10009E+000	4.79527E-002	0.00000E+000	5.27522E-002	4.77900E-001	4.31808E-002	4.92137E+001	11	...........	7.16560E-002	-5.29736E-003	6.08085E-001	5.30169E-001	-2.55940E-002	-3.68374E-002	7.07383E-001	-4.38018E-002	3.43610E-003	-2.54023E-004	2.91593E-002	2.54231E-002	-1.22730E-003	-1.76645E-003	3.39209E-002	-2.10042E-003
	11	11	1.10004E+000	4.76943E-002	0.00000E+000	5.24657E-002	4.75335E-001	4.26831E-002	4.65898E+001	11	...........	7.08336E-002	-5.24000E-003	6.08143E-001	5.30163E-001	-2.55757E-002	-3.68496E-002	7.07299E-001	-4.37389E-002	3.37836E-003	-2.49918E-004	2.90050E-002	2.52857E-002	-1.21981E-003	-1.75751E-003	3.37341E-002	-2.08609E-003
	12	12	1.10014E+000	4.74397E-002	0.00000E+000	5.21905E-002	4.72804E-001	4.31449E-002	4.92879E+001	11	...........	7.15929E-002	-5.30722E-003	6.08397E-001	5.30124E-001	-2.55432E-002	-3.68044E-002	7.07337E-001	-4.37207E-002	3.39634E-003	-2.51773E-004	2.88622E-002	2.51489E-002	-1.21176E-003	-1.74599E-003	3.35558E-002	-2.07409E-003
	13	13	1.10009E+000	4.67839E-002	0.00000E+000	5.14664E-002	4.66281E-001	4.31557E-002	4.94165E+001	11	...........	7.16076E-002	-5.32403E-003	6.08409E-001	5.30128E-001	-2.55344E-002	-3.68142E-002	7.07365E-001	-4.37599E-002	3.35008E-003	-2.49079E-004	2.84637E-002	2.48014E-002	-1.19460E-003	-1.72231E-003	3.30933E-002	-2.04726E-003
	14	14	1.10004E+000	4.67904E-002	0.00000E+000	5.14714E-002	4.66354E-001	4.29979E-002	4.94994E+001	11	...........	7.13346E-002	-5.30736E-003	6.08428E-001	5.30302E-001	-2.55108E-002	-3.68103E-002	7.07331E-001	-4.37915E-002	3.33777E-003	-2.48334E-004	2.84686E-002	2.48131E-002	-1.19366E-003	-1.72237E-003	3.30963E-002	-2.04902E-003
	15	15	1.10014E+000	4.65765E-002	0.00000E+000	5.12405E-002	4.64227E-001	4.28977E-002	4.63232E+001	11	...........	7.11815E-002	-5.32069E-003	6.08409E-001	5.30238E-001	-2.54732E-002	-3.68062E-002	7.07373E-001	-4.37340E-002	3.31538E-003	-2.47819E-004	2.83376E-002	2.46966E-002	-1.18645E-003	-1.71431E-003	3.29469E-002	-2.03698E-003
	16	16	1.10010E+000	4.60695E-002	0.00000E+000	5.06808E-002	4.59176E-001	4.28937E-002	4.76611E+001	11	...........	7.12103E-002	-5.26806E-003	6.08182E-001	5.30123E-001	-2.54474E-002	-3.68026E-002	7.07491E-001	-4.37167E-002	3.28062E-003	-2.42697E-004	2.80187E-002	2.44225E-002	-1.17235E-003	-1.69548E-003	3.25937E-002	-2.01400E-003
	17	17	1.10004E+000	4.61708E-002	0.00000E+000	5.07896E-002	4.60188E-001	4.29249E-002	4.95956E+001	11	...........	7.12365E-002	-5.40250E-003	6.08193E-001	5.30112E-001	-2.54499E-002	-3.67782E-002	7.07499E-001	-4.35496E-002	3.28905E-003	-2.49438E-004	2.80808E-002	2.44757E-002	-1.17504E-003	-1.69808E-003	3.26658E-002	-2.01072E-003
	18	18	1.10013E+000	4.60599E-002	0.00000E+000	5.06720E-002	4.59087E-001	4.28622E-002	4.89240E+001	11	...........	7.11314E-002	-5.49139E-003	6.08218E-001	5.30233E-001	-2.54804E-002	-3.67778E-002	7.07475E-001	-4.36644E-002	3.27630E-003	-2.52933E-004	2.80144E-002	2.44225E-002	-1.17362E-003	-1.69398E-003	3.25862E-002	-2.01118E-003
	19	19	1.10010E+000	4.54821E-002	0.00000E+000	5.00349E-002	4.53343E-001	4.27577E-002	4.80533E+001	11	...........	7.09530E-002	-5.36375E-003	6.08325E-001	5.30458E-001	-2.55275E-002	-3.67847E-002	7.07508E-001	-4.37178E-002	3.22710E-003	-2.43955E-004	2.76679E-002	2.41264E-002	-1.16105E-003	-1.67305E-003	3.21790E-002	-1.98838E-003
	20	20	1.10003E+000	4.57177E-002	0.00000E+000	5.02910E-002	4.55685E-001	4.28031E-002	4.93512E+001	11	...........	7.12865E-002	-5.25208E-003	6.08425E-001	5.30456E-001	-2.55515E-002	-3.67836E-002	7.07681E-001	-4.37260E-002	3.25906E-003	-2.40113E-004	2.78158E-002	2.42512E-002	-1.16816E-003	-1.68166E-003	3.23535E-002	-1.99905E-003
	21	21	1.10013E+000	4.55800E-002	0.00000E+000	5.01440E-002	4.54321E-001	4.24723E-002	4.80156E+001	11	...........	7.08944E-002	-5.31306E-003	6.08361E-001	5.30579E-001	-2.55989E-002	-3.67678E-002	7.07544E-001	-4.37849E-002	3.23137E-003	-2.42169E-004	2.77291E-002	2.41838E-002	-1.16680E-003	-1.67588E-003	3.22498E-002	-1.99571E-003
	22	22	1.10010E+000	4.50578E-002	0.00000E+000	4.95683E-002	4.49125E-001	4.23163E-002	4.86630E+001	11	...........	7.06443E-002	-5.31889E-003	6.08186E-001	5.30366E-001	-2.55681E-002	-3.67579E-002	7.07590E-001	-4.38174E-002	3.18308E-003	-2.39658E-004	2.74035E-002	2.38971E-002	-1.15204E-003	-1.65623E-003	3.18825E-002	-1.97432E-003
	23	23	1.10003E+000	4.52446E-002	0.00000E+000	4.97706E-002	4.50983E-001	4.26476E-002	4.76285E+001	11	...........	7.11732E-002	-5.29111E-003	6.08284E-001	5.30249E-001	-2.54912E-002	-3.67471E-002	7.07684E-001	-4.38104E-002	3.22020E-003	-2.39394E-004	2.75215E-002	2.39909E-002	-1.15334E-003	-1.66261E-003	3.20189E-002	-1.98218E-003
	24	24	1.10012E+000	4.51707E-002	0.00000E+000	4.96934E-002	4.50247E-001	4.23281E-002	4.96104E+001	11	...........	7.06671E-002	-5.27472E-003	6.08312E-001	5.30255E-001	-2.55217E-002	-3.67583E-002	7.07657E-001	-4.38383E-002	3.19208E-003	-2.38263E-004	2.74779E-002	2.39520E-002	-1.15283E-003	-1.66040E-003	3.19654E-002	-1.98021E-003
	25	25	1.10011E+000	4.46446E-002	0.00000E+000	4.91140E-002	4.45018E-001	4.25337E-002	4.91385E+001	11	...........	7.09836E-002	-5.42583E-003	6.08474E-001	5.30148E-001	-2.56004E-002	-3.67687E-002	7.07673E-001	-4.38381E-002	3.16904E-003	-2.42234E-004	2.71651E-002	2.36683E-002	-1.14292E-003	-1.64153E-003	3.15938E-002	-1.95713E-003
	26	26	1.10003E+000	4.47241E-002	0.00000E+000	4.91980E-002	4.45805E-001	4.21617E-002	4.60481E+001	11	...........	7.03603E-002	-5.39917E-003	6.08473E-001	5.30167E-001	-2.56129E-002	-3.67914E-002	7.07636E-001	-4.37940E-002	3.14680E-003	-2.41473E-004	2.72134E-002	2.37112E-002	-1.14551E-003	-1.64546E-003	3.16484E-002	-1.95865E-003
	27	27	1.10012E+000	4.47990E-002	0.00000E+000	4.92843E-002	4.46553E-001	4.25153E-002	4.90281E+001	11	...........	7.09626E-002	-5.35708E-003	6.08507E-001	5.30185E-001	-2.56201E-002	-3.67844E-002	7.07563E-001	-4.36971E-002	3.17906E-003	-2.39992E-004	2.72605E-002	2.37517E-002	-1.14776E-003	-1.64791E-003	3.16981E-002	-1.95759E-003
	28	28	1.10012E+000	4.42832E-002	0.00000E+000	4.87166E-002	4.41427E-001	4.24419E-002	4.85659E+001	11	...........	7.08310E-002	-5.29361E-003	6.08655E-001	5.30290E-001	-2.55500E-002	-3.67711E-002	7.07547E-001	-4.37168E-002	3.13662E-003	-2.34418E-004	2.69532E-002	2.34829E-002	-1.13144E-003	-1.62834E-003	3.13324E-002	-1.93592E-003
	29	29	1.10003E+000	4.44287E-002	0.00000E+000	4.88729E-002	4.42871E-001	4.23349E-002	4.90227E+001	11	...........	7.06712E-002	-5.27042E-003	6.08668E-001	5.30320E-001	-2.54893E-002	-3.67264E-002	7.07489E-001	-4.36961E-002	3.13983E-003	-2.34158E-004	2.70423E-002	2.35614E-002	-1.13246E-003	-1.63170E-003	3.14328E-002	-1.94136E-003
	30	30	1.10012E+000	4.44149E-002	0.00000E+000	4.88616E-002	4.42735E-001	4.23049E-002	4.91695E+001	11	...........	7.06275E-002	-5.26583E-003	6.08563E-001	5.30214E-001	-2.55371E-002	-3.67296E-002	7.07629E-001	-4.36693E-002	3.13691E-003	-2.33882E-004	2.70293E-002	2.35494E-002	-1.13423E-003	-1.63134E-003	3.14293E-002	-1.93957E-003
	31	31	1.10012E+000	4.38774E-002	0.00000E+000	4.82704E-002	4.37391E-001	4.23881E-002	4.67272E+001	11	...........	7.07278E-002	-5.34208E-003	6.08629E-001	5.30317E-001	-2.56153E-002	-3.67561E-002	7.07666E-001	-4.38508E-002	3.10335E-003	-2.34397E-004	2.67050E-002	2.32690E-002	-1.12393E-003	-1.61276E-003	3.10506E-002	-1.92406E-003
	32	32	1.10003E+000	4.39380E-002	0.00000E+000	4.83331E-002	4.37991E-001	4.18882E-002	4.58647E+001	11	...........	6.99153E-002	-5.29306E-003	6.08718E-001	5.30479E-001	-2.56293E-002	-3.67744E-002	7.07585E-001	-4.38635E-002	3.07194E-003	-2.32566E-004	2.67459E-002	2.33082E-002	-1.12610E-003	-1.61579E-003	3.10898E-002	-1.92727E-003
	33	33	1.10011E+000	4.40672E-002	0.00000E+000	4.84788E-002	4.39271E-001	4.24013E-002	4.89986E+001	11	...........	7.07696E-002	-5.34083E-003	6.08853E-001	5.30493E-001	-2.55407E-002	-3.67342E-002	7.07556E-001	-4.38351E-002	3.11862E-003	-2.35356E-004	2.68304E-002	2.33773E-002	-1.12551E-003	-1.61877E-003	3.11800E-002	-1.93169E-003
	34	34	1.10013E+000	4.35213E-002	0.00000E+000	4.78790E-002	4.33845E-001	4.20315E-002	4.91332E+001	11	...........	7.05600E-002	-5.32667E-003	6.08888E-001	5.30568E-001	-2.55135E-002	-3.67244E-002	7.07583E-001	-4.38196E-002	3.07086E-003	-2.31824E-004	2.64996E-002	2.30910E-002	-1.11038E-003	-1.59830E-003	3.07950E-002	-1.90709E-003
	35	35	1.10003E+000	4.36035E-002	0.00000E+000	4.79652E-002	4.34665E-001	4.21311E-002	4.90925E+001	11	...........	7.03257E-002	-5.33042E-003	6.08733E-001	5.30682E-001	-2.56132E-002	-3.67619E-002	7.07517E-001	-4.38167E-002	3.06644E-003	-2.32425E-004	2.65429E-002	2.31396E-002	-1.11682E-003	-1.60295E-003	3.08502E-002	-1.91056E-003
	36	36	1.10011E+000	4.36485E-002	0.00000E+000	4.80182E-002	4.35111E-001	4.23036E-002	4.70597E+001	11	...........	7.06104E-002	-5.30667E-003	6.08726E-001	5.30788E-001	-2.56387E-002	-3.67876E-002	7.07522E-001	-4.37465E-002	3.08204E-003	-2.31628E-004	2.65700E-002	2.31681E-002	-1.11909E-003	-1.60573E-003	3.08823E-002	-1.90947E-003
	37	37	1.10013E+000	4.31133E-002	0.00000E+000	4.74302E-002	4.29793E-001	4.17176E-002	4.75069E+001	11	...........	6.96421E-002	-5.24708E-003	6.08680E-001	5.30948E-001	-2.55490E-002	-3.67782E-002	7.07494E-001	-4.37768E-002	3.00250E-003	-2.26219E-004	2.62422E-002	2.28909E-002	-1.10150E-003	-1.58563E-003	3.05024E-002	-1.88736E-003
	38	38	1.10003E+000	4.33212E-002	0.00000E+000	4.76545E-002	4.31857E-001	4.23718E-002	4.94301E+001	11	...........	7.07311E-002	-5.32056E-003	6.08766E-001	5.30843E-001	-2.55515E-002	-3.67771E-002	7.07527E-001	-4.38072E-002	3.06415E-003	-2.30493E-004	2.63724E-002	2.29967E-002	-1.10692E-003	-1.59323E-003	3.06509E-002	-1.89778E-003
	39	39	1.10010E+000	4.33061E-002	0.00000E+000	4.76412E-002	4.31702E-001	4.20599E-002	4.83178E+001	11	...........	7.01910E-002	-5.28750E-003	6.08751E-001	5.30819E-001	-2.56693E-002	-3.67612E-002	7.07607E-001	-4.38643E-002	3.03970E-003	-2.28981E-004	2.63626E-002	2.29877E-002	-1.11164E-003	-1.59199E-003	3.06437E-002	-1.89959E-003
	40	40	1.10013E+000	4.28134E-002	0.00000E+000	4.71004E-002	4.26809E-001	4.18496E-002	4.74863E+001	11	...........	6.98536E-002	-5.34083E-003	6.08730E-001	5.30951E-001	-2.56803E-002	-3.67958E-002	7.07592E-001	-4.38882E-002	2.99067E-003	-2.28659E-004	2.60618E-002	2.27318E-002	-1.09946E-003	-1.57535E-003	3.02944E-002	-1.87900E-003
	41	41	1.10003E+000	4.29729E-002	0.00000E+000	4.72714E-002	4.28394E-001	4.21394E-002	4.93268E+001	11	...........	7.03339E-002	-5.32069E-003	6.08773E-001	5.31057E-001	-2.55876E-002	-3.67931E-002	7.07573E-001	-4.38422E-002	3.02245E-003	-2.28646E-004	2.61607E-002	2.28210E-002	-1.09957E-003	-1.58110E-003	3.04064E-002	-1.88403E-003
	42	42	1.10011E+000	4.29623E-002	0.00000E+000	4.72630E-002	4.28291E-001	4.20843E-002	4.69537E+001	11	...........	7.02392E-002	-5.29278E-003	6.08731E-001	5.30765E-001	-2.55753E-002	-3.67535E-002	7.07473E-001	-4.38589E-002	3.01763E-003	-2.27390E-004	2.61525E-002	2.28029E-002	-1.09877E-003	-1.57901E-003	3.03946E-002	-1.88428E-003
	43	43	1.10013E+000	4.24827E-002	0.00000E+000	4.67367E-002	4.23521E-001	4.17847E-002	4.74255E+001	11	...........	6.97456E-002	-5.29042E-003	6.08663E-001	5.30987E-001	-2.56396E-002	-3.67631E-002	7.07509E-001	-4.38172E-002	2.96298E-003	-2.24751E-004	2.58577E-002	2.25578E-002	-1.08924E-003	-1.56180E-003	3.00569E-002	-1.86148E-003
	44	44	1.10003E+000	4.26406E-002	0.00000E+000	4.69059E-002	4.25093E-001	4.19385E-002	4.91758E+001	11	...........	6.99792E-002	-5.33042E-003	6.08670E-001	5.31244E-001	-2.56401E-002	-3.67897E-002	7.07489E-001	-4.38275E-002	2.98396E-003	-2.27292E-004	2.59541E-002	2.26526E-002	-1.09331E-003	-1.56874E-003	3.01678E-002	-1.86883E-003
	45	45	1.10010E+000	4.26965E-002	0.00000E+000	4.69704E-002	4.25645E-001	4.19957E-002	4.72458E+001	11	...........	7.00783E-002	-5.37750E-003	6.08740E-001	5.31398E-001	-2.55639E-002	-3.68086E-002	7.07533E-001	-4.37926E-002	2.99210E-003	-2.29600E-004	2.59911E-002	2.26889E-002	-1.09149E-003	-1.57160E-003	3.02092E-002	-1.86979E-003
	46	46	1.10014E+000	4.21774E-002	0.00000E+000	4.64011E-002	4.20485E-001	4.17707E-002	4.83966E+001	11	...........	6.97078E-002	-5.30611E-003	6.08660E-001	5.31087E-001	-2.55664E-002	-3.67710E-002	7.07550E-001	-4.38174E-002	2.94009E-003	-2.23798E-004	2.56717E-002	2.23999E-002	-1.07832E-003	-1.55091E-003	2.98426E-002	-1.84810E-003
	47	47	1.10002E+000	4.23081E-002	0.00000E+000	4.65399E-002	4.21786E-001	4.20038E-002	4.91196E+001	11	...........	7.01061E-002	-5.46403E-003	6.08811E-001	5.31153E-001	-2.56493E-002	-3.67978E-002	7.07486E-001	-4.38393E-002	2.96605E-003	-2.31172E-004	2.57576E-002	2.24721E-002	-1.08517E-003	-1.55684E-003	2.99324E-002	-1.85476E-003
	48	48	1.10010E+000	4.23758E-002	0.00000E+000	4.66174E-002	4.22454E-001	4.18377E-002	4.82886E+001	11	...........	6.98501E-002	-5.38222E-003	6.08796E-001	5.31334E-001	-2.56228E-002	-3.68139E-002	7.07454E-001	-4.38371E-002	2.95995E-003	-2.28076E-004	2.57982E-002	2.25157E-002	-1.08578E-003	-1.56002E-003	2.99789E-002	-1.85763E-003
	49	49	1.10015E+000	4.19034E-002	0.00000E+000	4.60999E-002	4.17765E-001	4.18953E-002	4.88986E+001	11	...........	6.99426E-002	-5.33736E-003	6.08917E-001	5.31781E-001	-2.55196E-002	-3.67685E-002	7.07491E-001	-4.37932E-002	2.93083E-003	-2.23654E-004	2.55157E-002	2.22834E-002	-1.06936E-003	-1.54072E-003	2.96463E-002	-1.83508E-003
	50	50	1.10003E+000	4.19090E-002	0.00000E+000	4.61011E-002	4.17817E-001	4.18156E-002	4.54701E+001	11	...........	6.97958E-002	-5.30181E-003	6.08864E-001	5.31840E-001	-2.55574E-002	-3.67497E-002	7.07495E-001	-4.38550E-002	2.92507E-003	-2.22193E-004	2.55169E-002	2.22889E-002	-1.07108E-003	-1.54014E-003	2.96504E-002	-1.83792E-003
	51	51	1.10009E+000	4.20718E-002	0.00000E+000	4.62827E-002	4.19439E-001	4.18053E-002	4.79796E+001	11	...........	6.97726E-002	-5.30833E-003	6.08809E-001	5.31859E-001	-2.56321E-002	-3.67926E-002	7.07376E-001	-4.38065E-002	2.93546E-003	-2.23331E-004	2.56137E-002	2.23763E-002	-1.07839E-003	-1.54793E-003	2.97606E-002	-1.84302E-003
	52	52	1.10015E+000	4.16028E-002	0.00000E+000	4.57694E-002	4.14776E-001	4.17576E-002	4.80587E+001	11	...........	6.96997E-002	-5.30278E-003	6.09130E-001	5.31880E-001	-2.55597E-002	-3.68028E-002	7.07458E-001	-4.38014E-002	2.89971E-003	-2.20611E-004	2.53415E-002	2.21277E-002	-1.06336E-003	-1.53110E-003	2.94323E-002	-1.82226E-003
	53	53	1.10002E+000	4.16376E-002	0.00000E+000	4.58023E-002	4.15117E-001	4.17562E-002	4.89120E+001	11	...........	6.96914E-002	-5.33847E-003	6.09093E-001	5.31895E-001	-2.55021E-002	-3.68108E-002	7.07521E-001	-4.38092E-002	2.90178E-003	-2.22281E-004	2.53612E-002	2.21468E-002	-1.06184E-003	-1.53271E-003	2.94595E-002	-1.82411E-003
	54	54	1.10009E+000	4.17140E-002	0.00000E+000	4.58891E-002	4.15880E-001	4.18070E-002	4.70138E+001	11	...........	6.97817E-002	-5.34569E-003	6.09140E-001	5.31852E-001	-2.55894E-002	-3.67932E-002	7.07528E-001	-4.38356E-002	2.91087E-003	-2.22990E-004	2.54097E-002	2.21857E-002	-1.06744E-003	-1.53479E-003	2.95138E-002	-1.82856E-003
	55	55	1.10015E+000	4.12087E-002	0.00000E+000	4.53359E-002	4.10853E-001	4.13610E-002	4.65962E+001	11	...........	6.90167E-002	-5.34597E-003	6.08998E-001	5.31920E-001	-2.56054E-002	-3.68133E-002	7.07375E-001	-4.37086E-002	2.84409E-003	-2.20301E-004	2.50960E-002	2.19197E-002	-1.05517E-003	-1.51703E-003	2.91500E-002	-1.80118E-003
	56	56	1.10002E+000	4.13680E-002	0.00000E+000	4.55058E-002	4.12437E-001	4.18908E-002	4.89131E+001	11	...........	6.98986E-002	-5.40625E-003	6.09014E-001	5.31919E-001	-2.55122E-002	-3.67957E-002	7.07437E-001	-4.37385E-002	2.89157E-003	-2.23646E-004	2.51937E-002	2.20045E-002	-1.05539E-003	-1.52217E-003	2.92653E-002	-1.80938E-003
	57	57	1.10009E+000	4.14348E-002	0.00000E+000	4.55819E-002	4.13099E-001	4.17602E-002	4.69240E+001	11	...........	6.97144E-002	-5.40806E-003	6.09079E-001	5.31832E-001	-2.55264E-002	-3.67903E-002	7.07491E-001	-4.37868E-002	2.88860E-003	-2.24082E-004	2.52371E-002	2.20363E-002	-1.05768E-003	-1.52440E-003	2.93147E-002	-1.81430E-003
	58	58	1.10016E+000	4.09607E-002	0.00000E+000	4.50631E-002	4.08389E-001	4.14055E-002	4.87071E+001	11	...........	6.91118E-002	-5.34708E-003	6.09368E-001	5.31427E-001	-2.55894E-002	-3.68290E-002	7.07513E-001	-4.38553E-002	2.83087E-003	-2.19020E-004	2.49601E-002	2.17676E-002	-1.04816E-003	-1.50854E-003	2.89802E-002	-1.79634E-003
	59	59	1.10002E+000	4.10313E-002	0.00000E+000	4.51353E-002	4.09087E-001	4.17719E-002	4.89737E+001	11	...........	6.97454E-002	-5.37708E-003	6.09628E-001	5.31478E-001	-2.55301E-002	-3.68389E-002	7.07568E-001	-4.38713E-002	2.86174E-003	-2.20629E-004	2.50138E-002	2.18072E-002	-1.04753E-003	-1.51155E-003	2.90324E-002	-1.80009E-003
	60	60	1.10009E+000	4.11224E-002	0.00000E+000	4.52381E-002	4.09991E-001	4.15511E-002	4.81507E+001	11	...........	6.93428E-002	-5.29819E-003	6.09646E-001	5.31674E-001	-2.54718E-002	-3.68096E-002	7.07484E-001	-4.38289E-002	2.85154E-003	-2.17874E-004	2.50701E-002	2.18637E-002	-1.04746E-003	-1.51370E-003	2.90934E-002	-1.80235E-003
	61	61	1.10016E+000	4.06719E-002	0.00000E+000	4.47456E-002	4.05513E-001	4.13613E-002	4.72372E+001	11	...........	6.90280E-002	-5.34958E-003	6.09716E-001	5.31525E-001	-2.55761E-002	-3.68315E-002	7.07448E-001	-4.38747E-002	2.80750E-003	-2.17578E-004	2.47983E-002	2.16182E-002	-1.04023E-003	-1.49801E-003	2.87733E-002	-1.78447E-003
	62	62	1.10002E+000	4.07153E-002	0.00000E+000	4.47877E-002	4.05946E-001	4.14918E-002	4.88254E+001	11	...........	6.92501E-002	-5.38458E-003	6.09720E-001	5.31631E-001	-2.55642E-002	-3.68574E-002	7.07607E-001	-4.38893E-002	2.81954E-003	-2.19235E-004	2.48249E-002	2.16455E-002	-1.04085E-003	-1.50066E-003	2.88104E-002	-1.78697E-003
	63	63	1.10008E+000	4.08429E-002	0.00000E+000	4.49306E-002	4.07215E-001	4.17347E-002	4.95355E+001	11	...........	6.96649E-002	-5.32625E-003	6.09756E-001	5.31446E-001	-2.54858E-002	-3.68236E-002	7.07452E-001	-4.37813E-002	2.84532E-003	-2.17539E-004	2.49042E-002	2.17058E-002	-1.04092E-003	-1.50398E-003	2.88944E-002	-1.78815E-003
	64	64	1.10016E+000	4.04240E-002	0.00000E+000	4.44729E-002	4.03049E-001	4.14783E-002	4.86023E+001	11	...........	6.92199E-002	-5.28069E-003	6.09815E-001	5.31715E-001	-2.55779E-002	-3.68278E-002	7.07449E-001	-4.37696E-002	2.79815E-003	-2.13467E-004	2.46512E-002	2.14941E-002	-1.03396E-003	-1.48873E-003	2.85979E-002	-1.76934E-003
	65	65	1.10002E+000	4.03794E-002	0.00000E+000	4.44183E-002	4.02606E-001	4.14505E-002	4.73582E+001	11	...........	6.91610E-002	-5.31208E-003	6.09740E-001	5.31698E-001	-2.56218E-002	-3.68807E-002	7.07499E-001	-4.38172E-002	2.79268E-003	-2.14499E-004	2.46210E-002	2.14696E-002	-1.03459E-003	-1.48922E-003	2.85684E-002	-1.76931E-003
	66	66	1.10008E+000	4.05210E-002	0.00000E+000	4.45763E-002	4.04013E-001	4.12886E-002	4.57167E+001	11	...........	6.89133E-002	-5.38500E-003	6.09668E-001	5.31480E-001	-2.55049E-002	-3.68714E-002	7.07384E-001	-4.38208E-002	2.79244E-003	-2.18205E-004	2.47043E-002	2.15361E-002	-1.03348E-003	-1.49406E-003	2.86639E-002	-1.77566E-003
	67	67	1.10016E+000	4.01767E-002	0.00000E+000	4.42009E-002	4.00593E-001	4.15403E-002	4.89034E+001	11	...........	6.93407E-002	-5.43111E-003	6.09711E-001	5.31324E-001	-2.55490E-002	-3.68612E-002	7.07577E-001	-4.37160E-002	2.78588E-003	-2.18204E-004	2.44961E-002	2.13468E-002	-1.02647E-003	-1.48096E-003	2.84281E-002	-1.75636E-003
	68	68	1.10002E+000	4.01360E-002	0.00000E+000	4.41505E-002	4.00186E-001	4.13930E-002	4.86188E+001	11	...........	6.91053E-002	-5.29875E-003	6.09742E-001	5.31249E-001	-2.55756E-002	-3.68754E-002	7.07512E-001	-4.36179E-002	2.77361E-003	-2.12671E-004	2.44726E-002	2.13222E-002	-1.02650E-003	-1.48003E-003	2.83967E-002	-1.75065E-003
	69	69	1.10008E+000	4.02269E-002	0.00000E+000	4.42527E-002	4.01091E-001	4.12368E-002	4.75849E+001	11	...........	6.88314E-002	-5.18264E-003	6.09702E-001	5.31543E-001	-2.55003E-002	-3.68344E-002	7.07437E-001	-4.36628E-002	2.76887E-003	-2.08481E-004	2.45264E-002	2.13823E-002	-1.02580E-003	-1.48173E-003	2.84580E-002	-1.75642E-003
	70	70	1.10017E+000	3.98628E-002	0.00000E+000	4.38557E-002	3.97469E-001	4.15762E-002	4.80317E+001	11	...........	6.94049E-002	-5.23389E-003	6.09673E-001	5.31427E-001	-2.55253E-002	-3.67826E-002	7.07509E-001	-4.37306E-002	2.76667E-003	-2.08637E-004	2.43033E-002	2.11842E-002	-1.01751E-003	-1.46626E-003	2.82033E-002	-1.74322E-003
	71	71	1.10002E+000	3.98457E-002	0.00000E+000	4.38311E-002	3.97299E-001	4.12169E-002	4.86334E+001	11	...........	6.87876E-002	-5.22028E-003	6.09571E-001	5.31425E-001	-2.56082E-002	-3.68112E-002	7.07507E-001	-4.36844E-002	2.74089E-003	-2.08006E-004	2.42888E-002	2.11750E-002	-1.02038E-003	-1.46677E-003	2.81911E-002	-1.74064E-003
	72	72	1.10008E+000	3.99996E-002	0.00000E+000	4.40027E-002	3.98828E-001	4.14048E-002	4.89709E+001	11	...........	6.90986E-002	-5.24028E-003	6.09602E-001	5.31312E-001	-2.55875E-002	-3.67993E-002	7.07595E-001	-4.37646E-002	2.76392E-003	-2.09609E-004	2.43838E-002	2.12523E-002	-1.02349E-003	-1.47196E-003	2.83035E-002	-1.75057E-003
	73	73	1.10017E+000	3.95966E-002	0.00000E+000	4.35628E-002	3.94824E-001	4.13398E-002	4.72678E+001	11	...........	6.89860E-002	-5.23208E-003	6.09689E-001	5.31392E-001	-2.55167E-002	-3.67537E-002	7.07414E-001	-4.38818E-002	2.73161E-003	-2.07173E-004	2.41416E-002	2.10413E-002	-1.01037E-003	-1.45532E-003	2.80112E-002	-1.73757E-003
	74	74	1.10002E+000	3.95165E-002	0.00000E+000	4.34691E-002	3.94031E-001	4.12125E-002	4.73588E+001	11	...........	6.87899E-002	-5.20931E-003	6.09655E-001	5.31101E-001	-2.56367E-002	-3.67762E-002	7.07398E-001	-4.38453E-002	2.71834E-003	-2.05854E-004	2.40915E-002	2.09873E-002	-1.01307E-003	-1.45327E-003	2.79539E-002	-1.73261E-003
	75	75	1.10008E+000	3.96011E-002	0.00000E+000	4.35643E-002	3.94873E-001	4.12177E-002	4.78144E+001	11	...........	6.87724E-002	-5.20458E-003	6.09627E-001	5.31108E-001	-2.56403E-002	-3.67933E-002	7.07485E-001	-4.38281E-002	2.72346E-003	-2.06107E-004	2.41419E-002	2.10325E-002	-1.01538E-003	-1.45706E-003	2.80172E-002	-1.73564E-003
	76	76	1.10017E+000	3.92783E-002	0.00000E+000	4.32127E-002	3.91668E-001	4.13112E-002	4.91281E+001	11	...........	6.89708E-002	-5.27389E-003	6.09695E-001	5.31114E-001	-2.55261E-002	-3.67551E-002	7.07583E-001	-4.37524E-002	2.70906E-003	-2.07150E-004	2.39478E-002	2.08613E-002	-1.00262E-003	-1.44368E-003	2.77927E-002	-1.71852E-003
	77	77	1.10002E+000	3.92269E-002	0.00000E+000	4.31505E-002	3.91156E-001	4.12237E-002	4.76848E+001	11	...........	6.88093E-002	-5.25722E-003	6.09553E-001	5.30904E-001	-2.56139E-002	-3.67401E-002	7.07511E-001	-4.37943E-002	2.69918E-003	-2.06224E-004	2.39109E-002	2.08257E-002	-1.00475E-003	-1.44120E-003	2.77535E-002	-1.71791E-003
	78	78	1.10008E+000	3.94041E-002	0.00000E+000	4.33475E-002	3.92918E-001	4.12361E-002	4.88650E+001	11	...........	6.88486E-002	-5.23403E-003	6.09451E-001	5.30787E-001	-2.56339E-002	-3.67735E-002	7.07580E-001	-4.38421E-002	2.71292E-003	-2.06242E-004	2.40149E-002	2.09152E-002	-1.01008E-003	-1.44903E-003	2.78816E-002	-1.72756E-003
	79	79	1.10017E+000	3.90166E-002	0.00000E+000	4.29247E-002	3.89065E-001	4.11968E-002	4.72719E+001	11	...........	6.87607E-002	-5.23500E-003	6.09492E-001	5.30819E-001	-2.55331E-002	-3.67394E-002	7.07619E-001	-4.37700E-002	2.68281E-003	-2.04252E-004	2.37803E-002	2.07107E-002	-9.96214E-004	-1.43345E-003	2.76089E-002	-1.70776E-003
	80	80	1.10002E+000	3.89083E-002	0.00000E+000	4.28001E-002	3.87989E-001	4.06179E-002	4.54844E+001	11	...........	6.77703E-002	-5.19736E-003	6.09157E-001	5.30624E-001	-2.56531E-002	-3.67383E-002	7.07540E-001	-4.38358E-002	2.63683E-003	-2.02221E-004	2.37013E-002	2.06457E-002	-9.98117E-004	-1.42943E-003	2.75292E-002	-1.70558E-003
	81	81	1.10007E+000	3.91509E-002	0.00000E+000	4.30689E-002	3.90397E-001	4.16128E-002	4.88907E+001	11	...........	6.94583E-002	-5.27264E-003	6.09343E-001	5.30715E-001	-2.56521E-002	-3.67767E-002	7.07588E-001	-4.37253E-002	2.71936E-003	-2.06429E-004	2.38563E-002	2.07780E-002	-1.00430E-003	-1.43984E-003	2.77027E-002	-1.71188E-003
	82	82	1.10017E+000	3.88079E-002	0.00000E+000	4.26952E-002	3.86985E-001	4.12233E-002	4.91454E+001	11	...........	6.88050E-002	-5.30264E-003	6.09620E-001	5.31030E-001	-2.55312E-002	-3.67246E-002	7.07646E-001	-4.37601E-002	2.67018E-003	-2.05784E-004	2.36581E-002	2.06082E-002	-9.90815E-004	-1.42521E-003	2.74623E-002	-1.69824E-003
	83	83	1.10003E+000	3.86610E-002	0.00000E+000	4.25281E-002	3.85525E-001	4.10646E-002	4.77948E+001	11	...........	6.85279E-002	-5.30708E-003	6.09658E-001	5.30982E-001	-2.56335E-002	-3.66815E-002	7.07708E-001	-4.37431E-002	2.64936E-003	-2.05177E-004	2.35700E-002	2.05283E-002	-9.91015E-004	-1.41814E-003	2.73607E-002	-1.69115E-003
	84	84	1.10007E+000	3.87739E-002	0.00000E+000	4.26541E-002	3.86645E-001	4.08292E-002	4.48657E+001	11	...........	6.81471E-002	-5.30694E-003	6.09630E-001	5.31006E-001	-2.56275E-002	-3.67081E-002	7.07693E-001	-4.37176E-002	2.64233E-003	-2.05771E-004	2.36377E-002	2.05892E-002	-9.93677E-004	-1.42331E-003	2.74400E-002	-1.69510E-003
	85	85	1.10016E+000	3.85321E-002	0.00000E+000	4.23916E-002	3.84237E-001	4.13085E-002	4.87557E+001	11	...........	6.89575E-002	-5.29514E-003	6.09500E-001	5.30915E-001	-2.55325E-002	-3.66961E-002	7.07631E-001	-4.37342E-002	2.65707E-003	-2.04033E-004	2.34853E-002	2.04572E-002	-9.83820E-004	-1.41398E-003	2.72665E-002	-1.68517E-003
	86	86	1.10003E+000	3.84104E-002	0.00000E+000	4.22526E-002	3.83029E-001	4.11592E-002	4.93360E+001	11	...........	6.86958E-002	-5.25500E-003	6.09379E-001	5.31115E-001	-2.56399E-002	-3.67319E-002	7.07517E-001	-4.37843E-002	2.63864E-003	-2.01847E-004	2.34065E-002	2.04003E-002	-9.84838E-004	-1.41089E-003	2.71760E-002	-1.68177E-003
	87	87	1.10007E+000	3.85151E-002	0.00000E+000	4.23693E-002	3.84070E-001	4.09487E-002	4.65860E+001	11	...........	6.83419E-002	-5.32861E-003	6.09158E-001	5.31428E-001	-2.56237E-002	-3.67435E-002	7.07574E-001	-4.37125E-002	2.63219E-003	-2.05232E-004	2.34617E-002	2.04680E-002	-9.86900E-004	-1.41518E-003	2.72523E-002	-1.68359E-003
	88	88	1.10017E+000	3.82738E-002	0.00000E+000	4.21076E-002	3.81673E-001	4.11523E-002	4.87447E+001	11	...........	6.86704E-002	-5.31194E-003	6.09128E-001	5.31414E-001	-2.55587E-002	-3.67186E-002	7.07596E-001	-4.35939E-002	2.62828E-003	-2.03308E-004	2.33137E-002	2.03392E-002	-9.78231E-004	-1.40536E-003	2.70824E-002	-1.66850E-003
	89	89	1.10003E+000	3.81421E-002	0.00000E+000	4.19574E-002	3.80364E-001	4.10477E-002	4.91292E+001	11	...........	6.85108E-002	-5.28597E-003	6.08831E-001	5.31411E-001	-2.56443E-002	-3.67422E-002	7.07668E-001	-4.37061E-002	2.61315E-003	-2.01618E-004	2.32221E-002	2.02691E-002	-9.78127E-004	-1.40142E-003	2.69919E-002	-1.66704E-003
	90	90	1.10007E+000	3.82643E-002	0.00000E+000	4.20934E-002	3.81582E-001	4.10565E-002	4.74077E+001	11	...........	6.85319E-002	-5.34528E-003	6.08714E-001	5.31487E-001	-2.55979E-002	-3.67608E-002	7.07665E-001	-4.37156E-002	2.62232E-003	-2.04533E-004	2.32920E-002	2.03370E-002	-9.79485E-004	-1.40663E-003	2.70783E-002	-1.67274E-003
	91	91	1.10017E+000	3.79001E-002	0.00000E+000	4.16964E-002	3.77957E-001	4.05072E-002	4.58848E+001	11	...........	6.76065E-002	-5.22028E-003	6.08710E-001	5.31835E-001	-2.55578E-002	-3.67189E-002	7.07612E-001	-4.37275E-002	2.56229E-003	-1.97849E-004	2.30702E-002	2.01566E-002	-9.68642E-004	-1.39165E-003	2.68186E-002	-1.65728E-003
	92	92	1.10003E+000	3.78668E-002	0.00000E+000	4.16546E-002	3.77630E-001	4.12997E-002	4.92040E+001	11	...........	6.89444E-002	-5.31736E-003	6.09042E-001	5.31826E-001	-2.56703E-002	-3.67533E-002	7.07635E-001	-4.37350E-002	2.61071E-003	-2.01351E-004	2.30625E-002	2.01386E-002	-9.72051E-004	-1.39173E-003	2.67959E-002	-1.65610E-003
	93	93	1.10007E+000	3.80320E-002	0.00000E+000	4.18378E-002	3.79271E-001	4.09635E-002	4.86413E+001	11	...........	6.83724E-002	-5.32583E-003	6.09216E-001	5.31707E-001	-2.56257E-002	-3.67935E-002	7.07654E-001	-4.37689E-002	2.60034E-003	-2.02552E-004	2.31697E-002	2.02219E-002	-9.74596E-004	-1.39933E-003	2.69135E-002	-1.66462E-003
	94	94	1.10016E+000	3.77088E-002	0.00000E+000	4.14859E-002	3.76061E-001	4.09211E-002	4.89681E+001	11	...........	6.82707E-002	-5.31333E-003	6.09063E-001	5.31768E-001	-2.56149E-002	-3.67468E-002	7.07664E-001	-4.37132E-002	2.57441E-003	-2.00360E-004	2.29670E-002	2.00524E-002	-9.65907E-004	-1.38568E-003	2.66852E-002	-1.64837E-003
	95	95	1.10003E+000	3.75451E-002	0.00000E+000	4.13008E-002	3.74431E-001	4.10037E-002	4.81774E+001	11	...........	6.84300E-002	-5.25750E-003	6.09149E-001	5.31710E-001	-2.57479E-002	-3.67878E-002	7.07647E-001	-4.38190E-002	2.56921E-003	-1.97394E-004	2.28706E-002	1.99631E-002	-9.66709E-004	-1.38120E-003	2.65687E-002	-1.64519E-003
	96	96	1.10007E+000	3.76787E-002	0.00000E+000	4.14491E-002	3.75759E-001	4.04956E-002	4.51701E+001	11	...........	6.75678E-002	-5.19681E-003	6.09147E-001	5.31822E-001	-2.56406E-002	-3.67710E-002	7.07704E-001	-4.38928E-002	2.54586E-003	-1.95809E-004	2.29518E-002	2.00384E-002	-9.66102E-004	-1.38548E-003	2.66654E-002	-1.65382E-003
	97	97	1.10016E+000	3.75029E-002	0.00000E+000	4.12594E-002	3.74011E-001	4.12170E-002	4.79121E+001	11	...........	6.87910E-002	-5.22306E-003	6.09321E-001	5.31635E-001	-2.56958E-002	-3.67575E-002	7.07657E-001	-4.38024E-002	2.57986E-003	-1.95880E-004	2.28513E-002	1.99379E-002	-9.63669E-004	-1.37851E-003	2.65392E-002	-1.64272E-003
	98	98	1.10003E+000	3.72717E-002	0.00000E+000	4.10001E-002	3.71716E-001	4.06208E-002	4.82470E+001	11	...........	6.78150E-002	-5.28903E-003	6.09103E-001	5.31440E-001	-2.57762E-002	-3.68179E-002	7.07716E-001	-4.36960E-002	2.52758E-003	-1.97131E-004	2.27023E-002	1.98077E-002	-9.60724E-004	-1.37227E-003	2.63778E-002	-1.62862E-003
	99	99	1.10007E+000	3.74735E-002	0.00000E+000	4.12234E-002	3.73721E-001	4.09829E-002	4.87123E+001	11	...........	6.84149E-002	-5.32528E-003	6.09138E-001	5.31507E-001	-2.56281E-002	-3.68115E-002	7.07766E-001	-4.35985E-002	2.56374E-003	-1.99557E-004	2.28265E-002	1.99174E-002	-9.60372E-004	-1.37946E-003	2.65225E-002	-1.63379E-003
	100	100	1.10016E+000	3.71460E-002	0.00000E+000	4.08666E-002	3.70461E-001	4.08063E-002	4.61680E+001	11	...........	6.81054E-002	-5.44500E-003	6.09193E-001	5.31305E-001	-2.57032E-002	-3.68121E-002	7.07653E-001	-4.37621E-002	2.52984E-003	-2.02260E-004	2.26291E-002	1.97358E-002	-9.54771E-004	-1.36742E-003	2.62865E-002	-1.62559E-003
	101	101	1.10004E+000	3.70085E-002	0.00000E+000	4.07107E-002	3.69096E-001	4.06954E-002	4.78332E+001	11	...........	6.79179E-002	-5.41306E-003	6.09272E-001	5.31485E-001	-2.56928E-002	-3.68799E-002	7.07622E-001	-4.37686E-002	2.51354E-003	-2.00329E-004	2.25482E-002	1.96694E-002	-9.50850E-004	-1.36487E-003	2.61880E-002	-1.61981E-003
	102	102	1.10007E+000	3.72269E-002	0.00000E+000	4.09520E-002	3.71265E-001	4.08726E-002	4.93046E+001	11	...........	6.82056E-002	-5.40333E-003	6.09515E-001	5.31284E-001	-2.55551E-002	-3.68726E-002	7.07577E-001	-4.37931E-002	2.53908E-003	-2.01149E-004	2.26904E-002	1.97781E-002	-9.51338E-004	-1.37265E-003	2.63409E-002	-1.63028E-003
	103	103	1.10016E+000	3.69585E-002	0.00000E+000	4.06603E-002	3.68598E-001	4.08308E-002	4.85047E+001	11	...........	6.81489E-002	-5.42417E-003	6.09536E-001	5.31314E-001	-2.56744E-002	-3.68843E-002	7.07597E-001	-4.38296E-002	2.51868E-003	-2.00469E-004	2.25275E-002	1.96366E-002	-9.48889E-004	-1.36319E-003	2.61517E-002	-1.61988E-003
	104	104	1.10004E+000	3.67338E-002	0.00000E+000	4.04088E-002	3.66364E-001	4.07332E-002	4.87712E+001	11	...........	6.79874E-002	-5.50153E-003	6.09181E-001	5.31431E-001	-2.56835E-002	-3.68931E-002	7.07491E-001	-4.38153E-002	2.49744E-003	-2.02092E-004	2.23776E-002	1.95215E-002	-9.43452E-004	-1.35522E-003	2.59888E-002	-1.60950E-003
	105	105	1.10006E+000	3.69297E-002	0.00000E+000	4.06250E-002	3.68310E-001	4.08447E-002	4.90508E+001	11	...........	6.81687E-002	-5.47347E-003	6.09049E-001	5.31402E-001	-2.55464E-002	-3.68515E-002	7.07500E-001	-4.38467E-002	2.51745E-003	-2.02134E-004	2.24920E-002	1.96245E-002	-9.43420E-004	-1.36092E-003	2.61277E-002	-1.61924E-003
	106	106	1.10016E+000	3.66193E-002	0.00000E+000	4.02870E-002	3.65223E-001	4.04763E-002	4.47895E+001	11	...........	6.75465E-002	-5.35625E-003	6.09123E-001	5.31294E-001	-2.56433E-002	-3.68647E-002	7.07569E-001	-4.38143E-002	2.47351E-003	-1.96142E-004	2.23057E-002	1.94556E-002	-9.39041E-004	-1.34996E-003	2.59107E-002	-1.60445E-003
	107	107	1.10005E+000	3.64858E-002	0.00000E+000	4.01361E-002	3.63899E-001	4.09116E-002	4.77905E+001	11	...........	6.82829E-002	-5.25569E-003	6.09236E-001	5.31449E-001	-2.56775E-002	-3.68743E-002	7.07619E-001	-4.38950E-002	2.49136E-003	-1.91758E-004	2.22285E-002	1.93903E-002	-9.36865E-004	-1.34539E-003	2.58181E-002	-1.60155E-003
	108	108	1.10006E+000	3.66734E-002	0.00000E+000	4.03429E-002	3.65761E-001	4.06323E-002	4.90558E+001	11	...........	6.78443E-002	-5.27931E-003	6.09312E-001	5.31217E-001	-2.55729E-002	-3.68239E-002	7.07585E-001	-4.38072E-002	2.48808E-003	-1.93610E-004	2.23455E-002	1.94815E-002	-9.37845E-004	-1.35046E-003	2.59495E-002	-1.60656E-003
	109	109	1.10016E+000	3.64426E-002	0.00000E+000	4.00925E-002	3.63467E-001	4.07224E-002	4.90102E+001	11	...........	6.79760E-002	-5.34125E-003	6.09315E-001	5.30969E-001	-2.56865E-002	-3.68125E-002	7.07593E-001	-4.37735E-002	2.47722E-003	-1.94649E-004	2.22050E-002	1.93499E-002	-9.36083E-004	-1.34154E-003	2.57865E-002	-1.59522E-003
	110	110	1.10005E+000	3.61717E-002	0.00000E+000	3.97905E-002	3.60773E-001	4.06728E-002	4.59547E+001	11	...........	6.78781E-002	-5.27000E-003	6.09277E-001	5.31086E-001	-2.56967E-002	-3.68589E-002	7.07447E-001	-4.37749E-002	2.45526E-003	-1.90625E-004	2.20386E-002	1.92103E-002	-9.29492E-004	-1.33325E-003	2.55896E-002	-1.58341E-003
	111	111	1.10006E+000	3.63491E-002	0.00000E+000	3.99863E-002	3.62535E-001	4.04552E-002	4.60199E+001	11	...........	6.75154E-002	-5.24764E-003	6.09087E-001	5.30930E-001	-2.55893E-002	-3.68039E-002	7.07442E-001	-4.38158E-002	2.45412E-003	-1.90747E-004	2.21397E-002	1.92988E-002	-9.30148E-004	-1.33779E-003	2.57149E-002	-1.59267E-003
	112	112	1.10015E+000	3.62180E-002	0.00000E+000	3.98453E-002	3.61236E-001	4.07827E-002	4.85175E+001	11	...........	6.80550E-002	-5.18458E-003	6.09049E-001	5.31127E-001	-2.57161E-002	-3.68097E-002	7.07636E-001	-4.38126E-002	2.46481E-003	-1.87775E-004	2.20585E-002	1.92363E-002	-9.31385E-004	-1.33317E-003	2.56291E-002	-1.58680E-003
	113	113	1.10005E+000	3.59580E-002	0.00000E+000	3.95557E-002	3.58652E-001	4.06380E-002	4.88546E+001	11	...........	6.78257E-002	-5.18486E-003	6.09214E-001	5.31087E-001	-2.57119E-002	-3.68250E-002	7.07539E-001	-4.38239E-002	2.43888E-003	-1.86437E-004	2.19062E-002	1.90969E-002	-9.24551E-004	-1.32416E-003	2.54417E-002	-1.57582E-003
	114	114	1.10006E+000	3.61366E-002	0.00000E+000	3.97525E-002	3.60425E-001	4.06182E-002	4.87509E+001	11	...........	6.77862E-002	-5.23583E-003	6.09370E-001	5.30998E-001	-2.55764E-002	-3.67975E-002	7.07443E-001	-4.38704E-002	2.44957E-003	-1.89205E-004	2.20206E-002	1.91885E-002	-9.24245E-004	-1.32974E-003	2.55646E-002	-1.58533E-003
	115	115	1.10015E+000	3.59057E-002	0.00000E+000	3.95018E-002	3.58129E-001	4.06944E-002	4.66577E+001	11	...........	6.79385E-002	-5.25819E-003	6.09522E-001	5.31199E-001	-2.56733E-002	-3.67910E-002	7.07495E-001	-4.38643E-002	2.43938E-003	-1.88799E-004	2.18853E-002	1.90731E-002	-9.21819E-004	-1.32101E-003	2.54031E-002	-1.57498E-003
	116	116	1.10005E+000	3.56047E-002	0.00000E+000	3.91670E-002	3.55131E-001	4.01994E-002	4.65603E+001	11	...........	6.70992E-002	-5.21778E-003	6.09510E-001	5.31217E-001	-2.56818E-002	-3.68087E-002	7.07572E-001	-4.38125E-002	2.38905E-003	-1.85777E-004	2.17014E-002	1.89138E-002	-9.14393E-004	-1.31056E-003	2.51929E-002	-1.55993E-003
	117	117	1.10006E+000	3.59053E-002	0.00000E+000	3.94981E-002	3.58123E-001	4.07542E-002	4.85474E+001	11	...........	6.80136E-002	-5.22625E-003	6.09513E-001	5.31095E-001	-2.55776E-002	-3.67901E-002	7.07519E-001	-4.35907E-002	2.44205E-003	-1.87650E-004	2.18848E-002	1.90692E-002	-9.18373E-004	-1.32096E-003	2.54037E-002	-1.56514E-003
	118	118	1.10015E+000	3.57117E-002	0.00000E+000	3.92881E-002	3.56197E-001	4.06190E-002	4.89623E+001	11	...........	6.78236E-002	-5.29486E-003	6.09407E-001	5.30936E-001	-2.57075E-002	-3.67947E-002	7.07526E-001	-4.36768E-002	2.42209E-003	-1.89088E-004	2.17629E-002	1.89606E-002	-9.18057E-004	-1.31400E-003	2.52669E-002	-1.55977E-003
	119	119	1.10006E+000	3.54438E-002	0.00000E+000	3.89902E-002	3.53534E-001	4.04929E-002	4.88985E+001	11	...........	6.75924E-002	-5.27917E-003	6.09421E-001	5.31258E-001	-2.56912E-002	-3.68171E-002	7.07478E-001	-4.36854E-002	2.39573E-003	-1.87114E-004	2.16002E-002	1.88298E-002	-9.10596E-004	-1.30494E-003	2.50757E-002	-1.54838E-003
	120	120	1.10006E+000	3.56254E-002	0.00000E+000	3.91901E-002	3.55343E-001	4.06138E-002	4.66795E+001	11	...........	6.77831E-002	-5.39375E-003	6.09232E-001	5.31346E-001	-2.55921E-002	-3.67572E-002	7.07505E-001	-4.36574E-002	2.41480E-003	-1.92154E-004	2.17041E-002	1.89294E-002	-9.11727E-004	-1.30949E-003	2.52051E-002	-1.55531E-003
	121	121	1.10015E+000	3.54134E-002	0.00000E+000	3.89599E-002	3.53229E-001	4.01463E-002	4.62289E+001	11	...........	6.70075E-002	-5.39389E-003	6.09059E-001	5.31659E-001	-2.57146E-002	-3.67664E-002	7.07465E-001	-4.36647E-002	2.37296E-003	-1.91016E-004	2.15688E-002	1.88278E-002	-9.10640E-004	-1.30202E-003	2.50537E-002	-1.54632E-003
	122	122	1.10006E+000	3.52382E-002	0.00000E+000	3.87641E-002	3.51487E-001	4.05242E-002	4.85518E+001	11	...........	6.76454E-002	-5.30931E-003	6.09085E-001	5.31699E-001	-2.56208E-002	-3.67550E-002	7.07508E-001	-4.37003E-002	2.38371E-003	-1.87091E-004	2.14631E-002	1.87361E-002	-9.02833E-004	-1.29518E-003	2.49314E-002	-1.53992E-003
	123	123	1.10006E+000	3.54195E-002	0.00000E+000	3.89637E-002	3.53292E-001	4.05465E-002	4.86827E+001	11	...........	6.76951E-002	-5.30292E-003	6.09179E-001	5.31533E-001	-2.55954E-002	-3.67208E-002	7.07534E-001	-4.37242E-002	2.39773E-003	-1.87827E-004	2.15768E-002	1.88267E-002	-9.06578E-004	-1.30063E-003	2.50605E-002	-1.54869E-003
	124	124	1.10014E+000	3.52192E-002	0.00000E+000	3.87462E-002	3.51303E-001	4.03669E-002	4.88179E+001	11	...........	6.73712E-002	-5.24250E-003	6.09134E-001	5.31414E-001	-2.56597E-002	-3.67768E-002	7.07484E-001	-4.37282E-002	2.37276E-003	-1.84636E-004	2.14532E-002	1.87160E-002	-9.03714E-004	-1.29525E-003	2.49170E-002	-1.54007E-003
	125	125	1.10006E+000	3.49494E-002	0.00000E+000	3.84464E-002	3.48620E-001	4.05352E-002	4.70637E+001	11	...........	6.76617E-002	-5.33944E-003	6.09185E-001	5.31217E-001	-2.55529E-002	-3.67457E-002	7.07421E-001	-4.37124E-002	2.36473E-003	-1.86610E-004	2.12906E-002	1.85657E-002	-8.93058E-004	-1.28424E-003	2.47239E-002	-1.52772E-003
	126	126	1.10006E+000	3.51104E-002	0.00000E+000	3.86235E-002	3.50223E-001	3.98647E-002	4.67540E+001	11	...........	6.65533E-002	-5.27653E-003	6.09006E-001	5.31114E-001	-2.55968E-002	-3.67326E-002	7.07386E-001	-4.38614E-002	2.33671E-003	-1.85261E-004	2.13824E-002	1.86476E-002	-8.98714E-004	-1.28970E-003	2.48366E-002	-1.53999E-003
	127	127	1.10015E+000	3.50256E-002	0.00000E+000	3.85333E-002	3.49379E-001	4.07383E-002	4.85624E+001	11	...........	6.80922E-002	-5.29333E-003	6.09246E-001	5.31006E-001	-2.56546E-002	-3.67814E-002	7.07319E-001	-4.38456E-002	2.38497E-003	-1.85402E-004	2.13392E-002	1.85988E-002	-8.98568E-004	-1.28829E-003	2.47743E-002	-1.53572E-003
	128	128	1.10006E+000	3.46656E-002	0.00000E+000	3.81343E-002	3.45799E-001	4.02722E-002	4.78390E+001	11	...........	6.72147E-002	-5.27472E-003	6.09078E-001	5.30921E-001	-2.55315E-002	-3.67692E-002	7.07271E-001	-4.38357E-002	2.33004E-003	-1.82851E-004	2.11141E-002	1.84047E-002	-8.85065E-004	-1.27462E-003	2.45180E-002	-1.51959E-003
	129	129	1.10006E+000	3.49044E-002	0.00000E+000	3.83969E-002	3.48173E-001	4.04680E-002	4.91149E+001	11	...........	6.75626E-002	-5.22472E-003	6.09018E-001	5.30783E-001	-2.55837E-002	-3.67658E-002	7.07292E-001	-4.37303E-002	2.35823E-003	-1.82366E-004	2.12574E-002	1.85267E-002	-8.92986E-004	-1.28329E-003	2.46876E-002	-1.52638E-003
	130	130	1.10014E+000	3.47003E-002	0.00000E+000	3.81753E-002	3.46150E-001	4.02724E-002	4.54283E+001	11	...........	6.72168E-002	-5.21139E-003	6.09095E-001	5.30751E-001	-2.56072E-002	-3.68003E-002	7.07302E-001	-4.37525E-002	2.33244E-003	-1.80837E-004	2.11358E-002	1.84172E-002	-8.88578E-004	-1.27698E-003	2.45436E-002	-1.51822E-003
	131	131	1.10006E+000	3.43923E-002	0.00000E+000	3.78338E-002	3.43083E-001	4.00898E-002	4.64189E+001	11	...........	6.69186E-002	-5.17903E-003	6.08931E-001	5.30710E-001	-2.55253E-002	-3.67683E-002	7.07412E-001	-4.38346E-002	2.30149E-003	-1.78119E-004	2.09425E-002	1.82523E-002	-8.77873E-004	-1.26455E-003	2.43295E-002	-1.50757E-003
	132	132	1.10006E+000	3.47086E-002	0.00000E+000	3.81814E-002	3.46227E-001	4.05352E-002	4.92635E+001	11	...........	6.76487E-002	-5.20528E-003	6.09151E-001	5.30752E-001	-2.56540E-002	-3.68065E-002	7.07446E-001	-4.38300E-002	2.34799E-003	-1.80668E-004	2.11428E-002	1.84216E-002	-8.90415E-004	-1.27750E-003	2.45545E-002	-1.52128E-003
	133	133	1.10014E+000	3.45350E-002	0.00000E+000	3.79933E-002	3.44507E-001	4.02681E-002	4.88002E+001	11	...........	6.72226E-002	-5.22972E-003	6.09282E-001	5.30796E-001	-2.55787E-002	-3.68078E-002	7.07459E-001	-4.37385E-002	2.32153E-003	-1.80608E-004	2.10415E-002	1.83310E-002	-8.83362E-004	-1.27116E-003	2.44321E-002	-1.51051E-003
	134	134	1.10007E+000	3.41929E-002	0.00000E+000	3.76147E-002	3.41105E-001	4.02793E-002	4.81651E+001	11	...........	6.72353E-002	-5.29514E-003	6.09376E-001	5.30889E-001	-2.55528E-002	-3.67960E-002	7.07283E-001	-4.37615E-002	2.29897E-003	-1.81056E-004	2.08364E-002	1.81527E-002	-8.73725E-004	-1.25816E-003	2.41841E-002	-1.49634E-003
	135	135	1.10006E+000	3.43638E-002	0.00000E+000	3.78021E-002	3.42800E-001	4.00930E-002	4.53045E+001	11	...........	6.69225E-002	-5.28264E-003	6.09253E-001	5.30810E-001	-2.56247E-002	-3.68461E-002	7.07349E-001	-4.37282E-002	2.29971E-003	-1.81532E-004	2.09363E-002	1.82407E-002	-8.80564E-004	-1.26617E-003	2.43072E-002	-1.50267E-003
	136	136	1.10014E+000	3.43150E-002	0.00000E+000	3.77511E-002	3.42313E-001	4.02598E-002	4.77887E+001	11	...........	6.71975E-002	-5.25486E-003	6.09338E-001	5.30611E-001	-2.55350E-002	-3.68314E-002	7.07351E-001	-4.37339E-002	2.30588E-003	-1.80320E-004	2.09094E-002	1.82079E-002	-8.76232E-004	-1.26387E-003	2.42727E-002	-1.50073E-003
	137	137	1.10007E+000	3.40028E-002	0.00000E+000	3.74055E-002	3.39208E-001	4.03871E-002	4.95324E+001	11	...........	6.74085E-002	-5.32958E-003	6.09455E-001	5.30506E-001	-2.56453E-002	-3.68617E-002	7.07383E-001	-4.37597E-002	2.29207E-003	-1.81221E-004	2.07232E-002	1.80387E-002	-8.72010E-004	-1.25340E-003	2.40530E-002	-1.48795E-003
	138	138	1.10006E+000	3.41541E-002	0.00000E+000	3.75714E-002	3.40706E-001	4.01283E-002	4.81299E+001	11	...........	6.69803E-002	-5.44611E-003	6.09358E-001	5.30599E-001	-2.55861E-002	-3.69099E-002	7.07313E-001	-4.37783E-002	2.28765E-003	-1.86007E-004	2.08121E-002	1.81221E-002	-8.73871E-004	-1.26062E-003	2.41577E-002	-1.49521E-003
	139	139	1.10014E+000	3.39924E-002	0.00000E+000	3.73962E-002	3.39098E-001	4.00205E-002	4.72999E+001	11	...........	6.68069E-002	-5.43681E-003	6.09422E-001	5.30575E-001	-2.55626E-002	-3.68862E-002	7.07361E-001	-4.36917E-002	2.27093E-003	-1.84810E-004	2.07157E-002	1.80355E-002	-8.68935E-004	-1.25385E-003	2.40449E-002	-1.48518E-003
	140	140	1.10007E+000	3.37099E-002	0.00000E+000	3.70835E-002	3.36291E-001	4.02594E-002	4.71275E+001	11	...........	6.71935E-002	-5.41389E-003	6.09536E-001	5.30704E-001	-2.56219E-002	-3.69140E-002	7.07368E-001	-4.36974E-002	2.26509E-003	-1.82502E-004	2.05474E-002	1.78900E-002	-8.63714E-004	-1.24437E-003	2.38453E-002	-1.47304E-003
	141	141	1.10005E+000	3.38932E-002	0.00000E+000	3.72843E-002	3.38114E-001	3.99853E-002	4.75046E+001	11	...........	6.67492E-002	-5.27333E-003	6.09499E-001	5.30815E-001	-2.55260E-002	-3.68914E-002	7.07413E-001	-4.38211E-002	2.26234E-003	-1.78730E-004	2.06579E-002	1.79910E-002	-8.65156E-004	-1.25037E-003	2.39765E-002	-1.48524E-003
	142	142	1.10014E+000	3.38284E-002	0.00000E+000	3.72159E-002	3.37473E-001	4.03376E-002	4.72849E+001	11	...........	6.73235E-002	-5.26569E-003	6.09604E-001	5.30802E-001	-2.56078E-002	-3.69139E-002	7.07381E-001	-4.37669E-002	2.27745E-003	-1.78130E-004	2.06219E-002	1.79562E-002	-8.66271E-004	-1.24874E-003	2.39296E-002	-1.48057E-003
	143	143	1.10008E+000	3.34668E-002	0.00000E+000	3.68162E-002	3.33879E-001	3.98295E-002	4.82843E+001	11	...........	6.64837E-002	-5.27667E-003	6.09736E-001	5.30739E-001	-2.55401E-002	-3.69028E-002	7.07393E-001	-4.37646E-002	2.22500E-003	-1.76593E-004	2.04059E-002	1.77621E-002	-8.54746E-004	-1.23502E-003	2.36742E-002	-1.46466E-003
	144	144	1.10005E+000	3.36554E-002	0.00000E+000	3.70227E-002	3.35752E-001	4.02679E-002	4.90491E+001	11	...........	6.72128E-002	-5.24486E-003	6.09946E-001	5.30676E-001	-2.55551E-002	-3.68799E-002	7.07437E-001	-4.37462E-002	2.26207E-003	-1.76518E-004	2.05280E-002	1.78601E-002	-8.60069E-004	-1.24121E-003	2.38091E-002	-1.47230E-003
	145	145	1.10013E+000	3.35691E-002	0.00000E+000	3.69304E-002	3.34894E-001	4.01309E-002	4.83648E+001	11	...........	6.69879E-002	-5.26236E-003	6.09959E-001	5.30491E-001	-2.56050E-002	-3.69111E-002	7.07346E-001	-4.38181E-002	2.24872E-003	-1.76653E-004	2.04757E-002	1.78081E-002	-8.59536E-004	-1.23907E-003	2.37450E-002	-1.47093E-003
	146	146	1.10008E+000	3.31730E-002	0.00000E+000	3.64931E-002	3.30960E-001	3.97188E-002	4.54619E+001	11	...........	6.63089E-002	-5.26069E-003	6.09915E-001	5.30511E-001	-2.54925E-002	-3.68765E-002	7.07504E-001	-4.37471E-002	2.19967E-003	-1.74513E-004	2.02327E-002	1.75987E-002	-8.45664E-004	-1.22331E-003	2.34701E-002	-1.45122E-003
	147	147	1.10005E+000	3.34568E-002	0.00000E+000	3.68042E-002	3.33782E-001	4.02174E-002	4.79925E+001	11	...........	6.71382E-002	-5.24458E-003	6.09851E-001	5.30516E-001	-2.55751E-002	-3.69168E-002	7.07518E-001	-4.39192E-002	2.24623E-003	-1.75467E-004	2.04037E-002	1.77494E-002	-8.55663E-004	-1.23512E-003	2.36713E-002	-1.46940E-003
	148	148	1.10013E+000	3.33768E-002	0.00000E+000	3.67188E-002	3.32983E-001	4.00734E-002	4.90202E+001	11	...........	6.69015E-002	-5.28597E-003	6.09852E-001	5.30525E-001	-2.55056E-002	-3.69065E-002	7.07378E-001	-4.39362E-002	2.23296E-003	-1.76429E-004	2.03549E-002	1.77072E-002	-8.51294E-004	-1.23182E-003	2.36100E-002	-1.46645E-003
	149	149	1.10009E+000	3.29829E-002	0.00000E+000	3.62841E-002	3.29071E-001	3.99714E-002	4.87173E+001	11	...........	6.67368E-002	-5.26347E-003	6.09818E-001	5.30467E-001	-2.55142E-002	-3.68828E-002	7.07312E-001	-4.38869E-002	2.20118E-003	-1.73605E-004	2.01136E-002	1.74963E-002	-8.41532E-004	-1.21650E-003	2.33292E-002	-1.44752E-003
	150	150	1.10005E+000	3.31793E-002	0.00000E+000	3.64988E-002	3.31019E-001	3.98828E-002	4.59246E+001	11	...........	6.65607E-002	-5.12264E-003	6.09698E-001	5.30400E-001	-2.55742E-002	-3.69272E-002	7.07386E-001	-4.37901E-002	2.20843E-003	-1.69965E-004	2.02293E-002	1.75983E-002	-8.48532E-004	-1.22522E-003	2.34706E-002	-1.45292E-003
	151	151	1.10013E+000	3.31193E-002	0.00000E+000	3.64355E-002	3.30422E-001	3.98244E-002	4.65024E+001	11	...........	6.64450E-002	-5.11181E-003	6.09676E-001	5.30347E-001	-2.54912E-002	-3.68899E-002	7.07421E-001	-4.37481E-002	2.20061E-003	-1.69300E-004	2.01921E-002	1.75647E-002	-8.44253E-004	-1.22177E-003	2.34293E-002	-1.44891E-003
	152	152	1.10009E+000	3.27744E-002	0.00000E+000	3.60548E-002	3.26993E-001	3.99587E-002	4.77082E+001	11	...........	6.66985E-002	-5.15653E-003	6.09641E-001	5.30225E-001	-2.55364E-002	-3.69042E-002	7.07510E-001	-4.37592E-002	2.18600E-003	-1.69002E-004	1.99806E-002	1.73778E-002	-8.36941E-004	-1.20951E-003	2.31882E-002	-1.43418E-003
	153	153	1.10005E+000	3.29879E-002	0.00000E+000	3.62883E-002	3.29119E-001	4.00738E-002	4.89829E+001	11	...........	6.68832E-002	-5.19694E-003	6.09705E-001	5.30221E-001	-2.54900E-002	-3.68899E-002	7.07425E-001	-4.37040E-002	2.20633E-003	-1.71436E-004	2.01128E-002	1.74909E-002	-8.40860E-004	-1.21692E-003	2.33364E-002	-1.44170E-003
	154	154	1.10012E+000	3.29029E-002	0.00000E+000	3.61972E-002	3.28274E-001	3.99269E-002	4.84705E+001	11	...........	6.66500E-002	-5.27986E-003	6.09697E-001	5.30171E-001	-2.54218E-002	-3.68554E-002	7.07367E-001	-4.36974E-002	2.19298E-003	-1.73722E-004	2.00608E-002	1.74441E-002	-8.36450E-004	-1.21265E-003	2.32744E-002	-1.43777E-003
	155	155	1.10009E+000	3.25519E-002	0.00000E+000	3.58101E-002	3.24786E-001	3.98768E-002	4.86413E+001	11	...........	6.65524E-002	-5.28333E-003	6.09634E-001	5.30137E-001	-2.54599E-002	-3.68846E-002	7.07315E-001	-4.38647E-002	2.16640E-003	-1.71982E-004	1.98447E-002	1.72569E-002	-8.28766E-004	-1.20066E-003	2.30244E-002	-1.42788E-003
	156	156	1.10005E+000	3.26943E-002	0.00000E+000	3.59653E-002	3.26197E-001	3.97287E-002	4.58643E+001	11	...........	6.63179E-002	-5.33875E-003	6.09637E-001	5.30153E-001	-2.54503E-002	-3.69036E-002	7.07364E-001	-4.37364E-002	2.16821E-003	-1.74546E-004	1.99316E-002	1.73330E-002	-8.32078E-004	-1.20654E-003	2.31267E-002	-1.42993E-003
	157	157	1.10012E+000	3.26775E-002	0.00000E+000	3.59492E-002	3.26025E-001	3.98131E-002	4.76026E+001	11	...........	6.64617E-002	-5.29472E-003	6.09597E-001	5.30121E-001	-2.54639E-002	-3.68653E-002	7.07376E-001	-4.37082E-002	2.17180E-003	-1.73018E-004	1.99201E-002	1.73230E-002	-8.32096E-004	-1.20466E-003	2.31153E-002	-1.42827E-003
	158	158	1.10010E+000	3.23286E-002	0.00000E+000	3.55646E-002	3.22561E-001	3.99285E-002	4.83259E+001	11	...........	6.66397E-002	-5.44403E-003	6.09551E-001	5.30032E-001	-2.55118E-002	-3.68967E-002	7.07459E-001	-4.37649E-002	2.15437E-003	-1.75998E-004	1.97059E-002	1.71352E-002	-8.24760E-004	-1.19282E-003	2.28711E-002	-1.41486E-003
	159	159	1.10005E+000	3.25026E-002	0.00000E+000	3.57544E-002	3.24289E-001	3.98022E-002	4.87912E+001	11	...........	6.64449E-002	-5.32514E-003	6.09414E-001	5.30097E-001	-2.54610E-002	-3.68582E-002	7.07544E-001	-4.36979E-002	2.15963E-003	-1.73081E-004	1.98076E-002	1.72296E-002	-8.27549E-004	-1.19799E-003	2.29971E-002	-1.42030E-003
	160	160	1.10012E+000	3.24845E-002	0.00000E+000	3.57368E-002	3.24110E-001	3.98808E-002	4.79386E+001	11	...........	6.65636E-002	-5.33653E-003	6.09499E-001	5.30171E-001	-2.54826E-002	-3.68200E-002	7.07405E-001	-4.38340E-002	2.16229E-003	-1.73354E-004	1.97993E-002	1.72223E-002	-8.27791E-004	-1.19608E-003	2.29797E-002	-1.42393E-003
	161	161	1.10010E+000	3.21024E-002	0.00000E+000	3.53159E-002	3.20309E-001	3.96899E-002	4.69018E+001	11	...........	6.62429E-002	-5.34667E-003	6.09492E-001	5.30277E-001	-2.55036E-002	-3.68581E-002	7.07628E-001	-4.38515E-002	2.12656E-003	-1.71641E-004	1.95662E-002	1.70232E-002	-8.18727E-004	-1.18323E-003	2.27166E-002	-1.40774E-003
	162	162	1.10005E+000	3.22892E-002	0.00000E+000	3.55196E-002	3.22163E-001	3.97790E-002	4.78099E+001	11	...........	6.63801E-002	-5.38167E-003	6.09515E-001	5.30383E-001	-2.54279E-002	-3.68106E-002	7.07659E-001	-4.38561E-002	2.14336E-003	-1.73770E-004	1.96808E-002	1.71257E-002	-8.21048E-004	-1.18858E-003	2.28498E-002	-1.41608E-003
	163	163	1.10012E+000	3.23204E-002	0.00000E+000	3.55562E-002	3.22477E-001	3.99498E-002	4.91741E+001	11	...........	6.66762E-002	-5.35444E-003	6.09683E-001	5.30564E-001	-2.54835E-002	-3.68162E-002	7.07546E-001	-4.37676E-002	2.15500E-003	-1.73058E-004	1.97052E-002	1.71480E-002	-8.23636E-004	-1.18992E-003	2.28681E-002	-1.41459E-003
	164	164	1.10010E+000	3.19425E-002	0.00000E+000	3.51400E-002	3.18723E-001	3.96918E-002	4.85967E+001	11	...........	6.62585E-002	-5.36361E-003	6.09757E-001	5.30627E-001	-2.54871E-002	-3.68425E-002	7.07516E-001	-4.36943E-002	2.11646E-003	-1.71327E-004	1.94771E-002	1.69495E-002	-8.14120E-004	-1.17684E-003	2.25998E-002	-1.39570E-003
	165	165	1.10005E+000	3.20837E-002	0.00000E+000	3.52935E-002	3.20128E-001	3.96826E-002	4.79318E+001	11	...........	6.62514E-002	-5.34181E-003	6.09693E-001	5.30597E-001	-2.54615E-002	-3.68204E-002	7.07574E-001	-4.36472E-002	2.12559E-003	-1.71385E-004	1.95612E-002	1.70235E-002	-8.16899E-004	-1.18133E-003	2.27016E-002	-1.40036E-003
	166	166	1.10011E+000	3.20629E-002	0.00000E+000	3.52728E-002	3.19922E-001	3.95308E-002	4.64367E+001	11	...........	6.59689E-002	-5.25847E-003	6.09616E-001	5.30684E-001	-2.55396E-002	-3.68507E-002	7.07547E-001	-4.37058E-002	2.11515E-003	-1.68602E-004	1.95461E-002	1.70153E-002	-8.18874E-004	-1.18154E-003	2.26860E-002	-1.40134E-003
	167	167	1.10011E+000	3.17417E-002	0.00000E+000	3.49193E-002	3.16725E-001	3.98383E-002	4.88119E+001	11	...........	6.64914E-002	-5.23931E-003	6.09656E-001	5.30738E-001	-2.54837E-002	-3.68335E-002	7.07501E-001	-4.37828E-002	2.11055E-003	-1.66305E-004	1.93515E-002	1.68465E-002	-8.08898E-004	-1.16916E-003	2.24573E-002	-1.38974E-003
	168	168	1.10004E+000	3.18872E-002	0.00000E+000	3.50774E-002	3.18165E-001	3.97311E-002	4.85186E+001	11	...........	6.63240E-002	-5.28694E-003	6.09519E-001	5.30790E-001	-2.54786E-002	-3.68244E-002	7.07469E-001	-4.37932E-002	2.11489E-003	-1.68586E-004	1.94359E-002	1.69254E-002	-8.12442E-004	-1.17423E-003	2.25592E-002	-1.39644E-003
	169	169	1.10011E+000	3.18325E-002	0.00000E+000	3.50193E-002	3.17626E-001	3.94642E-002	4.69631E+001	11	...........	6.58879E-002	-5.20819E-003	6.09396E-001	5.30790E-001	-2.55367E-002	-3.68686E-002	7.07618E-001	-4.37908E-002	2.09738E-003	-1.65790E-004	1.93986E-002	1.68964E-002	-8.12896E-004	-1.17362E-003	2.25253E-002	-1.39397E-003
	170	170	1.10011E+000	3.14848E-002	0.00000E+000	3.46369E-002	3.14169E-001	3.98269E-002	4.90067E+001	11	...........	6.64847E-002	-5.30153E-003	6.09325E-001	5.30802E-001	-2.54762E-002	-3.68660E-002	7.07617E-001	-4.38129E-002	2.09326E-003	-1.66918E-004	1.91845E-002	1.67122E-002	-8.02115E-004	-1.16072E-003	2.22792E-002	-1.37944E-003
	171	171	1.10005E+000	3.16131E-002	0.00000E+000	3.47759E-002	3.15441E-001	3.97332E-002	4.54569E+001	11	...........	6.63181E-002	-5.26056E-003	6.09199E-001	5.30761E-001	-2.55387E-002	-3.68482E-002	7.07548E-001	-4.38246E-002	2.09652E-003	-1.66303E-004	1.92587E-002	1.67790E-002	-8.07360E-004	-1.16489E-003	2.23678E-002	-1.38543E-003
	172	172	1.10010E+000	3.16408E-002	0.00000E+000	3.48082E-002	3.15717E-001	3.94465E-002	4.71594E+001	11	...........	6.58425E-002	-5.13278E-003	6.09071E-001	5.30791E-001	-2.55762E-002	-3.68781E-002	7.07530E-001	-4.37376E-002	2.08331E-003	-1.62405E-004	1.92715E-002	1.67947E-002	-8.09253E-004	-1.16685E-003	2.23868E-002	-1.38389E-003
	173	173	1.10012E+000	3.12900E-002	0.00000E+000	3.44226E-002	3.12230E-001	3.96400E-002	4.92435E+001	11	...........	6.61557E-002	-5.27264E-003	6.08934E-001	5.30725E-001	-2.54740E-002	-3.68140E-002	7.07544E-001	-4.37675E-002	2.07001E-003	-1.64981E-004	1.90535E-002	1.66064E-002	-7.97082E-004	-1.15191E-003	2.21390E-002	-1.36948E-003
	174	174	1.10004E+000	3.14313E-002	0.00000E+000	3.45757E-002	3.13635E-001	3.96870E-002	4.86608E+001	11	...........	6.62340E-002	-5.32528E-003	6.08944E-001	5.30529E-001	-2.55685E-002	-3.68201E-002	7.07511E-001	-4.38469E-002	2.08182E-003	-1.67380E-004	1.91399E-002	1.66752E-002	-8.03650E-004	-1.15730E-003	2.22380E-002	-1.37817E-003
	175	175	1.10010E+000	3.13877E-002	0.00000E+000	3.45298E-002	3.13199E-001	3.95215E-002	4.50373E+001	11	...........	6.59555E-002	-5.24278E-003	6.08874E-001	5.30646E-001	-2.55619E-002	-3.68312E-002	7.07529E-001	-4.38375E-002	2.07019E-003	-1.64559E-004	1.91112E-002	1.66558E-002	-8.02331E-004	-1.15605E-003	2.22077E-002	-1.37596E-003
	176	176	1.10012E+000	3.10185E-002	0.00000E+000	3.41241E-002	3.09529E-001	3.93878E-002	4.73325E+001	11	...........	6.57433E-002	-5.23042E-003	6.08885E-001	5.30809E-001	-2.55160E-002	-3.67978E-002	7.07514E-001	-4.38692E-002	2.03926E-003	-1.62240E-004	1.88867E-002	1.64649E-002	-7.91467E-004	-1.14141E-003	2.19460E-002	-1.36076E-003
	177	177	1.10004E+000	3.12325E-002	0.00000E+000	3.43570E-002	3.11656E-001	3.97702E-002	4.92833E+001	11	...........	6.63801E-002	-5.28333E-003	6.08951E-001	5.31009E-001	-2.55972E-002	-3.68410E-002	7.07630E-001	-4.38706E-002	2.07321E-003	-1.65011E-004	1.90190E-002	1.65847E-002	-7.99464E-004	-1.15063E-003	2.21010E-002	-1.37019E-003
	178	178	1.10010E+000	3.12186E-002	0.00000E+000	3.43437E-002	3.11519E-001	3.96604E-002	4.84609E+001	11	...........	6.62143E-002	-5.22403E-003	6.08936E-001	5.31040E-001	-2.55160E-002	-3.68142E-002	7.07510E-001	-4.38736E-002	2.06712E-003	-1.63087E-004	1.90102E-002	1.65783E-002	-7.96574E-004	-1.14929E-003	2.20875E-002	-1.36967E-003
	179	179	1.10012E+000	3.08477E-002	0.00000E+000	3.39363E-002	3.07833E-001	3.95091E-002	4.75585E+001	11	...........	6.59393E-002	-5.24194E-003	6.08881E-001	5.30813E-001	-2.55165E-002	-3.67694E-002	7.07506E-001	-4.38339E-002	2.03407E-003	-1.61702E-004	1.87826E-002	1.63744E-002	-7.87125E-004	-1.13425E-003	2.18249E-002	-1.35217E-003
	180	180	1.10004E+000	3.09531E-002	0.00000E+000	3.40497E-002	3.08883E-001	3.94943E-002	4.83740E+001	11	...........	6.59100E-002	-5.24972E-003	6.08824E-001	5.30802E-001	-2.55908E-002	-3.67993E-002	7.07518E-001	-4.38325E-002	2.04012E-003	-1.62495E-004	1.88450E-002	1.64300E-002	-7.92116E-004	-1.13905E-003	2.18999E-002	-1.35675E-003
	181	181	1.10010E+000	3.09630E-002	0.00000E+000	3.40623E-002	3.08983E-001	3.93563E-002	4.57817E+001	11	...........	6.56982E-002	-5.35222E-003	6.08751E-001	5.30721E-001	-2.55021E-002	-3.67903E-002	7.07520E-001	-4.38664E-002	2.03421E-003	-1.65721E-004	1.88487E-002	1.64327E-002	-7.89620E-004	-1.13914E-003	2.19069E-002	-1.35823E-003
	182	182	1.10013E+000	3.06882E-002	0.00000E+000	3.37608E-002	3.06249E-001	3.96138E-002	4.87006E+001	11	...........	6.61308E-002	-5.29236E-003	6.08650E-001	5.30629E-001	-2.55604E-002	-3.68040E-002	7.07610E-001	-4.38578E-002	2.02943E-003	-1.62413E-004	1.86783E-002	1.62840E-002	-7.84402E-004	-1.12945E-003	2.17152E-002	-1.34591E-003
	183	183	1.10004E+000	3.07672E-002	0.00000E+000	3.38451E-002	3.07034E-001	3.95194E-002	4.86190E+001	11	...........	6.59554E-002	-5.35514E-003	6.08709E-001	5.30577E-001	-2.56424E-002	-3.68467E-002	7.07571E-001	-4.38253E-002	2.02926E-003	-1.64763E-004	1.87283E-002	1.63244E-002	-7.88943E-004	-1.13367E-003	2.17700E-002	-1.34838E-003
	184	184	1.10010E+000	3.07976E-002	0.00000E+000	3.38804E-002	3.07339E-001	3.95158E-002	4.87959E+001	11	...........	6.59400E-002	-5.32917E-003	6.08734E-001	5.30670E-001	-2.55661E-002	-3.68631E-002	7.07440E-001	-4.37749E-002	2.03080E-003	-1.64126E-004	1.87476E-002	1.63434E-002	-7.87376E-004	-1.13530E-003	2.17875E-002	-1.34816E-003
	185	185	1.10013E+000	3.04494E-002	0.00000E+000	3.34983E-002	3.03879E-001	3.95114E-002	4.89350E+001	11	...........	6.59432E-002	-5.30069E-003	6.08668E-001	5.30749E-001	-2.56256E-002	-3.68614E-002	7.07208E-001	-4.37692E-002	2.00793E-003	-1.61403E-004	1.85336E-002	1.61610E-002	-7.80284E-004	-1.12241E-003	2.15341E-002	-1.33275E-003
	186	186	1.10004E+000	3.05315E-002	0.00000E+000	3.35858E-002	3.04697E-001	3.93683E-002	4.66920E+001	11	...........	6.57036E-002	-5.22069E-003	6.08461E-001	5.30786E-001	-2.56903E-002	-3.68647E-002	7.07185E-001	-4.37385E-002	2.00603E-003	-1.59395E-004	1.85772E-002	1.62057E-002	-7.84362E-004	-1.12553E-003	2.15914E-002	-1.33540E-003
	187	187	1.10010E+000	3.05906E-002	0.00000E+000	3.36526E-002	3.05280E-001	3.95439E-002	4.67092E+001	11	...........	6.60204E-002	-5.16444E-003	6.08211E-001	5.30762E-001	-2.55789E-002	-3.68565E-002	7.07188E-001	-4.37125E-002	2.01960E-003	-1.57983E-004	1.86055E-002	1.62363E-002	-7.82473E-004	-1.12746E-003	2.16333E-002	-1.33719E-003
	188	188	1.10013E+000	3.02065E-002	0.00000E+000	3.32310E-002	3.01467E-001	3.91032E-002	4.77722E+001	11	...........	6.52708E-002	-5.11236E-003	6.08414E-001	5.30870E-001	-2.57079E-002	-3.68465E-002	7.07180E-001	-4.37679E-002	1.97160E-003	-1.54426E-004	1.83780E-002	1.60357E-002	-7.76545E-004	-1.11300E-003	2.13614E-002	-1.32207E-003
	189	189	1.10004E+000	3.03503E-002	0.00000E+000	3.33865E-002	3.02889E-001	3.94155E-002	4.88880E+001	11	...........	6.57996E-002	-5.17694E-003	6.08263E-001	5.30917E-001	-2.57499E-002	-3.68685E-002	7.07141E-001	-4.37115E-002	1.99704E-003	-1.57122E-004	1.84610E-002	1.61135E-002	-7.81516E-004	-1.11897E-003	2.14620E-002	-1.32666E-003
	190	190	1.10009E+000	3.03725E-002	0.00000E+000	3.34126E-002	3.03113E-001	3.95370E-002	4.82441E+001	11	...........	6.59892E-002	-5.24778E-003	6.08294E-001	5.30884E-001	-2.56160E-002	-3.68469E-002	7.07242E-001	-4.37506E-002	2.00426E-003	-1.59388E-004	1.84754E-002	1.61243E-002	-7.78021E-004	-1.11913E-003	2.14807E-002	-1.32881E-003
	191	191	1.10014E+000	2.99889E-002	0.00000E+000	3.29919E-002	2.99300E-001	3.93133E-002	4.66509E+001	11	...........	6.56125E-002	-5.26931E-003	6.08454E-001	5.30976E-001	-2.57332E-002	-3.68287E-002	7.07343E-001	-4.36303E-002	1.96765E-003	-1.58021E-004	1.82469E-002	1.59234E-002	-7.71711E-004	-1.10445E-003	2.12124E-002	-1.30843E-003
	192	192	1.10004E+000	3.00926E-002	0.00000E+000	3.31030E-002	3.00335E-001	3.91373E-002	4.64305E+001	11	...........	6.53247E-002	-5.24181E-003	6.08420E-001	5.30956E-001	-2.57217E-002	-3.68515E-002	7.07293E-001	-4.35832E-002	1.96579E-003	-1.57740E-004	1.83089E-002	1.59778E-002	-7.74032E-004	-1.10896E-003	2.12843E-002	-1.31153E-003
	193	193	1.10009E+000	3.01953E-002	0.00000E+000	3.32175E-002	3.01352E-001	3.95487E-002	4.91269E+001	11	...........	6.60079E-002	-5.30042E-003	6.08480E-001	5.31604E-001	-2.56061E-002	-3.68565E-002	7.07357E-001	-4.36754E-002	1.99313E-003	-1.60047E-004	1.83732E-002	1.60519E-002	-7.73183E-004	-1.11289E-003	2.13588E-002	-1.31879E-003
	194	194	1.10014E+000	2.98380E-002	0.00000E+000	3.28260E-002	2.97807E-001	3.92177E-002	4.86466E+001	11	...........	6.56185E-002	-5.23472E-003	6.08544E-001	5.31727E-001	-2.57203E-002	-3.68842E-002	7.07296E-001	-4.37797E-002	1.95793E-003	-1.56194E-004	1.81577E-002	1.58657E-002	-7.67442E-004	-1.10055E-003	2.11043E-002	-1.30630E-003
	195	195	1.10004E+000	2.99157E-002	0.00000E+000	3.29084E-002	2.98573E-001	3.93231E-002	4.88802E+001	11	...........	6.56254E-002	-5.22028E-003	6.08503E-001	5.31704E-001	-2.57189E-002	-3.69072E-002	7.07314E-001	-4.38597E-002	1.96323E-003	-1.56168E-004	1.82038E-002	1.59063E-002	-7.69399E-004	-1.10411E-003	2.11598E-002	-1.31210E-003
	196	196	1.10009E+000	2.99579E-002	0.00000E+000	3.29564E-002	2.98995E-001	3.94702E-002	4.62034E+001	11	...........	6.58832E-002	-5.30833E-003	6.08647E-001	5.31499E-001	-2.56001E-002	-3.68557E-002	7.07273E-001	-4.38125E-002	1.97372E-003	-1.59027E-004	1.82338E-002	1.59226E-002	-7.66926E-004	-1.10412E-003	2.11884E-002	-1.31253E-003
	197	197	1.10014E+000	2.95673E-002	0.00000E+000	3.25282E-002	2.95117E-001	3.88431E-002	4.69820E+001	11	...........	6.48403E-002	-5.30917E-003	6.08583E-001	5.31790E-001	-2.57008E-002	-3.68468E-002	7.07326E-001	-4.37957E-002	1.91715E-003	-1.56978E-004	1.79942E-002	1.57236E-002	-7.59904E-004	-1.08946E-003	2.09137E-002	-1.29492E-003
	198	198	1.10004E+000	2.97008E-002	0.00000E+000	3.26720E-002	2.96444E-001	3.95433E-002	4.89631E+001	11	...........	6.60086E-002	-5.31778E-003	6.08721E-001	5.31866E-001	-2.57146E-002	-3.68840E-002	7.07419E-001	-4.37442E-002	1.96051E-003	-1.57942E-004	1.80795E-002	1.57968E-002	-7.63743E-004	-1.09548E-003	2.10109E-002	-1.29924E-003
	199	199	1.10009E+000	2.97570E-002	0.00000E+000	3.27353E-002	2.97001E-001	3.93575E-002	4.87003E+001	11	...........	6.56832E-002	-5.27847E-003	6.08732E-001	5.31892E-001	-2.55790E-002	-3.68540E-002	7.07530E-001	-4.36603E-002	1.95454E-003	-1.57072E-004	1.81141E-002	1.58275E-002	-7.61156E-004	-1.09667E-003	2.10540E-002	-1.29920E-003
	200	200	1.10014E+000	2.94256E-002	0.00000E+000	3.23724E-002	2.93707E-001	3.92914E-002	4.88475E+001	11	...........	6.55772E-002	-5.33111E-003	6.08594E-001	5.31973E-001	-2.56937E-002	-3.68694E-002	7.07494E-001	-4.37607E-002	1.92965E-003	-1.56871E-004	1.79083E-002	1.56536E-002	-7.56055E-004	-1.08491E-003	2.08185E-002	-1.28769E-003
	201	201	1.10004E+000	2.94414E-002	0.00000E+000	3.23866E-002	2.93859E-001	3.90859E-002	4.51034E+001	11	...........	6.52287E-002	-5.23931E-003	6.08581E-001	5.31989E-001	-2.56721E-002	-3.68833E-002	7.07464E-001	-4.38443E-002	1.92042E-003	-1.54252E-004	1.79175E-002	1.56625E-002	-7.55821E-004	-1.08590E-003	2.08287E-002	-1.29084E-003
	202	202	1.10009E+000	2.95224E-002	0.00000E+000	3.24772E-002	2.94664E-001	3.90526E-002	4.76698E+001	11	...........	6.51980E-002	-5.14083E-003	6.08746E-001	5.31999E-001	-2.56064E-002	-3.68629E-002	7.07385E-001	-4.37894E-002	1.92480E-003	-1.51770E-004	1.79717E-002	1.57059E-002	-7.55963E-004	-1.08828E-003	2.08837E-002	-1.29277E-003
	203	203	1.10014E+000	2.92451E-002	0.00000E+000	3.21738E-002	2.91911E-001	3.94952E-002	4.86043E+001	11	...........	6.59301E-002	-5.19889E-003	6.08828E-001	5.32017E-001	-2.57121E-002	-3.69111E-002	7.07353E-001	-4.38340E-002	1.92813E-003	-1.52042E-004	1.78052E-002	1.55589E-002	-7.51952E-004	-1.07947E-003	2.06866E-002	-1.28193E-003
	204	204	1.10004E+000	2.92718E-002	0.00000E+000	3.22001E-002	2.92175E-001	3.92565E-002	4.86350E+001	11	...........	6.55025E-002	-5.19333E-003	6.08869E-001	5.31993E-001	-2.56290E-002	-3.68935E-002	7.07278E-001	-4.38085E-002	1.91738E-003	-1.52018E-004	1.78227E-002	1.55724E-002	-7.50209E-004	-1.07994E-003	2.07033E-002	-1.28235E-003
	205	205	1.10008E+000	2.93475E-002	0.00000E+000	3.22846E-002	2.92923E-001	3.91556E-002	4.87331E+001	11	...........	6.53594E-002	-5.26014E-003	6.08816E-001	5.31986E-001	-2.56200E-002	-3.68414E-002	7.07273E-001	-4.38531E-002	1.91813E-003	-1.54372E-004	1.78672E-002	1.56124E-002	-7.51882E-004	-1.08120E-003	2.07567E-002	-1.28698E-003
	206	206	1.10015E+000	2.90305E-002	0.00000E+000	3.19378E-002	2.89773E-001	3.92675E-002	4.65231E+001	11	...........	6.55303E-002	-5.24264E-003	6.08851E-001	5.31957E-001	-2.57043E-002	-3.68703E-002	7.07341E-001	-4.37469E-002	1.90238E-003	-1.52196E-004	1.76753E-002	1.54430E-002	-7.46209E-004	-1.07036E-003	2.05345E-002	-1.27000E-003
	207	207	1.10004E+000	2.89978E-002	0.00000E+000	3.18987E-002	2.89451E-001	3.87751E-002	4.67862E+001	11	...........	6.47362E-002	-5.17806E-003	6.08795E-001	5.31967E-001	-2.55725E-002	-3.68303E-002	7.07265E-001	-4.37243E-002	1.87721E-003	-1.50152E-004	1.76537E-002	1.54259E-002	-7.41546E-004	-1.06800E-003	2.05091E-002	-1.26791E-003
	208	208	1.10008E+000	2.91666E-002	0.00000E+000	3.20857E-002	2.91133E-001	3.93782E-002	4.80485E+001	11	...........	6.57263E-002	-5.22847E-003	6.08941E-001	5.31971E-001	-2.56485E-002	-3.68432E-002	7.07431E-001	-4.37822E-002	1.91701E-003	-1.52497E-004	1.77608E-002	1.55158E-002	-7.48079E-004	-1.07459E-003	2.06334E-002	-1.27698E-003
	209	209	1.10015E+000	2.88479E-002	0.00000E+000	3.17370E-002	2.87963E-001	3.89523E-002	4.78791E+001	11	...........	6.50189E-002	-5.22667E-003	6.08872E-001	5.31947E-001	-2.57006E-002	-3.68853E-002	7.07379E-001	-4.37506E-002	1.87566E-003	-1.50779E-004	1.75647E-002	1.53456E-002	-7.41408E-004	-1.06406E-003	2.04064E-002	-1.26211E-003
	210	210	1.10004E+000	2.88979E-002	0.00000E+000	3.17887E-002	2.88455E-001	3.93845E-002	4.87198E+001	11	...........	6.57272E-002	-5.17833E-003	6.08866E-001	5.31910E-001	-2.55890E-002	-3.68628E-002	7.07476E-001	-4.36144E-002	1.89938E-003	-1.49643E-004	1.75949E-002	1.53711E-002	-7.39468E-004	-1.06526E-003	2.04445E-002	-1.26036E-003
	211	211	1.10008E+000	2.89371E-002	0.00000E+000	3.18331E-002	2.88848E-001	3.89529E-002	4.64030E+001	11	...........	6.50164E-002	-5.16431E-003	6.09050E-001	5.31676E-001	-2.56919E-002	-3.68781E-002	7.07519E-001	-4.36865E-002	1.88138E-003	-1.49440E-004	1.76241E-002	1.53852E-002	-7.43450E-004	-1.06714E-003	2.04735E-002	-1.26416E-003
	212	212	1.10015E+000	2.86458E-002	0.00000E+000	3.15146E-002	2.85957E-001	3.89582E-002	4.77813E+001	11	...........	6.50269E-002	-5.18583E-003	6.09144E-001	5.31654E-001	-2.57140E-002	-3.68844E-002	7.07462E-001	-4.37367E-002	1.86275E-003	-1.48552E-004	1.74494E-002	1.52297E-002	-7.36599E-004	-1.05658E-003	2.02658E-002	-1.25287E-003
	213	213	1.10004E+000	2.86869E-002	0.00000E+000	3.15566E-002	2.86359E-001	3.91996E-002	4.85346E+001	11	...........	6.54274E-002	-5.20431E-003	6.09179E-001	5.31357E-001	-2.55949E-002	-3.68649E-002	7.07365E-001	-4.37271E-002	1.87690E-003	-1.49295E-004	1.74754E-002	1.52430E-002	-7.34236E-004	-1.05754E-003	2.02921E-002	-1.25439E-003
	214	213.495	1.10019E+000	2.87691E-002	0.00000E+000	3.16515E-002	2.87173E-001	3.91419E-002	4.80922E+001	11	...........	6.52957E-002	-5.19921E-003	6.09176E-001	5.31304E-001	-2.56397E-002	-3.68468E-002	7.07416E-001	-4.36863E-002	1.87850E-003	-1.49577E-004	1.75254E-002	1.52851E-002	-7.37631E-004	-1.06005E-003	2.03517E-002	-1.25681E-003
STARTTIMEOFFSET	QUANT	667151.9	Start Time Offset (s)
