EXPLAIN
TAG	PWR800_CHARGE
TITLE	LABEL	PWR Charge	Test Identifier
DATE	LABEL	10/15/2022	Date
TIME	LABEL	1:49:41	Time
NOTES	NOTES	1	Notes...
	
PSTAT	PSTAT	REF3000-21114	Potentiostat
CAPACITY	QUANT	5.30000E-002	Capacity (A-hr)
CELLTYPE	SELECTOR	1	Cell Type
WORKINGCONNECTION	SELECTOR	0	Working Connection
MAXCHARGETIME	VARIABLEANDUNITS	7.20000E+003	s	2.00000E+000	hour(s)	Max Charge Time
CHARGEMODE	MULTIPARAM	0	1.00000E-001	Charge Mode	Constant Current	Amp(s)
CHARGECURRENT	QUANT	0.1	Charge Current (A)
VOLTAGEFINISH	TWOPARAM	T	2.50000E-002	7.20000E+003	Voltage Finish	I (A) <	Max Time(s)
SAMPLETIME	QUANT	1.00000E+000	Sample Period (s)
CHARGESTOPAT1	MULTIPARAM	2	1.10000E+000	Stop At 1	|Voltage| > Limit	V
CHARGESTOPAT2	MULTIPARAM	0	0.00000E+000	Stop At 2	None	N/A
AESELECTOR	AESELECTOR	0x1	T	Set Limits	AE Channels
AESBHCSELECTOR	TOGGLE	F	Save Both Half Cells
IRCOMP	TOGGLE	F	IR Measure
EOC	QUANT	0.2614973	Open Circuit (V)
SEQUENCER	TOGGLE	TRUE	Run as Sequence
PSTATMODEL	IQUANT	5	Pstat Model
PSTATSECTION	LABEL	REF3000-21114	Pstat Section
PSTATSERIALNO	LABEL	21114	Pstat Serial Number
CTRLMODE	IQUANT	0	Control Mode
ELECTROMETER	IQUANT	0	RE=0 or CS=1
IESTAB	IQUANT	0	I/E Stability
CASPEED	IQUANT	4	Control Amp Speed
CONVENTION	IQUANT	1	Current Convention
ICHRANGE	IQUANT	2	Ich Range
ICHRANGEMODE	TOGGLE	T	Ich Auto Range
ICHOFFSETENABLE	TOGGLE	F	Ich Offset Enable
ICHOFFSET	QUANT	0	Ich Offset (V)
ICHFILTER	IQUANT	1	Ich Filter
VCHRANGE	IQUANT	3	Vch Range
VCHRANGEMODE	TOGGLE	T	Vch Auto Range
VCHOFFSETENABLE	TOGGLE	F	Vch Offset Enable
VCHOFFSET	QUANT	0	Vch Offset (V)
VCHFILTER	IQUANT	1	Vch Filter
ACHRANGE	IQUANT	2	Ach Range
ACHOFFSETENABLE	TOGGLE	F	Ach Offset Enable
ACHOFFSET	QUANT	0	Ach Offset (V)
ACHFILTER	IQUANT	1	Ach Filter
IERANGELOWERLIMIT	IQUANT	9	I/E Range Lower Limit
IERANGEMODE	TOGGLE	F	I/E AutoRange
IERANGE	IQUANT	9	I/E Range
POSFEEDENABLE	TOGGLE	F	Positive Feedback IR Comp
POSFEEDRESISTANCE	QUANT	0	Positive Feedback Resistance (ohm)
ACHSELECT	IQUANT	1	Ach Select
SENSECABLEID	IQUANT	13	Sense Cable ID
PWRCABLEID	IQUANT	13	Power Cable ID
DCCALDATE	LABEL		DC Calibration Date
ACCALDATE	LABEL		AC Calibration Date
THERMOSELECT	IQUANT	1	Thermo Select
FRAMEWORKVERSION	LABEL	7.8.6	Framework Version
INSTRUMENTVERSION	LABEL	4.50	Instrument Version
COMPLIANCEVOLTAGE	IQUANT	0	Compliance Voltage
CURVE	TABLE	179
	Pt	T	Vf	Im	Vu	Pwr	Sig	Ach	Temp	IERange	Over	Vf1	Vf2	Vf3	Vf4	Vf5	Vf6	Vf7	Vf8	Pwr1	Pwr2	Pwr3	Pwr4	Pwr5	Pwr6	Pwr7	Pwr8
	#	s	V	A	V	W	V	V	deg C	#	bits	V	V	V	V	V	V	V	V	W	W	W	W	W	W	W	W
	0	1	5.35858E-001	9.98613E-002	0.00000E+000	5.35115E-002	9.94000E-001	4.07444E-002	4.17653E+001	11	...........	6.81118E-002	-5.21708E-003	6.04514E-001	5.57960E-001	-2.70282E-002	-3.75006E-002	7.03736E-001	-4.34382E-002	6.80173E-003	-5.20985E-004	6.03675E-002	5.57186E-002	-2.69907E-003	-3.74485E-003	7.02760E-002	-4.33779E-003
	1	2	6.89517E-001	9.98618E-002	0.00000E+000	6.88564E-002	9.94000E-001	4.10683E-002	4.26989E+001	11	...........	6.81981E-002	-5.27597E-003	6.04515E-001	5.57808E-001	-2.70421E-002	-3.75164E-002	7.03751E-001	-4.35492E-002	6.81038E-003	-5.26868E-004	6.03680E-002	5.57037E-002	-2.70047E-003	-3.74645E-003	7.02778E-002	-4.34890E-003
	2	2.75167	9.37892E-001	9.98624E-002	0.00000E+000	9.36602E-002	9.94000E-001	4.20745E-002	4.71607E+001	11	...........	6.98457E-002	-5.22413E-003	6.04660E-001	5.57779E-001	-2.70514E-002	-3.75113E-002	7.03711E-001	-4.36428E-002	6.97496E-003	-5.21694E-004	6.03828E-002	5.57012E-002	-2.70141E-003	-3.74597E-003	7.02743E-002	-4.35828E-003
	3	3	1.10140E+000	8.17557E-002	0.00000E+000	9.00454E-002	8.13944E-001	4.20825E-002	4.88597E+001	11	...........	6.98669E-002	-5.18121E-003	6.04710E-001	5.57691E-001	-2.70313E-002	-3.75162E-002	7.03688E-001	-4.35867E-002	5.71201E-003	-4.23593E-004	4.94384E-002	4.55944E-002	-2.20996E-003	-3.06716E-003	5.75305E-002	-3.56346E-003
	4	4	1.10024E+000	6.17055E-002	0.00000E+000	6.78910E-002	6.14582E-001	4.13506E-002	4.97254E+001	11	...........	6.86319E-002	-5.17778E-003	6.04657E-001	5.57833E-001	-2.70389E-002	-3.75093E-002	7.03629E-001	-4.34712E-002	4.23497E-003	-3.19497E-004	3.73107E-002	3.44214E-002	-1.66845E-003	-2.31453E-003	4.34178E-002	-2.68242E-003
	5	5	1.10016E+000	5.25033E-002	0.00000E+000	5.77622E-002	5.23072E-001	4.17640E-002	5.01585E+001	11	...........	6.93014E-002	-5.13597E-003	6.04795E-001	5.57767E-001	-2.70218E-002	-3.74972E-002	7.03798E-001	-4.33961E-002	3.63855E-003	-2.69655E-004	3.17537E-002	2.92846E-002	-1.41873E-003	-1.96873E-003	3.69517E-002	-2.27844E-003
	6	6	1.10019E+000	4.84653E-002	0.00000E+000	5.33209E-002	4.82929E-001	4.14673E-002	4.83750E+001	11	...........	6.88143E-002	-5.12694E-003	6.04667E-001	5.57818E-001	-2.70449E-002	-3.75135E-002	7.03729E-001	-4.35312E-002	3.33511E-003	-2.48479E-004	2.93054E-002	2.70348E-002	-1.31074E-003	-1.81810E-003	3.41064E-002	-2.10976E-003
	7	7	1.10005E+000	4.66317E-002	0.00000E+000	5.12973E-002	4.64699E-001	4.15027E-002	4.67795E+001	11	...........	6.88855E-002	-5.12736E-003	6.04719E-001	5.57722E-001	-2.70328E-002	-3.75024E-002	7.03733E-001	-4.34957E-002	3.21225E-003	-2.39098E-004	2.81991E-002	2.60076E-002	-1.26058E-003	-1.74880E-003	3.28163E-002	-2.02828E-003
	8	8	1.10012E+000	4.55801E-002	0.00000E+000	5.01434E-002	4.54248E-001	4.16928E-002	4.91561E+001	11	...........	6.91918E-002	-5.10111E-003	6.04778E-001	5.57592E-001	-2.70194E-002	-3.74650E-002	7.03681E-001	-4.34864E-002	3.15377E-003	-2.32509E-004	2.75658E-002	2.54151E-002	-1.23155E-003	-1.70766E-003	3.20738E-002	-1.98211E-003
	9	9	1.10017E+000	4.43726E-002	0.00000E+000	4.88173E-002	4.42240E-001	4.15361E-002	4.83289E+001	11	...........	6.89154E-002	-5.15597E-003	6.04748E-001	5.57390E-001	-2.69901E-002	-3.74651E-002	7.03666E-001	-4.35896E-002	3.05796E-003	-2.28784E-004	2.68343E-002	2.47329E-002	-1.19762E-003	-1.66243E-003	3.12235E-002	-1.93418E-003
	10	10	1.10004E+000	4.39054E-002	0.00000E+000	4.82978E-002	4.37595E-001	4.14312E-002	4.88194E+001	11	...........	6.87410E-002	-5.06306E-003	6.04642E-001	5.57340E-001	-2.70181E-002	-3.74654E-002	7.03597E-001	-4.36217E-002	3.01810E-003	-2.22295E-004	2.65470E-002	2.44702E-002	-1.18624E-003	-1.64493E-003	3.08917E-002	-1.91523E-003
	11	11	1.10011E+000	4.36542E-002	0.00000E+000	4.80243E-002	4.35094E-001	4.15904E-002	4.95770E+001	11	...........	6.90686E-002	-5.17611E-003	6.04658E-001	5.57254E-001	-2.70064E-002	-3.74796E-002	7.03532E-001	-4.34697E-002	3.01514E-003	-2.25959E-004	2.63959E-002	2.43265E-002	-1.17894E-003	-1.63614E-003	3.07122E-002	-1.89764E-003
	12	12	1.10017E+000	4.28933E-002	0.00000E+000	4.71897E-002	4.27527E-001	4.15360E-002	4.69734E+001	11	...........	6.89232E-002	-5.07750E-003	6.04590E-001	5.57323E-001	-2.69954E-002	-3.74739E-002	7.03631E-001	-4.34960E-002	2.95634E-003	-2.17791E-004	2.59328E-002	2.39054E-002	-1.15792E-003	-1.60738E-003	3.01810E-002	-1.86568E-003
	13	13	1.10004E+000	4.27567E-002	0.00000E+000	4.70341E-002	4.26169E-001	4.12477E-002	4.81655E+001	11	...........	6.84644E-002	-4.90069E-003	6.04536E-001	5.57270E-001	-2.70339E-002	-3.74644E-002	7.03649E-001	-4.34992E-002	2.92732E-003	-2.09538E-004	2.58480E-002	2.38270E-002	-1.15588E-003	-1.60186E-003	3.00857E-002	-1.85988E-003
	14	14	1.10010E+000	4.27154E-002	0.00000E+000	4.69913E-002	4.25753E-001	4.15774E-002	4.89832E+001	11	...........	6.90210E-002	-4.98972E-003	6.04632E-001	5.57344E-001	-2.70176E-002	-3.74808E-002	7.03717E-001	-4.35379E-002	2.94826E-003	-2.13138E-004	2.58271E-002	2.38072E-002	-1.15407E-003	-1.60101E-003	3.00595E-002	-1.85974E-003
	15	15	1.10017E+000	4.21609E-002	0.00000E+000	4.63839E-002	4.20242E-001	4.14273E-002	4.85017E+001	11	...........	6.87661E-002	-4.93639E-003	6.04609E-001	5.57401E-001	-2.69975E-002	-3.75112E-002	7.03708E-001	-4.35515E-002	2.89924E-003	-2.08122E-004	2.54908E-002	2.35005E-002	-1.13824E-003	-1.58151E-003	2.96689E-002	-1.83617E-003
	16	16	1.10004E+000	4.20554E-002	0.00000E+000	4.62627E-002	4.19192E-001	4.09872E-002	4.41652E+001	11	...........	6.80468E-002	-4.87069E-003	6.04657E-001	5.57466E-001	-2.70100E-002	-3.75215E-002	7.03624E-001	-4.34707E-002	2.86173E-003	-2.04839E-004	2.54291E-002	2.34445E-002	-1.13592E-003	-1.57798E-003	2.95912E-002	-1.82818E-003
	17	17	1.10010E+000	4.21101E-002	0.00000E+000	4.63252E-002	4.19735E-001	4.16566E-002	4.75669E+001	11	...........	6.91251E-002	-4.95028E-003	6.04730E-001	5.57442E-001	-2.70069E-002	-3.75233E-002	7.03753E-001	-4.34986E-002	2.91087E-003	-2.08457E-004	2.54652E-002	2.34739E-002	-1.13726E-003	-1.58011E-003	2.96351E-002	-1.83173E-003
	18	18	1.10017E+000	4.16434E-002	0.00000E+000	4.58147E-002	4.15094E-001	4.15065E-002	4.84751E+001	11	...........	6.88526E-002	-5.10986E-003	6.04833E-001	5.57327E-001	-2.69964E-002	-3.75217E-002	7.03655E-001	-4.34608E-002	2.86726E-003	-2.12792E-004	2.51873E-002	2.32090E-002	-1.12422E-003	-1.56253E-003	2.93025E-002	-1.80986E-003
	19	19	1.10004E+000	4.15671E-002	0.00000E+000	4.57254E-002	4.14339E-001	4.09948E-002	4.66842E+001	11	...........	6.80332E-002	-4.99806E-003	6.04720E-001	5.57164E-001	-2.70174E-002	-3.74993E-002	7.03597E-001	-4.33829E-002	2.82794E-003	-2.07755E-004	2.51365E-002	2.31597E-002	-1.12303E-003	-1.55874E-003	2.92465E-002	-1.80330E-003
	20	20	1.10010E+000	4.16208E-002	0.00000E+000	4.57869E-002	4.14873E-001	4.13804E-002	4.78136E+001	11	...........	6.89218E-002	-5.02111E-003	6.04856E-001	5.57407E-001	-2.70536E-002	-3.74832E-002	7.03554E-001	-4.33417E-002	2.86858E-003	-2.08983E-004	2.51746E-002	2.31997E-002	-1.12599E-003	-1.56008E-003	2.92825E-002	-1.80391E-003
	21	21	1.10017E+000	4.11823E-002	0.00000E+000	4.53074E-002	4.10517E-001	4.10148E-002	4.74503E+001	11	...........	6.84626E-002	-5.07042E-003	6.05005E-001	5.57635E-001	-2.70443E-002	-3.74650E-002	7.03525E-001	-4.33510E-002	2.81945E-003	-2.08812E-004	2.49155E-002	2.29647E-002	-1.11375E-003	-1.54290E-003	2.89728E-002	-1.78529E-003
	22	22	1.10004E+000	4.12429E-002	0.00000E+000	4.53688E-002	4.11119E-001	4.10951E-002	4.72150E+001	11	...........	6.85993E-002	-4.98069E-003	6.05101E-001	5.57635E-001	-2.70226E-002	-3.74221E-002	7.03636E-001	-4.34422E-002	2.82923E-003	-2.05418E-004	2.49561E-002	2.29985E-002	-1.11449E-003	-1.54339E-003	2.90200E-002	-1.79168E-003
	23	23	1.10010E+000	4.12101E-002	0.00000E+000	4.53351E-002	4.10791E-001	4.08246E-002	4.77921E+001	11	...........	6.81387E-002	-4.89250E-003	6.05027E-001	5.57609E-001	-2.70201E-002	-3.73982E-002	7.03695E-001	-4.34035E-002	2.80800E-003	-2.01620E-004	2.49332E-002	2.29791E-002	-1.11350E-003	-1.54118E-003	2.89993E-002	-1.78866E-003
	24	24	1.10017E+000	4.08374E-002	0.00000E+000	4.49280E-002	4.07084E-001	4.10943E-002	4.90715E+001	11	...........	6.85899E-002	-5.01458E-003	6.04983E-001	5.57664E-001	-2.70233E-002	-3.74182E-002	7.03794E-001	-4.33269E-002	2.80103E-003	-2.04782E-004	2.47059E-002	2.27735E-002	-1.10356E-003	-1.52806E-003	2.87411E-002	-1.76936E-003
	25	25	1.10004E+000	4.07959E-002	0.00000E+000	4.48772E-002	4.06675E-001	4.09960E-002	4.56385E+001	11	...........	6.84231E-002	-5.07625E-003	6.05034E-001	5.57484E-001	-2.70042E-002	-3.74019E-002	7.03780E-001	-4.33654E-002	2.79138E-003	-2.07090E-004	2.46829E-002	2.27431E-002	-1.10166E-003	-1.52585E-003	2.87113E-002	-1.76913E-003
	26	26	1.10009E+000	4.08456E-002	0.00000E+000	4.49339E-002	4.07169E-001	4.07150E-002	4.69223E+001	11	...........	6.79594E-002	-4.95694E-003	6.04931E-001	5.57501E-001	-2.70197E-002	-3.74110E-002	7.03770E-001	-4.33850E-002	2.77584E-003	-2.02469E-004	2.47087E-002	2.27715E-002	-1.10364E-003	-1.52807E-003	2.87459E-002	-1.77208E-003
	27	27	1.10017E+000	4.05364E-002	0.00000E+000	4.45969E-002	4.04097E-001	4.10081E-002	4.89671E+001	11	...........	6.84539E-002	-5.06069E-003	6.05116E-001	5.57572E-001	-2.69971E-002	-3.74058E-002	7.03727E-001	-4.33322E-002	2.77487E-003	-2.05142E-004	2.45292E-002	2.26020E-002	-1.09436E-003	-1.51630E-003	2.85266E-002	-1.75653E-003
	28	28	1.10004E+000	4.04539E-002	0.00000E+000	4.45011E-002	4.03279E-001	4.08311E-002	4.65337E+001	11	...........	6.81379E-002	-5.10403E-003	6.05175E-001	5.57603E-001	-2.69851E-002	-3.74121E-002	7.03727E-001	-4.33140E-002	2.75644E-003	-2.06478E-004	2.44817E-002	2.25572E-002	-1.09165E-003	-1.51346E-003	2.84685E-002	-1.75222E-003
	29	29	1.10009E+000	4.05438E-002	0.00000E+000	4.46018E-002	4.04171E-001	4.08712E-002	4.82179E+001	11	...........	6.82046E-002	-5.04611E-003	6.05213E-001	5.57635E-001	-2.70106E-002	-3.74257E-002	7.03600E-001	-4.33575E-002	2.76527E-003	-2.04588E-004	2.45376E-002	2.26086E-002	-1.09511E-003	-1.51738E-003	2.85266E-002	-1.75788E-003
	30	30	1.10017E+000	4.01517E-002	0.00000E+000	4.41737E-002	4.00275E-001	4.08227E-002	4.84735E+001	11	...........	6.81368E-002	-4.88833E-003	6.05146E-001	5.57517E-001	-2.69725E-002	-3.74064E-002	7.03652E-001	-4.33300E-002	2.73581E-003	-1.96275E-004	2.42976E-002	2.23852E-002	-1.08299E-003	-1.50193E-003	2.82528E-002	-1.73977E-003
	31	31	1.10004E+000	4.01045E-002	0.00000E+000	4.41166E-002	3.99804E-001	4.05172E-002	4.56680E+001	11	...........	6.76135E-002	-4.86278E-003	6.05006E-001	5.57437E-001	-2.69539E-002	-3.73768E-002	7.03650E-001	-4.32968E-002	2.71161E-003	-1.95019E-004	2.42635E-002	2.23558E-002	-1.08097E-003	-1.49898E-003	2.82195E-002	-1.73640E-003
	32	32	1.10009E+000	4.02607E-002	0.00000E+000	4.42903E-002	4.01356E-001	4.10179E-002	4.83098E+001	11	...........	6.84736E-002	-4.90681E-003	6.05113E-001	5.57472E-001	-2.69583E-002	-3.73726E-002	7.03688E-001	-4.32354E-002	2.75679E-003	-1.97551E-004	2.43623E-002	2.24442E-002	-1.08536E-003	-1.50465E-003	2.83310E-002	-1.74069E-003
	33	33	1.10017E+000	3.98308E-002	0.00000E+000	4.38207E-002	3.97082E-001	4.06612E-002	4.74330E+001	11	...........	6.78606E-002	-4.91500E-003	6.05184E-001	5.57536E-001	-2.69610E-002	-3.73762E-002	7.03674E-001	-4.33090E-002	2.70294E-003	-1.95768E-004	2.41049E-002	2.22071E-002	-1.07388E-003	-1.48872E-003	2.80279E-002	-1.72503E-003
	34	34	1.10004E+000	3.98073E-002	0.00000E+000	4.37897E-002	3.96852E-001	4.07280E-002	4.80927E+001	11	...........	6.79776E-002	-4.95264E-003	6.05217E-001	5.57586E-001	-2.69399E-002	-3.73808E-002	7.03726E-001	-4.33285E-002	2.70601E-003	-1.97151E-004	2.40921E-002	2.21960E-002	-1.07240E-003	-1.48803E-003	2.80134E-002	-1.72479E-003
	35	35	1.10009E+000	3.99250E-002	0.00000E+000	4.39210E-002	3.98018E-001	4.08107E-002	4.79686E+001	11	...........	6.81110E-002	-5.05458E-003	6.05188E-001	5.57626E-001	-2.69510E-002	-3.73832E-002	7.03791E-001	-4.32925E-002	2.71933E-003	-2.01804E-004	2.41621E-002	2.22632E-002	-1.07602E-003	-1.49252E-003	2.80989E-002	-1.72845E-003
	36	36	1.10017E+000	3.95160E-002	0.00000E+000	4.34744E-002	3.93947E-001	4.03162E-002	4.60024E+001	11	...........	6.72904E-002	-5.15097E-003	6.05129E-001	5.57457E-001	-2.69714E-002	-3.73896E-002	7.03678E-001	-4.33572E-002	2.65905E-003	-2.03546E-004	2.39122E-002	2.20284E-002	-1.06580E-003	-1.47749E-003	2.78065E-002	-1.71330E-003
	37	37	1.10004E+000	3.95369E-002	0.00000E+000	4.34923E-002	3.94156E-001	4.10108E-002	4.79199E+001	11	...........	6.84414E-002	-5.11431E-003	6.05250E-001	5.57468E-001	-2.69687E-002	-3.74097E-002	7.03698E-001	-4.33574E-002	2.70596E-003	-2.02204E-004	2.39297E-002	2.20406E-002	-1.06626E-003	-1.47906E-003	2.78220E-002	-1.71422E-003
	38	38	1.10009E+000	3.95831E-002	0.00000E+000	4.35449E-002	3.94615E-001	4.06462E-002	4.69796E+001	11	...........	6.78429E-002	-5.06222E-003	6.05184E-001	5.57354E-001	-2.69547E-002	-3.74214E-002	7.03699E-001	-4.32878E-002	2.68543E-003	-2.00378E-004	2.39551E-002	2.20618E-002	-1.06695E-003	-1.48125E-003	2.78546E-002	-1.71346E-003
	39	39	1.10017E+000	3.92759E-002	0.00000E+000	4.32102E-002	3.91566E-001	4.05926E-002	4.79752E+001	11	...........	6.77307E-002	-5.18722E-003	6.05023E-001	5.57493E-001	-2.69582E-002	-3.74167E-002	7.03777E-001	-4.32179E-002	2.66019E-003	-2.03733E-004	2.37629E-002	2.18961E-002	-1.05881E-003	-1.46957E-003	2.76415E-002	-1.69742E-003
	40	40	1.10005E+000	3.92293E-002	0.00000E+000	4.31540E-002	3.91103E-001	4.07099E-002	4.78849E+001	11	...........	6.79261E-002	-5.15722E-003	6.05030E-001	5.57609E-001	-2.69825E-002	-3.74062E-002	7.03756E-001	-4.32865E-002	2.66469E-003	-2.02314E-004	2.37349E-002	2.18746E-002	-1.05850E-003	-1.46742E-003	2.76078E-002	-1.69810E-003
	41	41	1.10008E+000	3.92865E-002	0.00000E+000	4.32185E-002	3.91674E-001	4.04290E-002	4.73330E+001	11	...........	6.74792E-002	-5.08500E-003	6.04897E-001	5.57698E-001	-2.69669E-002	-3.74135E-002	7.03748E-001	-4.34718E-002	2.65102E-003	-1.99772E-004	2.37643E-002	2.19100E-002	-1.05944E-003	-1.46985E-003	2.76478E-002	-1.70786E-003
	42	42	1.10017E+000	3.89896E-002	0.00000E+000	4.28952E-002	3.88722E-001	4.06847E-002	4.82664E+001	11	...........	6.79058E-002	-5.07278E-003	6.04814E-001	5.57414E-001	-2.70154E-002	-3.74435E-002	7.03726E-001	-4.34228E-002	2.64762E-003	-1.97785E-004	2.35815E-002	2.17334E-002	-1.05332E-003	-1.45991E-003	2.74380E-002	-1.69304E-003
	43	43	1.10005E+000	3.88909E-002	0.00000E+000	4.27818E-002	3.87740E-001	4.05335E-002	4.63017E+001	11	...........	6.76361E-002	-5.10903E-003	6.04739E-001	5.57267E-001	-2.70390E-002	-3.74587E-002	7.03811E-001	-4.33682E-002	2.63043E-003	-1.98695E-004	2.35189E-002	2.16726E-002	-1.05157E-003	-1.45681E-003	2.73719E-002	-1.68663E-003
	44	44	1.10008E+000	3.89996E-002	0.00000E+000	4.29028E-002	3.88817E-001	4.03480E-002	4.75263E+001	11	...........	6.73526E-002	-5.05500E-003	6.04799E-001	5.57089E-001	-2.70662E-002	-3.74733E-002	7.03701E-001	-4.32829E-002	2.62673E-003	-1.97143E-004	2.35869E-002	2.17263E-002	-1.05557E-003	-1.46145E-003	2.74441E-002	-1.68802E-003
	45	45	1.10017E+000	3.86973E-002	0.00000E+000	4.25737E-002	3.85811E-001	4.05982E-002	4.88282E+001	11	...........	6.77749E-002	-4.99861E-003	6.04933E-001	5.57088E-001	-2.70358E-002	-3.74858E-002	7.03732E-001	-4.33612E-002	2.62271E-003	-1.93433E-004	2.34093E-002	2.15578E-002	-1.04621E-003	-1.45060E-003	2.72326E-002	-1.67796E-003
	46	46	1.10005E+000	3.86008E-002	0.00000E+000	4.24627E-002	3.84852E-001	4.04690E-002	4.83908E+001	11	...........	6.75504E-002	-4.93014E-003	6.04993E-001	5.57154E-001	-2.70740E-002	-3.74858E-002	7.03779E-001	-4.33944E-002	2.60750E-003	-1.90307E-004	2.33532E-002	2.15066E-002	-1.04508E-003	-1.44698E-003	2.71664E-002	-1.67506E-003
	47	47	1.10008E+000	3.86935E-002	0.00000E+000	4.25661E-002	3.85773E-001	4.03539E-002	4.67312E+001	11	...........	6.73590E-002	-4.94181E-003	6.05006E-001	5.57090E-001	-2.70674E-002	-3.75171E-002	7.03763E-001	-4.33778E-002	2.60636E-003	-1.91216E-004	2.34098E-002	2.15558E-002	-1.04733E-003	-1.45167E-003	2.72311E-002	-1.67844E-003
	48	48	1.10017E+000	3.84284E-002	0.00000E+000	4.22777E-002	3.83137E-001	4.03113E-002	4.64260E+001	11	...........	6.72821E-002	-5.07319E-003	6.05151E-001	5.57120E-001	-2.70467E-002	-3.75099E-002	7.03849E-001	-4.33092E-002	2.58554E-003	-1.94954E-004	2.32550E-002	2.14092E-002	-1.03936E-003	-1.44144E-003	2.70477E-002	-1.66430E-003
	49	49	1.10005E+000	3.83683E-002	0.00000E+000	4.22070E-002	3.82538E-001	4.04539E-002	4.75805E+001	11	...........	6.75303E-002	-5.10250E-003	6.05352E-001	5.57268E-001	-2.70708E-002	-3.74862E-002	7.03865E-001	-4.32637E-002	2.59102E-003	-1.95774E-004	2.32263E-002	2.13814E-002	-1.03866E-003	-1.43828E-003	2.70061E-002	-1.65996E-003
	50	50	1.10008E+000	3.84907E-002	0.00000E+000	4.23430E-002	3.83758E-001	4.05272E-002	4.88272E+001	11	...........	6.76332E-002	-5.13403E-003	6.05411E-001	5.57293E-001	-2.70767E-002	-3.75068E-002	7.03742E-001	-4.33897E-002	2.60325E-003	-1.97613E-004	2.33027E-002	2.14506E-002	-1.04220E-003	-1.44366E-003	2.70875E-002	-1.67010E-003
	51	51	1.10017E+000	3.81801E-002	0.00000E+000	4.20046E-002	3.80675E-001	4.04132E-002	4.73248E+001	11	...........	6.74467E-002	-5.08819E-003	6.05265E-001	5.57302E-001	-2.70868E-002	-3.75421E-002	7.03806E-001	-4.33860E-002	2.57512E-003	-1.94268E-004	2.31091E-002	2.12779E-002	-1.03418E-003	-1.43336E-003	2.68714E-002	-1.65648E-003
	52	52	1.10005E+000	3.80136E-002	0.00000E+000	4.18169E-002	3.79018E-001	3.99375E-002	4.64979E+001	11	...........	6.66264E-002	-5.00778E-003	6.05306E-001	5.57251E-001	-2.70869E-002	-3.75036E-002	7.03641E-001	-4.34176E-002	2.53271E-003	-1.90364E-004	2.30098E-002	2.11831E-002	-1.02967E-003	-1.42565E-003	2.67479E-002	-1.65046E-003
	53	53	1.10008E+000	3.81636E-002	0.00000E+000	4.19832E-002	3.80509E-001	4.07069E-002	4.83987E+001	11	...........	6.79237E-002	-5.03347E-003	6.05442E-001	5.57148E-001	-2.70649E-002	-3.75037E-002	7.03790E-001	-4.33399E-002	2.59222E-003	-1.92095E-004	2.31058E-002	2.12628E-002	-1.03289E-003	-1.43128E-003	2.68592E-002	-1.65401E-003
	54	54	1.10017E+000	3.78897E-002	0.00000E+000	4.16851E-002	3.77785E-001	4.03537E-002	4.59356E+001	11	...........	6.73528E-002	-4.89389E-003	6.05456E-001	5.57258E-001	-2.70390E-002	-3.75018E-002	7.03786E-001	-4.33562E-002	2.55197E-003	-1.85428E-004	2.29405E-002	2.11143E-002	-1.02450E-003	-1.42093E-003	2.66662E-002	-1.64275E-003
	55	55	1.10005E+000	3.77394E-002	0.00000E+000	4.15153E-002	3.76289E-001	4.01553E-002	4.77960E+001	11	...........	6.70147E-002	-4.80625E-003	6.05527E-001	5.57238E-001	-2.70426E-002	-3.74853E-002	7.03650E-001	-4.34646E-002	2.52909E-003	-1.81385E-004	2.28522E-002	2.10298E-002	-1.02057E-003	-1.41467E-003	2.65553E-002	-1.64033E-003
	56	56	1.10008E+000	3.79044E-002	0.00000E+000	4.16979E-002	3.77933E-001	4.04188E-002	4.71514E+001	11	...........	6.74569E-002	-4.93333E-003	6.05546E-001	5.57175E-001	-2.70444E-002	-3.74769E-002	7.03565E-001	-4.35192E-002	2.55691E-003	-1.86995E-004	2.29528E-002	2.11194E-002	-1.02510E-003	-1.42054E-003	2.66682E-002	-1.64957E-003
	57	57	1.10017E+000	3.76105E-002	0.00000E+000	4.13778E-002	3.75011E-001	4.02236E-002	4.74561E+001	11	...........	6.71436E-002	-4.96514E-003	6.05262E-001	5.57094E-001	-2.70426E-002	-3.74810E-002	7.03691E-001	-4.36192E-002	2.52531E-003	-1.86741E-004	2.27642E-002	2.09526E-002	-1.01709E-003	-1.40968E-003	2.64662E-002	-1.64054E-003
	58	58	1.10005E+000	3.74450E-002	0.00000E+000	4.11915E-002	3.73359E-001	3.99594E-002	4.59531E+001	11	...........	6.66835E-002	-4.87639E-003	6.05257E-001	5.57121E-001	-2.70610E-002	-3.74950E-002	7.03692E-001	-4.35469E-002	2.49696E-003	-1.82596E-004	2.26638E-002	2.08614E-002	-1.01330E-003	-1.40400E-003	2.63497E-002	-1.63061E-003
	59	59	1.10008E+000	3.76702E-002	0.00000E+000	4.14402E-002	3.75607E-001	4.05064E-002	4.83987E+001	11	...........	6.76200E-002	-4.87403E-003	6.05364E-001	5.57035E-001	-2.70760E-002	-3.75206E-002	7.03714E-001	-4.34793E-002	2.54726E-003	-1.83606E-004	2.28042E-002	2.09836E-002	-1.01996E-003	-1.41341E-003	2.65091E-002	-1.63788E-003
	60	60	1.10017E+000	3.73676E-002	0.00000E+000	4.11107E-002	3.72595E-001	4.02230E-002	4.73413E+001	11	...........	6.71203E-002	-4.93208E-003	6.05169E-001	5.56871E-001	-2.70696E-002	-3.75279E-002	7.03687E-001	-4.34285E-002	2.50813E-003	-1.84300E-004	2.26137E-002	2.08090E-002	-1.01153E-003	-1.40233E-003	2.62951E-002	-1.62282E-003
	61	61	1.10006E+000	3.72100E-002	0.00000E+000	4.09332E-002	3.71028E-001	4.01901E-002	4.81393E+001	11	...........	6.70854E-002	-4.92194E-003	6.05294E-001	5.56910E-001	-2.70590E-002	-3.75089E-002	7.03582E-001	-4.34694E-002	2.49625E-003	-1.83146E-004	2.25230E-002	2.07226E-002	-1.00687E-003	-1.39571E-003	2.61803E-002	-1.61750E-003
	62	62	1.10008E+000	3.73631E-002	0.00000E+000	4.11023E-002	3.72549E-001	4.02218E-002	4.68763E+001	11	...........	6.71236E-002	-5.05542E-003	6.05294E-001	5.56855E-001	-2.70257E-002	-3.75083E-002	7.03677E-001	-4.34165E-002	2.50795E-003	-1.88886E-004	2.26157E-002	2.08058E-002	-1.00976E-003	-1.40143E-003	2.62915E-002	-1.62218E-003
	63	63	1.10016E+000	3.70674E-002	0.00000E+000	4.07802E-002	3.69609E-001	3.98802E-002	4.68005E+001	11	...........	6.65681E-002	-5.01681E-003	6.05126E-001	5.56781E-001	-2.70064E-002	-3.75040E-002	7.03702E-001	-4.33811E-002	2.46750E-003	-1.85960E-004	2.24304E-002	2.06384E-002	-1.00106E-003	-1.39018E-003	2.60844E-002	-1.60802E-003
	64	64	1.10006E+000	3.69345E-002	0.00000E+000	4.06302E-002	3.68284E-001	4.02730E-002	4.86858E+001	11	...........	6.72386E-002	-5.13125E-003	6.04961E-001	5.56738E-001	-2.70011E-002	-3.75086E-002	7.03756E-001	-4.34958E-002	2.48342E-003	-1.89520E-004	2.23439E-002	2.05628E-002	-9.97272E-004	-1.38536E-003	2.59929E-002	-1.60650E-003
	65	65	1.10008E+000	3.71164E-002	0.00000E+000	4.08310E-002	3.70095E-001	4.02378E-002	4.75104E+001	11	...........	6.71550E-002	-4.95847E-003	6.04725E-001	5.56853E-001	-2.69933E-002	-3.75074E-002	7.03716E-001	-4.34707E-002	2.49255E-003	-1.84041E-004	2.24452E-002	2.06684E-002	-1.00190E-003	-1.39214E-003	2.61194E-002	-1.61348E-003
	66	66	1.10016E+000	3.68241E-002	0.00000E+000	4.05125E-002	3.67191E-001	4.00427E-002	4.79957E+001	11	...........	6.68392E-002	-4.75694E-003	6.04657E-001	5.56869E-001	-2.69844E-002	-3.74906E-002	7.03675E-001	-4.34704E-002	2.46129E-003	-1.75170E-004	2.22659E-002	2.05062E-002	-9.93678E-004	-1.38056E-003	2.59122E-002	-1.60076E-003
	67	67	1.10006E+000	3.65949E-002	0.00000E+000	4.02568E-002	3.64909E-001	3.99266E-002	4.52621E+001	11	...........	6.66382E-002	-4.80458E-003	6.04632E-001	5.56770E-001	-2.69685E-002	-3.74983E-002	7.03691E-001	-4.34803E-002	2.43862E-003	-1.75823E-004	2.21264E-002	2.03749E-002	-9.86908E-004	-1.37225E-003	2.57515E-002	-1.59116E-003
	68	68	1.10008E+000	3.68280E-002	0.00000E+000	4.05135E-002	3.67229E-001	4.02250E-002	4.79172E+001	11	...........	6.71425E-002	-4.83139E-003	6.04666E-001	5.56846E-001	-2.69967E-002	-3.75218E-002	7.03771E-001	-4.33925E-002	2.47272E-003	-1.77930E-004	2.22686E-002	2.05075E-002	-9.94232E-004	-1.38185E-003	2.59185E-002	-1.59806E-003
	69	69	1.10016E+000	3.66044E-002	0.00000E+000	4.02707E-002	3.65004E-001	3.99567E-002	4.74960E+001	11	...........	6.67007E-002	-4.99778E-003	6.04731E-001	5.56870E-001	-2.69807E-002	-3.75342E-002	7.03847E-001	-4.33269E-002	2.44154E-003	-1.82941E-004	2.21358E-002	2.03839E-002	-9.87611E-004	-1.37391E-003	2.57639E-002	-1.58596E-003
	70	70	1.10007E+000	3.63956E-002	0.00000E+000	4.00376E-002	3.62930E-001	4.01486E-002	4.82695E+001	11	...........	6.70007E-002	-4.99903E-003	6.04704E-001	5.56840E-001	-2.69832E-002	-3.75717E-002	7.03864E-001	-4.33376E-002	2.43853E-003	-1.81942E-004	2.20085E-002	2.02665E-002	-9.82069E-004	-1.36744E-003	2.56175E-002	-1.57730E-003
	71	71	1.10008E+000	3.65778E-002	0.00000E+000	4.02383E-002	3.64736E-001	4.00697E-002	4.82498E+001	11	...........	6.68635E-002	-5.05306E-003	6.04876E-001	5.56808E-001	-2.70018E-002	-3.75800E-002	7.03871E-001	-4.33753E-002	2.44572E-003	-1.84830E-004	2.21250E-002	2.03668E-002	-9.87666E-004	-1.37459E-003	2.57460E-002	-1.58657E-003
	72	72	1.10016E+000	3.62884E-002	0.00000E+000	3.99230E-002	3.61860E-001	3.98666E-002	4.50776E+001	11	...........	6.65308E-002	-5.07125E-003	6.04941E-001	5.56845E-001	-2.70333E-002	-3.75725E-002	7.03914E-001	-4.33443E-002	2.41430E-003	-1.84028E-004	2.19523E-002	2.02070E-002	-9.80996E-004	-1.36345E-003	2.55439E-002	-1.57290E-003
	73	73	1.10007E+000	3.60575E-002	0.00000E+000	3.96658E-002	3.59562E-001	3.98773E-002	4.57430E+001	11	...........	6.65494E-002	-5.05056E-003	6.04871E-001	5.56733E-001	-2.70589E-002	-3.75433E-002	7.03875E-001	-4.33711E-002	2.39961E-003	-1.82111E-004	2.18102E-002	2.00744E-002	-9.75677E-004	-1.35372E-003	2.53800E-002	-1.56386E-003
	74	74	1.10008E+000	3.63078E-002	0.00000E+000	3.99413E-002	3.62050E-001	4.01273E-002	4.69294E+001	11	...........	6.69771E-002	-5.02389E-003	6.04815E-001	5.56618E-001	-2.70587E-002	-3.75460E-002	7.03857E-001	-4.33528E-002	2.43179E-003	-1.82406E-004	2.19595E-002	2.02096E-002	-9.82444E-004	-1.36321E-003	2.55555E-002	-1.57404E-003
	75	75	1.10016E+000	3.60859E-002	0.00000E+000	3.97001E-002	3.59842E-001	4.00143E-002	4.76401E+001	11	...........	6.67976E-002	-5.03986E-003	6.04689E-001	5.56553E-001	-2.70572E-002	-3.75564E-002	7.03883E-001	-4.34935E-002	2.41045E-003	-1.81868E-004	2.18207E-002	2.00837E-002	-9.76384E-004	-1.35526E-003	2.54002E-002	-1.56950E-003
	76	76	1.10007E+000	3.58382E-002	0.00000E+000	3.94246E-002	3.57381E-001	4.00042E-002	4.65179E+001	11	...........	6.67635E-002	-4.88722E-003	6.04736E-001	5.56719E-001	-2.70662E-002	-3.76006E-002	7.03912E-001	-4.34876E-002	2.39269E-003	-1.75149E-004	2.16727E-002	1.99518E-002	-9.70007E-004	-1.34754E-003	2.52270E-002	-1.55852E-003
	77	77	1.10007E+000	3.59711E-002	0.00000E+000	3.95709E-002	3.58704E-001	3.98340E-002	4.77015E+001	11	...........	6.64917E-002	-4.92042E-003	6.04732E-001	5.56824E-001	-2.70587E-002	-3.75632E-002	7.03753E-001	-4.34224E-002	2.39178E-003	-1.76993E-004	2.17528E-002	2.00296E-002	-9.73332E-004	-1.35119E-003	2.53147E-002	-1.56195E-003
	78	78	1.10016E+000	3.58777E-002	0.00000E+000	3.94711E-002	3.57775E-001	3.97889E-002	4.71342E+001	11	...........	6.69556E-002	-5.03722E-003	6.04976E-001	5.56756E-001	-2.70631E-002	-3.76143E-002	7.03753E-001	-4.34447E-002	2.40221E-003	-1.80724E-004	2.17052E-002	1.99751E-002	-9.70961E-004	-1.34952E-003	2.52491E-002	-1.55870E-003
	79	79	1.10007E+000	3.55955E-002	0.00000E+000	3.91577E-002	3.54968E-001	3.97775E-002	4.77837E+001	11	...........	6.63794E-002	-4.96042E-003	6.04982E-001	5.56666E-001	-2.70532E-002	-3.75840E-002	7.03811E-001	-4.34500E-002	2.36281E-003	-1.76568E-004	2.15346E-002	1.98148E-002	-9.62971E-004	-1.33782E-003	2.50525E-002	-1.54662E-003
	80	80	1.10007E+000	3.57250E-002	0.00000E+000	3.93001E-002	3.56257E-001	3.99438E-002	4.56804E+001	11	...........	6.66660E-002	-5.04778E-003	6.05149E-001	5.56553E-001	-2.70489E-002	-3.75817E-002	7.03789E-001	-4.34819E-002	2.38164E-003	-1.80332E-004	2.16189E-002	1.98828E-002	-9.66321E-004	-1.34260E-003	2.51428E-002	-1.55339E-003
	81	81	1.10016E+000	3.56231E-002	0.00000E+000	3.91910E-002	3.55240E-001	3.98372E-002	4.56740E+001	11	...........	6.64807E-002	-5.08042E-003	6.05254E-001	5.56541E-001	-2.70374E-002	-3.75843E-002	7.03777E-001	-4.35579E-002	2.36825E-003	-1.80980E-004	2.15610E-002	1.98257E-002	-9.63155E-004	-1.33887E-003	2.50707E-002	-1.55167E-003
	82	82	1.10008E+000	3.53878E-002	0.00000E+000	3.89292E-002	3.52900E-001	3.99139E-002	4.82984E+001	11	...........	6.66222E-002	-5.06333E-003	6.05301E-001	5.56460E-001	-2.70500E-002	-3.75544E-002	7.03819E-001	-4.34797E-002	2.35761E-003	-1.79180E-004	2.14203E-002	1.96919E-002	-9.57240E-004	-1.32897E-003	2.49066E-002	-1.53865E-003
	83	83	1.10007E+000	3.55638E-002	0.00000E+000	3.91227E-002	3.54653E-001	3.98790E-002	4.69162E+001	11	...........	6.65361E-002	-5.09181E-003	6.05271E-001	5.56353E-001	-2.70404E-002	-3.75387E-002	7.03671E-001	-4.35240E-002	2.36627E-003	-1.81084E-004	2.15257E-002	1.97860E-002	-9.61659E-004	-1.33502E-003	2.50252E-002	-1.54788E-003
	84	84	1.10015E+000	3.53481E-002	0.00000E+000	3.88882E-002	3.52508E-001	3.97556E-002	4.75894E+001	11	...........	6.63622E-002	-5.10819E-003	6.05181E-001	5.56204E-001	-2.70322E-002	-3.75631E-002	7.03576E-001	-4.34843E-002	2.34578E-003	-1.80565E-004	2.13920E-002	1.96608E-002	-9.55537E-004	-1.32778E-003	2.48700E-002	-1.53709E-003
	85	85	1.10008E+000	3.50979E-002	0.00000E+000	3.86105E-002	3.50019E-001	3.98864E-002	4.67979E+001	11	...........	6.65581E-002	-5.14583E-003	6.05308E-001	5.56185E-001	-2.70342E-002	-3.75749E-002	7.03635E-001	-4.34072E-002	2.33605E-003	-1.80608E-004	2.12450E-002	1.95209E-002	-9.48842E-004	-1.31880E-003	2.46961E-002	-1.52350E-003
	86	86	1.10007E+000	3.52298E-002	0.00000E+000	3.87553E-002	3.51331E-001	3.94141E-002	4.62979E+001	11	...........	6.57700E-002	-5.15167E-003	6.05456E-001	5.56219E-001	-2.70317E-002	-3.75736E-002	7.03459E-001	-4.33550E-002	2.31706E-003	-1.81492E-004	2.13301E-002	1.95955E-002	-9.52320E-004	-1.32371E-003	2.47827E-002	-1.52739E-003
	87	87	1.10015E+000	3.51839E-002	0.00000E+000	3.87076E-002	3.50876E-001	4.01147E-002	4.84141E+001	11	...........	6.69458E-002	-5.20431E-003	6.05522E-001	5.56331E-001	-2.70669E-002	-3.75918E-002	7.03555E-001	-4.33268E-002	2.35542E-003	-1.83108E-004	2.13047E-002	1.95739E-002	-9.52322E-004	-1.32263E-003	2.47538E-002	-1.52441E-003
	88	88	1.10008E+000	3.48560E-002	0.00000E+000	3.83445E-002	3.47614E-001	3.96983E-002	4.62346E+001	11	...........	6.62485E-002	-5.02833E-003	6.05386E-001	5.56321E-001	-2.70992E-002	-3.75872E-002	7.03582E-001	-4.32633E-002	2.30916E-003	-1.75268E-004	2.11014E-002	1.93911E-002	-9.44569E-004	-1.31014E-003	2.45241E-002	-1.50799E-003
	89	89	1.10007E+000	3.50543E-002	0.00000E+000	3.85622E-002	3.49586E-001	3.97504E-002	4.80875E+001	11	...........	6.63543E-002	-4.91569E-003	6.05255E-001	5.56333E-001	-2.70940E-002	-3.75732E-002	7.03547E-001	-4.33493E-002	2.32600E-003	-1.72316E-004	2.12168E-002	1.95018E-002	-9.49762E-004	-1.31710E-003	2.46624E-002	-1.51958E-003
	90	90	1.10015E+000	3.48994E-002	0.00000E+000	3.83945E-002	3.48047E-001	3.95914E-002	4.61741E+001	11	...........	6.61028E-002	-5.06653E-003	6.05330E-001	5.56300E-001	-2.70642E-002	-3.75590E-002	7.03564E-001	-4.33425E-002	2.30695E-003	-1.76819E-004	2.11256E-002	1.94145E-002	-9.44522E-004	-1.31079E-003	2.45539E-002	-1.51263E-003
	91	91	1.10008E+000	3.46483E-002	0.00000E+000	3.81161E-002	3.45550E-001	3.97745E-002	4.80258E+001	11	...........	6.63858E-002	-5.05875E-003	6.05268E-001	5.56213E-001	-2.70704E-002	-3.75114E-002	7.03674E-001	-4.32737E-002	2.30016E-003	-1.75277E-004	2.09715E-002	1.92719E-002	-9.37944E-004	-1.29971E-003	2.43811E-002	-1.49936E-003
	92	92	1.10007E+000	3.48172E-002	0.00000E+000	3.83014E-002	3.47230E-001	3.97577E-002	4.83019E+001	11	...........	6.63721E-002	-5.07431E-003	6.05322E-001	5.56309E-001	-2.70582E-002	-3.74889E-002	7.03787E-001	-4.32271E-002	2.31089E-003	-1.76673E-004	2.10757E-002	1.93692E-002	-9.42092E-004	-1.30526E-003	2.45039E-002	-1.50505E-003
	93	93	1.10015E+000	3.46263E-002	0.00000E+000	3.80940E-002	3.45331E-001	3.95722E-002	4.63250E+001	11	...........	6.60175E-002	-5.02472E-003	6.05224E-001	5.56570E-001	-2.70554E-002	-3.74715E-002	7.03726E-001	-4.33564E-002	2.28594E-003	-1.73988E-004	2.09567E-002	1.92720E-002	-9.36829E-004	-1.29750E-003	2.43674E-002	-1.50127E-003
	94	94	1.10009E+000	3.43726E-002	0.00000E+000	3.78128E-002	3.42806E-001	3.94574E-002	4.49227E+001	11	...........	6.58489E-002	-5.00139E-003	6.05070E-001	5.56683E-001	-2.70625E-002	-3.74451E-002	7.03705E-001	-4.32590E-002	2.26339E-003	-1.71910E-004	2.07978E-002	1.91346E-002	-9.30207E-004	-1.28708E-003	2.41881E-002	-1.48692E-003
	95	95	1.10007E+000	3.45907E-002	0.00000E+000	3.80521E-002	3.44981E-001	3.98285E-002	4.85806E+001	11	...........	6.64699E-002	-5.07681E-003	6.05204E-001	5.56696E-001	-2.70565E-002	-3.74293E-002	7.03637E-001	-4.31979E-002	2.29924E-003	-1.75610E-004	2.09344E-002	1.92565E-002	-9.35903E-004	-1.29470E-003	2.43393E-002	-1.49424E-003
	96	96	1.10015E+000	3.44388E-002	0.00000E+000	3.78877E-002	3.43469E-001	3.97146E-002	4.69351E+001	11	...........	6.62761E-002	-5.14958E-003	6.05337E-001	5.56703E-001	-2.70269E-002	-3.74531E-002	7.03661E-001	-4.32979E-002	2.28247E-003	-1.77345E-004	2.08471E-002	1.91722E-002	-9.30775E-004	-1.28984E-003	2.42332E-002	-1.49113E-003
	97	97	1.10009E+000	3.41086E-002	0.00000E+000	3.75225E-002	3.40185E-001	3.95327E-002	4.69515E+001	11	...........	6.59806E-002	-5.11597E-003	6.05336E-001	5.56784E-001	-2.70112E-002	-3.74681E-002	7.03657E-001	-4.33754E-002	2.25050E-003	-1.74498E-004	2.06471E-002	1.89911E-002	-9.21315E-004	-1.27798E-003	2.40007E-002	-1.47947E-003
	98	98	1.10007E+000	3.42993E-002	0.00000E+000	3.77315E-002	3.42079E-001	3.95092E-002	4.71737E+001	11	...........	6.59393E-002	-5.06986E-003	6.05308E-001	5.56833E-001	-2.70206E-002	-3.74694E-002	7.03644E-001	-4.33925E-002	2.26167E-003	-1.73893E-004	2.07616E-002	1.90990E-002	-9.26785E-004	-1.28517E-003	2.41345E-002	-1.48833E-003
	99	99	1.10014E+000	3.42160E-002	0.00000E+000	3.76425E-002	3.41253E-001	3.95867E-002	4.65992E+001	11	...........	6.60785E-002	-5.04389E-003	6.05320E-001	5.56939E-001	-2.70549E-002	-3.74807E-002	7.03701E-001	-4.35151E-002	2.26094E-003	-1.72582E-004	2.07116E-002	1.90562E-002	-9.25709E-004	-1.28244E-003	2.40778E-002	-1.48891E-003
	100	100	1.10009E+000	3.39466E-002	0.00000E+000	3.73445E-002	3.38575E-001	3.95698E-002	4.77095E+001	11	...........	6.60511E-002	-5.01667E-003	6.05127E-001	5.57036E-001	-2.70587E-002	-3.74608E-002	7.03624E-001	-4.35189E-002	2.24221E-003	-1.70299E-004	2.05420E-002	1.89095E-002	-9.18554E-004	-1.27167E-003	2.38857E-002	-1.47732E-003
	101	101	1.10007E+000	3.40657E-002	0.00000E+000	3.74746E-002	3.39760E-001	3.94650E-002	4.73651E+001	11	...........	6.58825E-002	-4.87611E-003	6.05209E-001	5.56991E-001	-2.70556E-002	-3.75140E-002	7.03558E-001	-4.34487E-002	2.24433E-003	-1.66108E-004	2.06169E-002	1.89743E-002	-9.21667E-004	-1.27794E-003	2.39672E-002	-1.48011E-003
	102	102	1.10014E+000	3.40006E-002	0.00000E+000	3.74054E-002	3.39110E-001	3.95813E-002	4.69678E+001	11	...........	6.60604E-002	-4.87306E-003	6.05270E-001	5.57012E-001	-2.70499E-002	-3.75314E-002	7.03574E-001	-4.33425E-002	2.24609E-003	-1.65687E-004	2.05795E-002	1.89387E-002	-9.19711E-004	-1.27609E-003	2.39219E-002	-1.47367E-003
	103	103	1.10010E+000	3.36337E-002	0.00000E+000	3.70003E-002	3.35464E-001	3.93612E-002	4.62647E+001	11	...........	6.57072E-002	-4.95903E-003	6.05274E-001	5.56995E-001	-2.70565E-002	-3.75268E-002	7.03524E-001	-4.33296E-002	2.20998E-003	-1.66790E-004	2.03576E-002	1.87338E-002	-9.10010E-004	-1.26216E-003	2.36621E-002	-1.45733E-003
	104	104	1.10007E+000	3.37809E-002	0.00000E+000	3.71612E-002	3.36927E-001	3.94369E-002	4.69042E+001	11	...........	6.58376E-002	-5.03375E-003	6.05194E-001	5.57021E-001	-2.70403E-002	-3.75165E-002	7.03442E-001	-4.33540E-002	2.22406E-003	-1.70045E-004	2.04440E-002	1.88167E-002	-9.13445E-004	-1.26734E-003	2.37629E-002	-1.46454E-003
	105	105	1.10014E+000	3.38173E-002	0.00000E+000	3.72036E-002	3.37286E-001	3.95383E-002	4.78363E+001	11	...........	6.59729E-002	-5.04444E-003	6.05279E-001	5.56989E-001	-2.70331E-002	-3.75182E-002	7.03585E-001	-4.33671E-002	2.23102E-003	-1.70589E-004	2.04689E-002	1.88358E-002	-9.14184E-004	-1.26876E-003	2.37933E-002	-1.46656E-003
	106	106	1.10010E+000	3.34436E-002	0.00000E+000	3.67914E-002	3.33573E-001	3.96535E-002	4.65937E+001	11	...........	6.61694E-002	-5.13139E-003	6.05358E-001	5.56959E-001	-2.70331E-002	-3.75099E-002	7.03632E-001	-4.33012E-002	2.21295E-003	-1.71612E-004	2.02454E-002	1.86267E-002	-9.04084E-004	-1.25447E-003	2.35320E-002	-1.44815E-003
	107	107	1.10006E+000	3.35565E-002	0.00000E+000	3.69144E-002	3.34696E-001	3.93258E-002	4.77416E+001	11	...........	6.56275E-002	-4.99514E-003	6.05368E-001	5.56859E-001	-2.70231E-002	-3.75133E-002	7.03564E-001	-4.33329E-002	2.20223E-003	-1.67620E-004	2.03141E-002	1.86863E-002	-9.06800E-004	-1.25882E-003	2.36092E-002	-1.45410E-003
	108	108	1.10013E+000	3.35294E-002	0.00000E+000	3.68868E-002	3.34427E-001	3.95728E-002	4.62209E+001	11	...........	6.60537E-002	-5.02097E-003	6.05555E-001	5.56801E-001	-2.70221E-002	-3.74833E-002	7.03576E-001	-4.33276E-002	2.21474E-003	-1.68350E-004	2.03039E-002	1.86692E-002	-9.06033E-004	-1.25679E-003	2.35905E-002	-1.45275E-003
	109	109	1.10010E+000	3.32292E-002	0.00000E+000	3.65556E-002	3.31442E-001	3.93824E-002	4.75025E+001	11	...........	6.57162E-002	-4.91167E-003	6.05497E-001	5.56832E-001	-2.70262E-002	-3.74471E-002	7.03499E-001	-4.33485E-002	2.18370E-003	-1.63211E-004	2.01202E-002	1.85031E-002	-8.98061E-004	-1.24434E-003	2.33767E-002	-1.44043E-003
	110	110	1.10006E+000	3.33845E-002	0.00000E+000	3.67251E-002	3.32985E-001	3.93847E-002	4.82537E+001	11	...........	6.57360E-002	-4.90292E-003	6.05472E-001	5.56961E-001	-2.70383E-002	-3.74579E-002	7.03547E-001	-4.34217E-002	2.19456E-003	-1.63681E-004	2.02134E-002	1.85939E-002	-9.02662E-004	-1.25051E-003	2.34876E-002	-1.44961E-003
	111	111	1.10013E+000	3.32963E-002	0.00000E+000	3.66304E-002	3.32109E-001	3.94716E-002	4.60379E+001	11	...........	6.58693E-002	-4.94389E-003	6.05660E-001	5.56978E-001	-2.70168E-002	-3.74822E-002	7.03516E-001	-4.33143E-002	2.19321E-003	-1.64613E-004	2.01662E-002	1.85453E-002	-8.99560E-004	-1.24802E-003	2.34245E-002	-1.44221E-003
	112	112	1.10011E+000	3.29932E-002	0.00000E+000	3.62961E-002	3.29098E-001	3.92866E-002	4.70289E+001	11	...........	6.55849E-002	-5.04389E-003	6.05477E-001	5.56846E-001	-2.69660E-002	-3.74701E-002	7.03353E-001	-4.33928E-002	2.16386E-003	-1.66414E-004	1.99766E-002	1.83721E-002	-8.89694E-004	-1.23626E-003	2.32059E-002	-1.43167E-003
	113	113	1.10006E+000	3.31819E-002	0.00000E+000	3.65022E-002	3.30972E-001	3.94271E-002	4.75269E+001	11	...........	6.58161E-002	-5.09694E-003	6.05434E-001	5.56835E-001	-2.69606E-002	-3.74692E-002	7.03404E-001	-4.36292E-002	2.18390E-003	-1.69126E-004	2.00894E-002	1.84768E-002	-8.94602E-004	-1.24330E-003	2.33402E-002	-1.44770E-003
	114	114	1.10013E+000	3.31051E-002	0.00000E+000	3.64198E-002	3.30210E-001	3.94142E-002	4.86904E+001	11	...........	6.57796E-002	-5.12986E-003	6.05445E-001	5.56793E-001	-2.69912E-002	-3.74887E-002	7.03517E-001	-4.35407E-002	2.17764E-003	-1.69824E-004	2.00433E-002	1.84327E-002	-8.93547E-004	-1.24107E-003	2.32900E-002	-1.44142E-003
	115	115	1.10011E+000	3.27157E-002	0.00000E+000	3.59910E-002	3.26339E-001	3.91961E-002	4.55672E+001	11	...........	6.54160E-002	-5.15958E-003	6.05367E-001	5.56673E-001	-2.69897E-002	-3.75292E-002	7.03503E-001	-4.34193E-002	2.14013E-003	-1.68800E-004	1.98050E-002	1.82120E-002	-8.82989E-004	-1.22779E-003	2.30156E-002	-1.42049E-003
	116	116	1.10006E+000	3.29316E-002	0.00000E+000	3.62268E-002	3.28484E-001	3.94183E-002	4.80634E+001	11	...........	6.57925E-002	-4.99375E-003	6.05357E-001	5.56671E-001	-2.69968E-002	-3.75428E-002	7.03479E-001	-4.35424E-002	2.16665E-003	-1.64452E-004	1.99354E-002	1.83320E-002	-8.89047E-004	-1.23634E-003	2.31667E-002	-1.43392E-003
	117	117	1.10013E+000	3.29046E-002	0.00000E+000	3.61992E-002	3.28218E-001	3.93444E-002	4.67435E+001	11	...........	6.56482E-002	-4.94764E-003	6.05511E-001	5.56680E-001	-2.70161E-002	-3.75553E-002	7.03416E-001	-4.35608E-002	2.16013E-003	-1.62800E-004	1.99241E-002	1.83173E-002	-8.88954E-004	-1.23574E-003	2.31456E-002	-1.43335E-003
	118	118	1.10011E+000	3.25305E-002	0.00000E+000	3.57873E-002	3.24496E-001	3.91650E-002	4.79593E+001	11	...........	6.53742E-002	-4.96778E-003	6.05455E-001	5.56894E-001	-2.70158E-002	-3.75335E-002	7.03364E-001	-4.35332E-002	2.12665E-003	-1.61604E-004	1.96958E-002	1.81160E-002	-8.78838E-004	-1.22098E-003	2.28808E-002	-1.41616E-003
	119	119	1.10006E+000	3.26761E-002	0.00000E+000	3.59457E-002	3.25939E-001	3.93265E-002	4.51304E+001	11	...........	6.56287E-002	-5.07764E-003	6.05635E-001	5.56939E-001	-2.70069E-002	-3.75314E-002	7.03326E-001	-4.35372E-002	2.14449E-003	-1.65917E-004	1.97898E-002	1.81986E-002	-8.82481E-004	-1.22638E-003	2.29819E-002	-1.42263E-003
	120	120	1.10012E+000	3.26492E-002	0.00000E+000	3.59181E-002	3.25671E-001	3.90397E-002	4.74168E+001	11	...........	6.51711E-002	-4.88139E-003	6.05622E-001	5.57015E-001	-2.69987E-002	-3.75124E-002	7.03342E-001	-4.34943E-002	2.12778E-003	-1.59373E-004	1.97731E-002	1.81861E-002	-8.81488E-004	-1.22475E-003	2.29636E-002	-1.42005E-003
	121	121	1.10012E+000	3.23379E-002	0.00000E+000	3.55755E-002	3.22579E-001	3.94204E-002	4.79717E+001	11	...........	6.58010E-002	-5.01347E-003	6.05666E-001	5.57140E-001	-2.70075E-002	-3.74860E-002	7.03372E-001	-4.35396E-002	2.12786E-003	-1.62125E-004	1.95859E-002	1.80167E-002	-8.73365E-004	-1.21222E-003	2.27455E-002	-1.40798E-003
	122	122	1.10006E+000	3.24465E-002	0.00000E+000	3.56930E-002	3.23655E-001	3.90684E-002	4.67524E+001	11	...........	6.52053E-002	-5.13319E-003	6.05543E-001	5.57289E-001	-2.69981E-002	-3.74718E-002	7.03339E-001	-4.34553E-002	2.11568E-003	-1.66554E-004	1.96477E-002	1.80821E-002	-8.75991E-004	-1.21583E-003	2.28208E-002	-1.40997E-003
	123	123	1.10012E+000	3.24190E-002	0.00000E+000	3.56649E-002	3.23383E-001	3.93643E-002	4.63782E+001	11	...........	6.56918E-002	-5.14806E-003	6.05496E-001	5.57355E-001	-2.70079E-002	-3.74590E-002	7.03278E-001	-4.33457E-002	2.12966E-003	-1.66895E-004	1.96296E-002	1.80689E-002	-8.75570E-004	-1.21438E-003	2.27996E-002	-1.40522E-003
	124	124	1.10012E+000	3.20720E-002	0.00000E+000	3.52832E-002	3.19933E-001	3.90617E-002	4.54880E+001	11	...........	6.52000E-002	-5.04708E-003	6.05458E-001	5.57381E-001	-2.69989E-002	-3.74733E-002	7.03262E-001	-4.35112E-002	2.09110E-003	-1.61870E-004	1.94183E-002	1.78763E-002	-8.65909E-004	-1.20185E-003	2.25550E-002	-1.39549E-003
	125	125	1.10006E+000	3.22592E-002	0.00000E+000	3.54871E-002	3.21794E-001	3.93173E-002	4.74655E+001	11	...........	6.56326E-002	-5.05083E-003	6.05292E-001	5.57478E-001	-2.70004E-002	-3.75167E-002	7.03425E-001	-4.34329E-002	2.11726E-003	-1.62936E-004	1.95263E-002	1.79838E-002	-8.71013E-004	-1.21026E-003	2.26920E-002	-1.40111E-003
	126	126	1.10012E+000	3.22148E-002	0.00000E+000	3.54401E-002	3.21356E-001	3.91038E-002	4.73421E+001	11	...........	6.52675E-002	-5.19306E-003	6.05061E-001	5.57376E-001	-2.70022E-002	-3.75335E-002	7.03345E-001	-4.34721E-002	2.10258E-003	-1.67293E-004	1.94919E-002	1.79558E-002	-8.69871E-004	-1.20913E-003	2.26581E-002	-1.40044E-003
	127	127	1.10013E+000	3.18891E-002	0.00000E+000	3.50821E-002	3.18115E-001	3.93563E-002	4.67068E+001	11	...........	6.56746E-002	-5.13653E-003	6.04942E-001	5.57413E-001	-2.69997E-002	-3.75362E-002	7.03441E-001	-4.35283E-002	2.09430E-003	-1.63799E-004	1.92911E-002	1.77754E-002	-8.60997E-004	-1.19700E-003	2.24321E-002	-1.38808E-003
	128	128	1.10006E+000	3.19476E-002	0.00000E+000	3.51442E-002	3.18698E-001	3.90047E-002	4.49086E+001	11	...........	6.51083E-002	-5.13333E-003	6.04799E-001	5.57443E-001	-2.70258E-002	-3.75337E-002	7.03474E-001	-4.36657E-002	2.08005E-003	-1.63998E-004	1.93219E-002	1.78090E-002	-8.63410E-004	-1.19911E-003	2.24743E-002	-1.39501E-003
	129	129	1.10011E+000	3.20045E-002	0.00000E+000	3.52085E-002	3.19263E-001	3.91962E-002	4.62522E+001	11	...........	6.54207E-002	-5.11444E-003	6.04872E-001	5.57503E-001	-2.70265E-002	-3.75406E-002	7.03438E-001	-4.34735E-002	2.09375E-003	-1.63685E-004	1.93586E-002	1.78426E-002	-8.64969E-004	-1.20146E-003	2.25131E-002	-1.39134E-003
	130	130	1.10013E+000	3.16636E-002	0.00000E+000	3.48342E-002	3.15873E-001	3.90849E-002	4.79236E+001	11	...........	6.52418E-002	-5.11861E-003	6.04831E-001	5.57583E-001	-2.70303E-002	-3.75583E-002	7.03341E-001	-4.33890E-002	2.06579E-003	-1.62074E-004	1.91511E-002	1.76551E-002	-8.55876E-004	-1.18923E-003	2.22703E-002	-1.37385E-003
	131	131	1.10006E+000	3.17791E-002	0.00000E+000	3.49589E-002	3.17021E-001	3.92320E-002	4.63812E+001	11	...........	6.54732E-002	-5.10625E-003	6.04911E-001	5.57606E-001	-2.70196E-002	-3.75692E-002	7.03454E-001	-4.32718E-002	2.08068E-003	-1.62272E-004	1.92235E-002	1.77202E-002	-8.58659E-004	-1.19392E-003	2.23551E-002	-1.37514E-003
	132	132	1.10011E+000	3.17786E-002	0.00000E+000	3.49600E-002	3.17016E-001	3.91154E-002	4.79513E+001	11	...........	6.52840E-002	-4.97819E-003	6.04780E-001	5.57579E-001	-2.69851E-002	-3.75687E-002	7.03392E-001	-4.33274E-002	2.07464E-003	-1.58200E-004	1.92191E-002	1.77191E-002	-8.57550E-004	-1.19388E-003	2.23528E-002	-1.37688E-003
	133	133	1.10013E+000	3.14381E-002	0.00000E+000	3.45862E-002	3.13632E-001	3.89765E-002	4.62129E+001	11	...........	6.50625E-002	-5.07431E-003	6.04700E-001	5.57820E-001	-2.69710E-002	-3.75612E-002	7.03436E-001	-4.33799E-002	2.04544E-003	-1.59527E-004	1.90106E-002	1.75368E-002	-8.47917E-004	-1.18086E-003	2.21147E-002	-1.36378E-003
	134	134	1.10006E+000	3.16124E-002	0.00000E+000	3.47755E-002	3.15362E-001	3.91394E-002	4.70688E+001	11	...........	6.53211E-002	-5.04319E-003	6.04694E-001	5.57858E-001	-2.69854E-002	-3.75725E-002	7.03401E-001	-4.34939E-002	2.06496E-003	-1.59427E-004	1.91158E-002	1.76352E-002	-8.53074E-004	-1.18776E-003	2.22362E-002	-1.37495E-003
	135	135	1.10011E+000	3.16144E-002	0.00000E+000	3.47792E-002	3.15383E-001	3.89875E-002	4.72715E+001	11	...........	6.50717E-002	-4.95667E-003	6.04857E-001	5.57911E-001	-2.69932E-002	-3.75567E-002	7.03391E-001	-4.34082E-002	2.05720E-003	-1.56702E-004	1.91222E-002	1.76380E-002	-8.53373E-004	-1.18733E-003	2.22373E-002	-1.37232E-003
	136	136	1.10014E+000	3.12278E-002	0.00000E+000	3.43548E-002	3.11537E-001	3.89256E-002	4.66409E+001	11	...........	6.49615E-002	-5.03194E-003	6.04931E-001	5.57898E-001	-2.69942E-002	-3.75264E-002	7.03497E-001	-4.33532E-002	2.02860E-003	-1.57136E-004	1.88906E-002	1.74219E-002	-8.42968E-004	-1.17187E-003	2.19687E-002	-1.35382E-003
	137	137	1.10006E+000	3.13391E-002	0.00000E+000	3.44748E-002	3.12644E-001	3.91057E-002	4.66339E+001	11	...........	6.52640E-002	-5.00181E-003	6.04879E-001	5.57870E-001	-2.70068E-002	-3.75372E-002	7.03558E-001	-4.35601E-002	2.04532E-003	-1.56752E-004	1.89564E-002	1.74831E-002	-8.46369E-004	-1.17638E-003	2.20489E-002	-1.36514E-003
	138	138	1.10011E+000	3.13642E-002	0.00000E+000	3.45040E-002	3.12898E-001	3.88917E-002	4.71009E+001	11	...........	6.49185E-002	-5.00764E-003	6.04760E-001	5.57881E-001	-2.70007E-002	-3.75444E-002	7.03400E-001	-4.35029E-002	2.03611E-003	-1.57061E-004	1.89678E-002	1.74975E-002	-8.46855E-004	-1.17755E-003	2.20616E-002	-1.36443E-003
	139	139	1.10014E+000	3.10511E-002	0.00000E+000	3.41605E-002	3.09780E-001	3.91037E-002	4.78195E+001	11	...........	6.52528E-002	-4.99167E-003	6.04738E-001	5.57743E-001	-2.70500E-002	-3.75440E-002	7.03459E-001	-4.34489E-002	2.02617E-003	-1.54997E-004	1.87778E-002	1.73185E-002	-8.39931E-004	-1.16578E-003	2.18431E-002	-1.34913E-003
	140	140	1.10005E+000	3.11122E-002	0.00000E+000	3.42251E-002	3.10389E-001	3.87882E-002	4.69168E+001	11	...........	6.47449E-002	-5.00903E-003	6.04729E-001	5.57495E-001	-2.70649E-002	-3.75360E-002	7.03547E-001	-4.33918E-002	2.01436E-003	-1.55842E-004	1.88145E-002	1.73449E-002	-8.42047E-004	-1.16783E-003	2.18889E-002	-1.35001E-003
	141	141	1.10011E+000	3.11413E-002	0.00000E+000	3.42587E-002	3.10677E-001	3.90477E-002	4.55194E+001	11	...........	6.51717E-002	-4.88528E-003	6.04790E-001	5.57464E-001	-2.70647E-002	-3.75290E-002	7.03511E-001	-4.33796E-002	2.02953E-003	-1.52134E-004	1.88339E-002	1.73601E-002	-8.42830E-004	-1.16870E-003	2.19082E-002	-1.35090E-003
	142	142	1.10014E+000	3.08306E-002	0.00000E+000	3.39180E-002	3.07591E-001	3.88028E-002	4.62119E+001	11	...........	6.47499E-002	-4.87681E-003	6.04783E-001	5.57554E-001	-2.70942E-002	-3.75235E-002	7.03570E-001	-4.33864E-002	1.99627E-003	-1.50355E-004	1.86458E-002	1.71897E-002	-8.35328E-004	-1.15687E-003	2.16915E-002	-1.33763E-003
	143	143	1.10005E+000	3.09533E-002	0.00000E+000	3.40503E-002	3.08810E-001	3.90772E-002	4.77411E+001	11	...........	6.52254E-002	-5.15736E-003	6.04762E-001	5.57498E-001	-2.70850E-002	-3.75092E-002	7.03504E-001	-4.34465E-002	2.01894E-003	-1.59637E-004	1.87194E-002	1.72564E-002	-8.38370E-004	-1.16103E-003	2.17758E-002	-1.34481E-003
	144	144	1.10010E+000	3.09445E-002	0.00000E+000	3.40421E-002	3.08726E-001	3.88512E-002	4.78595E+001	11	...........	6.48458E-002	-5.20361E-003	6.04861E-001	5.57597E-001	-2.70706E-002	-3.75011E-002	7.03632E-001	-4.34415E-002	2.00662E-003	-1.61023E-004	1.87171E-002	1.72546E-002	-8.37684E-004	-1.16045E-003	2.17735E-002	-1.34427E-003
	145	145	1.10014E+000	3.06170E-002	0.00000E+000	3.36832E-002	3.05469E-001	3.88721E-002	4.67347E+001	11	...........	6.48735E-002	-5.10764E-003	6.04923E-001	5.57785E-001	-2.70475E-002	-3.75278E-002	7.03742E-001	-4.34179E-002	1.98623E-003	-1.56381E-004	1.85210E-002	1.70777E-002	-8.28114E-004	-1.14899E-003	2.15465E-002	-1.32933E-003
	146	146	1.10006E+000	3.07009E-002	0.00000E+000	3.37727E-002	3.06300E-001	3.89796E-002	4.45636E+001	11	...........	6.50485E-002	-5.02958E-003	6.04824E-001	5.57856E-001	-2.70449E-002	-3.75186E-002	7.03584E-001	-4.33915E-002	1.99705E-003	-1.54413E-004	1.85686E-002	1.71267E-002	-8.30301E-004	-1.15185E-003	2.16007E-002	-1.33216E-003
	147	147	1.10010E+000	3.07112E-002	0.00000E+000	3.37854E-002	3.06405E-001	3.86595E-002	4.74369E+001	11	...........	6.45357E-002	-4.87458E-003	6.04922E-001	5.57979E-001	-2.70624E-002	-3.75251E-002	7.03502E-001	-4.33474E-002	1.98197E-003	-1.49704E-004	1.85779E-002	1.71362E-002	-8.31118E-004	-1.15244E-003	2.16054E-002	-1.33125E-003
	148	148	1.10015E+000	3.04246E-002	0.00000E+000	3.34715E-002	3.03555E-001	3.90805E-002	4.65014E+001	11	...........	6.52340E-002	-4.94361E-003	6.05088E-001	5.58006E-001	-2.70764E-002	-3.75579E-002	7.03647E-001	-4.33544E-002	1.98472E-003	-1.50407E-004	1.84095E-002	1.69771E-002	-8.23787E-004	-1.14268E-003	2.14082E-002	-1.31904E-003
	149	149	1.10005E+000	3.04698E-002	0.00000E+000	3.35184E-002	3.04005E-001	3.87510E-002	4.72462E+001	11	...........	6.46789E-002	-4.87736E-003	6.04873E-001	5.57976E-001	-2.70346E-002	-3.75390E-002	7.03557E-001	-4.33937E-002	1.97075E-003	-1.48612E-004	1.84303E-002	1.70014E-002	-8.23738E-004	-1.14381E-003	2.14372E-002	-1.32220E-003
	150	150	1.10010E+000	3.05217E-002	0.00000E+000	3.35769E-002	3.04521E-001	3.88122E-002	4.76730E+001	11	...........	6.47760E-002	-4.92639E-003	6.04895E-001	5.58041E-001	-2.70349E-002	-3.75354E-002	7.03515E-001	-4.33283E-002	1.97707E-003	-1.50362E-004	1.84624E-002	1.70324E-002	-8.25150E-004	-1.14565E-003	2.14725E-002	-1.32245E-003
	151	151	1.10015E+000	3.02357E-002	0.00000E+000	3.32638E-002	3.01677E-001	3.88463E-002	4.55417E+001	11	...........	6.48354E-002	-4.89778E-003	6.04922E-001	5.58096E-001	-2.70272E-002	-3.75381E-002	7.03666E-001	-4.32929E-002	1.96034E-003	-1.48088E-004	1.82902E-002	1.68744E-002	-8.17187E-004	-1.13499E-003	2.12758E-002	-1.30899E-003
	152	152	1.10005E+000	3.03098E-002	0.00000E+000	3.33424E-002	3.02414E-001	3.87163E-002	4.68943E+001	11	...........	6.46440E-002	-4.87722E-003	6.04683E-001	5.58115E-001	-2.70404E-002	-3.75457E-002	7.03679E-001	-4.34622E-002	1.95935E-003	-1.47827E-004	1.83278E-002	1.69163E-002	-8.19589E-004	-1.13800E-003	2.13284E-002	-1.31733E-003
	153	153	1.10010E+000	3.03300E-002	0.00000E+000	3.33659E-002	3.02615E-001	3.86041E-002	4.73013E+001	11	...........	6.44300E-002	-4.96708E-003	6.04400E-001	5.58198E-001	-2.70346E-002	-3.75676E-002	7.03575E-001	-4.34674E-002	1.95416E-003	-1.50652E-004	1.83315E-002	1.69302E-002	-8.19959E-004	-1.13943E-003	2.13394E-002	-1.31837E-003
	154	154	1.10015E+000	3.00513E-002	0.00000E+000	3.30610E-002	2.99850E-001	3.90208E-002	4.80605E+001	11	...........	6.51296E-002	-5.16583E-003	6.04453E-001	5.58316E-001	-2.70454E-002	-3.75864E-002	7.03576E-001	-4.34185E-002	1.95723E-003	-1.55240E-004	1.81646E-002	1.67781E-002	-8.12749E-004	-1.12952E-003	2.11434E-002	-1.30478E-003
	155	155	1.10006E+000	3.00640E-002	0.00000E+000	3.30721E-002	2.99972E-001	3.84678E-002	4.65335E+001	11	...........	6.47601E-002	-5.20333E-003	6.04546E-001	5.58284E-001	-2.70839E-002	-3.75700E-002	7.03545E-001	-4.36182E-002	1.94695E-003	-1.56433E-004	1.81751E-002	1.67843E-002	-8.14251E-004	-1.12951E-003	2.11514E-002	-1.31134E-003
	156	156	1.10009E+000	3.00954E-002	0.00000E+000	3.31078E-002	3.00283E-001	3.84002E-002	4.56690E+001	11	...........	6.40624E-002	-5.12625E-003	6.04573E-001	5.58326E-001	-2.70960E-002	-3.75718E-002	7.03584E-001	-4.35583E-002	1.92798E-003	-1.54277E-004	1.81949E-002	1.68031E-002	-8.15465E-004	-1.13074E-003	2.11747E-002	-1.31091E-003
	157	157	1.10015E+000	2.98516E-002	0.00000E+000	3.28414E-002	2.97864E-001	3.89706E-002	4.76210E+001	11	...........	6.50507E-002	-5.17708E-003	6.04734E-001	5.58232E-001	-2.70989E-002	-3.75576E-002	7.03602E-001	-4.34408E-002	1.94187E-003	-1.54544E-004	1.80523E-002	1.66641E-002	-8.08946E-004	-1.12116E-003	2.10037E-002	-1.29678E-003
	158	158	1.10005E+000	2.98489E-002	0.00000E+000	3.28354E-002	2.97836E-001	3.85495E-002	4.69814E+001	11	...........	6.43557E-002	-5.13903E-003	6.04821E-001	5.58130E-001	-2.70842E-002	-3.75839E-002	7.03707E-001	-4.35153E-002	1.92095E-003	-1.53394E-004	1.80532E-002	1.66596E-002	-8.08432E-004	-1.12184E-003	2.10049E-002	-1.29888E-003
	159	159	1.10010E+000	2.99408E-002	0.00000E+000	3.29378E-002	2.98750E-001	3.88617E-002	4.79519E+001	11	...........	6.48657E-002	-5.01333E-003	6.04975E-001	5.58074E-001	-2.70703E-002	-3.75756E-002	7.03806E-001	-4.35775E-002	1.94213E-003	-1.50103E-004	1.81135E-002	1.67092E-002	-8.10506E-004	-1.12504E-003	2.10725E-002	-1.30475E-003
	160	160	1.10015E+000	2.96265E-002	0.00000E+000	3.25937E-002	2.95624E-001	3.85864E-002	4.60076E+001	11	...........	6.43978E-002	-4.90319E-003	6.04931E-001	5.58042E-001	-2.70462E-002	-3.75814E-002	7.03771E-001	-4.35335E-002	1.90788E-003	-1.45264E-004	1.79220E-002	1.65328E-002	-8.01286E-004	-1.11341E-003	2.08503E-002	-1.28974E-003
	161	161	1.10005E+000	2.96824E-002	0.00000E+000	3.26523E-002	2.96181E-001	3.86084E-002	4.75378E+001	11	...........	6.44653E-002	-5.05931E-003	6.04759E-001	5.58186E-001	-2.70589E-002	-3.75503E-002	7.03629E-001	-4.36914E-002	1.91349E-003	-1.50172E-004	1.79507E-002	1.65683E-002	-8.03174E-004	-1.11458E-003	2.08854E-002	-1.29687E-003
	162	162	1.10009E+000	2.97355E-002	0.00000E+000	3.27119E-002	2.96712E-001	3.85009E-002	4.71503E+001	11	...........	6.42800E-002	-5.14167E-003	6.04719E-001	5.58220E-001	-2.70522E-002	-3.75535E-002	7.03627E-001	-4.36503E-002	1.91140E-003	-1.52890E-004	1.79816E-002	1.65990E-002	-8.04413E-004	-1.11667E-003	2.09227E-002	-1.29796E-003
	163	163	1.10015E+000	2.94745E-002	0.00000E+000	3.24265E-002	2.94113E-001	3.88210E-002	4.76616E+001	11	...........	6.48043E-002	-5.02208E-003	6.04733E-001	5.58297E-001	-2.70739E-002	-3.75607E-002	7.03713E-001	-4.34564E-002	1.91008E-003	-1.48023E-004	1.78242E-002	1.64555E-002	-7.97990E-004	-1.10708E-003	2.07416E-002	-1.28086E-003
	164	164	1.10005E+000	2.94530E-002	0.00000E+000	3.23999E-002	2.93901E-001	3.83446E-002	4.58429E+001	11	...........	6.40088E-002	-4.91014E-003	6.04850E-001	5.58366E-001	-2.70699E-002	-3.75672E-002	7.03663E-001	-4.34400E-002	1.88525E-003	-1.44618E-004	1.78146E-002	1.64455E-002	-7.97288E-004	-1.10647E-003	2.07250E-002	-1.27944E-003
	165	165	1.10009E+000	2.95301E-002	0.00000E+000	3.24858E-002	2.94666E-001	3.87355E-002	4.73892E+001	11	...........	6.46578E-002	-4.98111E-003	6.04789E-001	5.58231E-001	-2.70625E-002	-3.75597E-002	7.03674E-001	-4.34601E-002	1.90935E-003	-1.47093E-004	1.78594E-002	1.64846E-002	-7.99157E-004	-1.10914E-003	2.07795E-002	-1.28338E-003
	166	166	1.10015E+000	2.93133E-002	0.00000E+000	3.22491E-002	2.92514E-001	3.86896E-002	4.77270E+001	11	...........	6.45674E-002	-5.11792E-003	6.04613E-001	5.58188E-001	-2.70403E-002	-3.75575E-002	7.03738E-001	-4.35918E-002	1.89268E-003	-1.50023E-004	1.77232E-002	1.63623E-002	-7.92639E-004	-1.10093E-003	2.06289E-002	-1.27782E-003
	167	167	1.10006E+000	2.92580E-002	0.00000E+000	3.21855E-002	2.91964E-001	3.83348E-002	4.73577E+001	11	...........	6.39901E-002	-5.07972E-003	6.04538E-001	5.58155E-001	-2.70583E-002	-3.75815E-002	7.03831E-001	-4.34446E-002	1.87222E-003	-1.48623E-004	1.76876E-002	1.63305E-002	-7.91673E-004	-1.09956E-003	2.05927E-002	-1.27110E-003
	168	168	1.10009E+000	2.93698E-002	0.00000E+000	3.23094E-002	2.93075E-001	3.87894E-002	4.78998E+001	11	...........	6.47607E-002	-5.15528E-003	6.04636E-001	5.58085E-001	-2.70722E-002	-3.75936E-002	7.03783E-001	-4.33736E-002	1.90201E-003	-1.51409E-004	1.77580E-002	1.63908E-002	-7.95104E-004	-1.10411E-003	2.06699E-002	-1.27387E-003
	169	169	1.10016E+000	2.90634E-002	0.00000E+000	3.19743E-002	2.90029E-001	3.84326E-002	4.57227E+001	11	...........	6.41511E-002	-4.98639E-003	6.04838E-001	5.57922E-001	-2.70783E-002	-3.76211E-002	7.03641E-001	-4.34742E-002	1.86445E-003	-1.44922E-004	1.75787E-002	1.62151E-002	-7.86989E-004	-1.09340E-003	2.04502E-002	-1.26351E-003
	170	170	1.10006E+000	2.90341E-002	0.00000E+000	3.19392E-002	2.89739E-001	3.85076E-002	4.66101E+001	11	...........	6.42956E-002	-4.94139E-003	6.04846E-001	5.58021E-001	-2.70726E-002	-3.75910E-002	7.03480E-001	-4.34571E-002	1.86677E-003	-1.43469E-004	1.75612E-002	1.62017E-002	-7.86030E-004	-1.09142E-003	2.04249E-002	-1.26174E-003
	171	171	1.10009E+000	2.91567E-002	0.00000E+000	3.20749E-002	2.90957E-001	3.86486E-002	4.78760E+001	11	...........	6.45214E-002	-4.96181E-003	6.04951E-001	5.57969E-001	-2.70660E-002	-3.75886E-002	7.03478E-001	-4.33324E-002	1.88123E-003	-1.44670E-004	1.76384E-002	1.62685E-002	-7.89154E-004	-1.09596E-003	2.05111E-002	-1.26343E-003
	172	172	1.10016E+000	2.88614E-002	0.00000E+000	3.17520E-002	2.88021E-001	3.82479E-002	4.60158E+001	11	...........	6.38462E-002	-4.87500E-003	6.04825E-001	5.58070E-001	-2.70642E-002	-3.75849E-002	7.03547E-001	-4.34810E-002	1.84269E-003	-1.40699E-004	1.74561E-002	1.61067E-002	-7.81110E-004	-1.08475E-003	2.03054E-002	-1.25492E-003
	173	173	1.10006E+000	2.88544E-002	0.00000E+000	3.17415E-002	2.87950E-001	3.87187E-002	4.78799E+001	11	...........	6.46236E-002	-4.90319E-003	6.04761E-001	5.58062E-001	-2.70767E-002	-3.75900E-002	7.03618E-001	-4.34204E-002	1.86467E-003	-1.41479E-004	1.74500E-002	1.61025E-002	-7.81280E-004	-1.08464E-003	2.03025E-002	-1.25287E-003
	174	174	1.10009E+000	2.89524E-002	0.00000E+000	3.18502E-002	2.88930E-001	3.84689E-002	4.57829E+001	11	...........	6.41965E-002	-5.05292E-003	6.04936E-001	5.58154E-001	-2.70856E-002	-3.75899E-002	7.03629E-001	-4.35153E-002	1.85864E-003	-1.46294E-004	1.75144E-002	1.61599E-002	-7.84192E-004	-1.08832E-003	2.03718E-002	-1.25987E-003
	175	175	1.10016E+000	2.87181E-002	0.00000E+000	3.15944E-002	2.86599E-001	3.84415E-002	4.79431E+001	11	...........	6.41754E-002	-4.99694E-003	6.04809E-001	5.57996E-001	-2.70796E-002	-3.75883E-002	7.03671E-001	-4.35961E-002	1.84299E-003	-1.43503E-004	1.73690E-002	1.60246E-002	-7.77673E-004	-1.07946E-003	2.02081E-002	-1.25200E-003
	176	176	1.10006E+000	2.86624E-002	0.00000E+000	3.15303E-002	2.86046E-001	3.85702E-002	4.81918E+001	11	...........	6.43993E-002	-5.11931E-003	6.04703E-001	5.58041E-001	-2.70511E-002	-3.76062E-002	7.03694E-001	-4.35200E-002	1.84584E-003	-1.46732E-004	1.73323E-002	1.59948E-002	-7.75350E-004	-1.07789E-003	2.01695E-002	-1.24739E-003
	177	177	1.10009E+000	2.87405E-002	0.00000E+000	3.16170E-002	2.86825E-001	3.83373E-002	4.59878E+001	11	...........	6.40101E-002	-5.02264E-003	6.04465E-001	5.58076E-001	-2.70436E-002	-3.75969E-002	7.03555E-001	-4.36221E-002	1.83968E-003	-1.44353E-004	1.73726E-002	1.60394E-002	-7.77247E-004	-1.08055E-003	2.02205E-002	-1.25372E-003
	178	177.623	1.10019E+000	2.85210E-002	0.00000E+000	3.13786E-002	2.84640E-001	3.85753E-002	4.50556E+001	11	...........	6.43797E-002	-5.07264E-003	6.04125E-001	5.58211E-001	-2.70809E-002	-3.75751E-002	7.03585E-001	-4.37021E-002	1.83617E-003	-1.44677E-004	1.72303E-002	1.59207E-002	-7.72373E-004	-1.07168E-003	2.00669E-002	-1.24643E-003
STARTTIMEOFFSET	QUANT	711536.9	Start Time Offset (s)
