EXPLAIN
TAG	PWR800_CHARGE
TITLE	LABEL	PWR Charge	Test Identifier
DATE	LABEL	10/15/2022	Date
TIME	LABEL	2:56:23	Time
NOTES	NOTES	1	Notes...
	
PSTAT	PSTAT	REF3000-21114	Potentiostat
CAPACITY	QUANT	5.30000E-002	Capacity (A-hr)
CELLTYPE	SELECTOR	1	Cell Type
WORKINGCONNECTION	SELECTOR	0	Working Connection
MAXCHARGETIME	VARIABLEANDUNITS	7.20000E+003	s	2.00000E+000	hour(s)	Max Charge Time
CHARGEMODE	MULTIPARAM	0	1.00000E-001	Charge Mode	Constant Current	Amp(s)
CHARGECURRENT	QUANT	0.1	Charge Current (A)
VOLTAGEFINISH	TWOPARAM	T	2.50000E-002	7.20000E+003	Voltage Finish	I (A) <	Max Time(s)
SAMPLETIME	QUANT	1.00000E+000	Sample Period (s)
CHARGESTOPAT1	MULTIPARAM	2	1.10000E+000	Stop At 1	|Voltage| > Limit	V
CHARGESTOPAT2	MULTIPARAM	0	0.00000E+000	Stop At 2	None	N/A
AESELECTOR	AESELECTOR	0x1	T	Set Limits	AE Channels
AESBHCSELECTOR	TOGGLE	F	Save Both Half Cells
IRCOMP	TOGGLE	F	IR Measure
EOC	QUANT	0.2660781	Open Circuit (V)
SEQUENCER	TOGGLE	TRUE	Run as Sequence
PSTATMODEL	IQUANT	5	Pstat Model
PSTATSECTION	LABEL	REF3000-21114	Pstat Section
PSTATSERIALNO	LABEL	21114	Pstat Serial Number
CTRLMODE	IQUANT	0	Control Mode
ELECTROMETER	IQUANT	0	RE=0 or CS=1
IESTAB	IQUANT	0	I/E Stability
CASPEED	IQUANT	4	Control Amp Speed
CONVENTION	IQUANT	1	Current Convention
ICHRANGE	IQUANT	2	Ich Range
ICHRANGEMODE	TOGGLE	T	Ich Auto Range
ICHOFFSETENABLE	TOGGLE	F	Ich Offset Enable
ICHOFFSET	QUANT	0	Ich Offset (V)
ICHFILTER	IQUANT	1	Ich Filter
VCHRANGE	IQUANT	3	Vch Range
VCHRANGEMODE	TOGGLE	T	Vch Auto Range
VCHOFFSETENABLE	TOGGLE	F	Vch Offset Enable
VCHOFFSET	QUANT	0	Vch Offset (V)
VCHFILTER	IQUANT	1	Vch Filter
ACHRANGE	IQUANT	2	Ach Range
ACHOFFSETENABLE	TOGGLE	F	Ach Offset Enable
ACHOFFSET	QUANT	0	Ach Offset (V)
ACHFILTER	IQUANT	1	Ach Filter
IERANGELOWERLIMIT	IQUANT	9	I/E Range Lower Limit
IERANGEMODE	TOGGLE	F	I/E AutoRange
IERANGE	IQUANT	9	I/E Range
POSFEEDENABLE	TOGGLE	F	Positive Feedback IR Comp
POSFEEDRESISTANCE	QUANT	0	Positive Feedback Resistance (ohm)
ACHSELECT	IQUANT	1	Ach Select
SENSECABLEID	IQUANT	13	Sense Cable ID
PWRCABLEID	IQUANT	13	Power Cable ID
DCCALDATE	LABEL		DC Calibration Date
ACCALDATE	LABEL		AC Calibration Date
THERMOSELECT	IQUANT	1	Thermo Select
FRAMEWORKVERSION	LABEL	7.8.6	Framework Version
INSTRUMENTVERSION	LABEL	4.50	Instrument Version
COMPLIANCEVOLTAGE	IQUANT	0	Compliance Voltage
CURVE	TABLE	175
	Pt	T	Vf	Im	Vu	Pwr	Sig	Ach	Temp	IERange	Over	Vf1	Vf2	Vf3	Vf4	Vf5	Vf6	Vf7	Vf8	Pwr1	Pwr2	Pwr3	Pwr4	Pwr5	Pwr6	Pwr7	Pwr8
	#	s	V	A	V	W	V	V	deg C	#	bits	V	V	V	V	V	V	V	V	W	W	W	W	W	W	W	W
	0	1	5.40349E-001	9.98388E-002	0.00000E+000	5.39478E-002	9.94000E-001	4.08662E-002	4.08746E+001	11	...........	6.79137E-002	-5.23278E-003	5.99866E-001	5.66786E-001	-2.75781E-002	-3.77861E-002	6.99361E-001	-4.33114E-002	6.78043E-003	-5.22434E-004	5.98899E-002	5.65873E-002	-2.75336E-003	-3.77252E-003	6.98233E-002	-4.32416E-003
	1	2	6.97572E-001	9.98390E-002	0.00000E+000	6.96449E-002	9.94000E-001	4.10267E-002	4.32877E+001	11	...........	6.81749E-002	-5.13222E-003	5.99903E-001	5.66777E-001	-2.75818E-002	-3.77549E-002	6.99386E-001	-4.33285E-002	6.80651E-003	-5.12396E-004	5.98937E-002	5.65864E-002	-2.75374E-003	-3.76941E-003	6.98260E-002	-4.32587E-003
	2	2.69	9.42427E-001	9.98391E-002	0.00000E+000	9.40910E-002	9.94000E-001	4.19890E-002	4.69757E+001	11	...........	6.97828E-002	-5.21538E-003	6.00151E-001	5.66697E-001	-2.75684E-002	-3.77862E-002	6.99286E-001	-4.32832E-002	6.96705E-003	-5.20699E-004	5.99185E-002	5.65785E-002	-2.75241E-003	-3.77254E-003	6.98161E-002	-4.32136E-003
	3	3	1.10108E+000	8.10485E-002	0.00000E+000	8.92411E-002	8.07132E-001	4.11927E-002	5.16797E+001	11	...........	6.83651E-002	-5.31765E-003	6.00257E-001	5.66760E-001	-2.75336E-002	-3.78199E-002	6.99083E-001	-4.33118E-002	5.54089E-003	-4.30988E-004	4.86500E-002	4.59351E-002	-2.23156E-003	-3.06525E-003	5.66596E-002	-3.51036E-003
	4	4	1.10045E+000	6.02887E-002	0.00000E+000	6.63447E-002	6.00686E-001	4.15362E-002	5.09431E+001	11	...........	6.89475E-002	-5.24486E-003	6.00351E-001	5.66843E-001	-2.75335E-002	-3.77792E-002	6.99245E-001	-4.34050E-002	4.15676E-003	-3.16206E-004	3.61944E-002	3.41742E-002	-1.65996E-003	-2.27766E-003	4.21566E-002	-2.61683E-003
	5	5	1.10022E+000	5.11799E-002	0.00000E+000	5.63091E-002	5.10105E-001	4.08574E-002	4.89544E+001	11	...........	6.85981E-002	-5.13542E-003	6.00307E-001	5.66851E-001	-2.75549E-002	-3.77821E-002	6.99295E-001	-4.34339E-002	3.51084E-003	-2.62830E-004	3.07237E-002	2.90114E-002	-1.41026E-003	-1.93368E-003	3.57899E-002	-2.22294E-003
	6	6	1.10020E+000	4.80980E-002	0.00000E+000	5.29173E-002	4.79466E-001	4.15464E-002	4.98680E+001	11	...........	6.90533E-002	-5.04083E-003	6.00120E-001	5.66841E-001	-2.75754E-002	-3.77635E-002	6.99356E-001	-4.33397E-002	3.32133E-003	-2.42454E-004	2.88646E-002	2.72640E-002	-1.32632E-003	-1.81635E-003	3.36377E-002	-2.08456E-003
	7	7	1.10028E+000	4.59766E-002	0.00000E+000	5.05871E-002	4.58375E-001	4.12846E-002	4.59761E+001	11	...........	6.85896E-002	-5.02958E-003	6.00281E-001	5.66993E-001	-2.75475E-002	-3.77910E-002	6.99377E-001	-4.32710E-002	3.15352E-003	-2.31243E-004	2.75989E-002	2.60684E-002	-1.26654E-003	-1.73750E-003	3.21550E-002	-1.98945E-003
	8	8	1.10018E+000	4.45584E-002	0.00000E+000	4.90223E-002	4.44271E-001	4.12901E-002	4.80742E+001	11	...........	6.85675E-002	-4.83319E-003	6.00209E-001	5.66849E-001	-2.75311E-002	-3.77469E-002	6.99280E-001	-4.32622E-002	3.05526E-003	-2.15360E-004	2.67444E-002	2.52579E-002	-1.22674E-003	-1.68194E-003	3.11588E-002	-1.92770E-003
	9	9	1.10017E+000	4.40772E-002	0.00000E+000	4.84926E-002	4.39489E-001	4.15579E-002	4.94781E+001	11	...........	6.90633E-002	-4.91625E-003	6.00415E-001	5.66826E-001	-2.75140E-002	-3.77772E-002	6.99212E-001	-4.33781E-002	3.04412E-003	-2.16694E-004	2.64646E-002	2.49841E-002	-1.21274E-003	-1.66511E-003	3.08193E-002	-1.91198E-003
	10	10	1.10026E+000	4.33266E-002	0.00000E+000	4.76707E-002	4.32021E-001	4.12282E-002	4.72592E+001	11	...........	6.86131E-002	-4.88542E-003	6.00409E-001	5.66753E-001	-2.75244E-002	-3.77753E-002	6.99227E-001	-4.33897E-002	2.97277E-003	-2.11669E-004	2.60137E-002	2.45555E-002	-1.19254E-003	-1.63668E-003	3.02951E-002	-1.87993E-003
	11	11	1.10018E+000	4.27043E-002	0.00000E+000	4.69825E-002	4.25837E-001	4.14545E-002	4.89108E+001	11	...........	6.88611E-002	-4.80681E-003	6.00317E-001	5.66737E-001	-2.75139E-002	-3.77415E-002	6.99237E-001	-4.32831E-002	2.94067E-003	-2.05271E-004	2.56361E-002	2.42021E-002	-1.17496E-003	-1.61173E-003	2.98604E-002	-1.84837E-003
	12	12	1.10017E+000	4.26331E-002	0.00000E+000	4.69037E-002	4.25129E-001	4.14413E-002	4.80852E+001	11	...........	6.88672E-002	-4.94722E-003	6.00293E-001	5.66713E-001	-2.75168E-002	-3.77396E-002	6.99174E-001	-4.33065E-002	2.93603E-003	-2.10916E-004	2.55924E-002	2.41608E-002	-1.17313E-003	-1.60896E-003	2.98080E-002	-1.84629E-003
	13	13	1.10026E+000	4.22407E-002	0.00000E+000	4.64757E-002	4.21221E-001	4.11041E-002	4.82848E+001	11	...........	6.82689E-002	-5.06611E-003	6.00496E-001	5.66637E-001	-2.74879E-002	-3.76892E-002	6.99276E-001	-4.32526E-002	2.88373E-003	-2.13996E-004	2.53654E-002	2.39352E-002	-1.16111E-003	-1.59202E-003	2.95379E-002	-1.82702E-003
	14	14	1.10018E+000	4.17721E-002	0.00000E+000	4.59570E-002	4.16569E-001	4.14244E-002	4.89128E+001	11	...........	6.88060E-002	-5.09111E-003	6.00364E-001	5.66636E-001	-2.75046E-002	-3.76807E-002	6.99332E-001	-4.33257E-002	2.87417E-003	-2.12667E-004	2.50785E-002	2.36696E-002	-1.14892E-003	-1.57400E-003	2.92126E-002	-1.80981E-003
	15	15	1.10017E+000	4.18504E-002	0.00000E+000	4.60424E-002	4.17345E-001	4.13253E-002	4.77036E+001	11	...........	6.86440E-002	-5.04847E-003	6.00474E-001	5.66776E-001	-2.75101E-002	-3.76928E-002	6.99140E-001	-4.33104E-002	2.87278E-003	-2.11280E-004	2.51301E-002	2.37198E-002	-1.15131E-003	-1.57746E-003	2.92593E-002	-1.81256E-003
	16	16	1.10025E+000	4.15642E-002	0.00000E+000	4.57312E-002	4.14499E-001	4.10694E-002	4.61819E+001	11	...........	6.82444E-002	-4.95958E-003	6.00596E-001	5.66748E-001	-2.74754E-002	-3.76962E-002	6.99204E-001	-4.33319E-002	2.83653E-003	-2.06141E-004	2.49633E-002	2.35564E-002	-1.14199E-003	-1.56681E-003	2.90619E-002	-1.80106E-003
	17	17	1.10019E+000	4.12385E-002	0.00000E+000	4.53700E-002	4.11262E-001	4.13128E-002	4.70174E+001	11	...........	6.86067E-002	-4.99083E-003	6.00590E-001	5.66764E-001	-2.75125E-002	-3.77019E-002	6.99211E-001	-4.33906E-002	2.82924E-003	-2.05815E-004	2.47675E-002	2.33725E-002	-1.13458E-003	-1.55477E-003	2.88344E-002	-1.78936E-003
	18	18	1.10017E+000	4.13334E-002	0.00000E+000	4.54736E-002	4.12201E-001	4.11771E-002	4.87463E+001	11	...........	6.83750E-002	-5.01958E-003	6.00428E-001	5.66954E-001	-2.75524E-002	-3.77293E-002	6.99066E-001	-4.33529E-002	2.82617E-003	-2.07477E-004	2.48177E-002	2.34342E-002	-1.13883E-003	-1.55948E-003	2.88948E-002	-1.79192E-003
	19	19	1.10025E+000	4.11639E-002	0.00000E+000	4.52906E-002	4.10519E-001	4.12210E-002	4.84355E+001	11	...........	6.84707E-002	-4.99528E-003	6.00181E-001	5.67193E-001	-2.75465E-002	-3.77535E-002	6.99180E-001	-4.34489E-002	2.81852E-003	-2.05625E-004	2.47058E-002	2.33479E-002	-1.13392E-003	-1.55408E-003	2.87810E-002	-1.78852E-003
	20	20	1.10019E+000	4.06982E-002	0.00000E+000	4.47758E-002	4.05887E-001	4.09486E-002	4.73245E+001	11	...........	6.82353E-002	-4.93042E-003	6.00150E-001	5.67175E-001	-2.75689E-002	-3.77644E-002	6.99196E-001	-4.34157E-002	2.77705E-003	-2.00659E-004	2.44250E-002	2.30830E-002	-1.12200E-003	-1.53694E-003	2.84560E-002	-1.76694E-003
	21	21	1.10016E+000	4.09141E-002	0.00000E+000	4.50121E-002	4.08040E-001	4.10797E-002	4.68656E+001	11	...........	6.85914E-002	-4.83875E-003	6.00197E-001	5.67126E-001	-2.76129E-002	-3.78019E-002	6.99226E-001	-4.34357E-002	2.80635E-003	-1.97973E-004	2.45565E-002	2.32034E-002	-1.12976E-003	-1.54663E-003	2.86082E-002	-1.77713E-003
	22	22	1.10025E+000	4.07307E-002	0.00000E+000	4.48140E-002	4.06211E-001	4.04966E-002	4.70902E+001	11	...........	6.76032E-002	-4.87972E-003	6.00055E-001	5.66985E-001	-2.75693E-002	-3.77674E-002	6.99159E-001	-4.34504E-002	2.75353E-003	-1.98755E-004	2.44407E-002	2.30937E-002	-1.12292E-003	-1.53829E-003	2.84773E-002	-1.76977E-003
	23	23	1.10019E+000	4.03536E-002	0.00000E+000	4.43967E-002	4.02467E-001	4.11672E-002	4.83298E+001	11	...........	6.87493E-002	-4.96000E-003	6.00206E-001	5.66850E-001	-2.76171E-002	-3.77432E-002	6.99311E-001	-4.34135E-002	2.77428E-003	-2.00154E-004	2.42205E-002	2.28744E-002	-1.11445E-003	-1.52307E-003	2.82197E-002	-1.75189E-003
	24	24	1.10016E+000	4.04917E-002	0.00000E+000	4.45475E-002	4.03839E-001	4.07118E-002	4.72885E+001	11	...........	6.79908E-002	-4.93750E-003	6.00168E-001	5.66810E-001	-2.75771E-002	-3.77515E-002	6.99345E-001	-4.34433E-002	2.75306E-003	-1.99928E-004	2.43018E-002	2.29511E-002	-1.11664E-003	-1.52862E-003	2.83177E-002	-1.75909E-003
	25	25	1.10025E+000	4.03928E-002	0.00000E+000	4.44420E-002	4.02854E-001	4.10079E-002	4.82778E+001	11	...........	6.84628E-002	-4.88792E-003	6.00091E-001	5.66860E-001	-2.75818E-002	-3.77368E-002	6.99245E-001	-4.35135E-002	2.76540E-003	-1.97436E-004	2.42393E-002	2.28971E-002	-1.11411E-003	-1.52429E-003	2.82444E-002	-1.75763E-003
	26	26	1.10020E+000	3.99787E-002	0.00000E+000	4.39845E-002	3.98738E-001	4.07849E-002	4.67698E+001	11	...........	6.80981E-002	-4.88417E-003	6.00123E-001	5.66971E-001	-2.76051E-002	-3.77492E-002	6.99377E-001	-4.35012E-002	2.72247E-003	-1.95263E-004	2.39921E-002	2.26668E-002	-1.10362E-003	-1.50916E-003	2.79602E-002	-1.73912E-003
	27	27	1.10016E+000	4.01005E-002	0.00000E+000	4.41170E-002	3.99950E-001	4.06355E-002	4.83587E+001	11	...........	6.78621E-002	-4.86972E-003	6.00099E-001	5.66980E-001	-2.75385E-002	-3.77474E-002	6.99293E-001	-4.34425E-002	2.72130E-003	-1.95278E-004	2.40643E-002	2.27362E-002	-1.10431E-003	-1.51369E-003	2.80420E-002	-1.74207E-003
	28	28	1.10024E+000	4.00996E-002	0.00000E+000	4.41193E-002	3.99940E-001	4.08856E-002	4.86616E+001	11	...........	6.82954E-002	-4.92097E-003	6.00155E-001	5.67008E-001	-2.75729E-002	-3.77514E-002	6.99375E-001	-4.33269E-002	2.73862E-003	-1.97329E-004	2.40660E-002	2.27368E-002	-1.10566E-003	-1.51381E-003	2.80446E-002	-1.73739E-003
	29	29	1.10020E+000	3.96211E-002	0.00000E+000	4.35911E-002	3.95179E-001	4.06940E-002	4.73737E+001	11	...........	6.79714E-002	-4.86083E-003	6.00227E-001	5.66999E-001	-2.75406E-002	-3.77696E-002	6.99297E-001	-4.33474E-002	2.69310E-003	-1.92591E-004	2.37816E-002	2.24651E-002	-1.09119E-003	-1.49647E-003	2.77069E-002	-1.71747E-003
	30	30	1.10016E+000	3.98255E-002	0.00000E+000	4.38143E-002	3.97209E-001	4.07157E-002	4.72423E+001	11	...........	6.79939E-002	-4.91333E-003	6.00338E-001	5.67028E-001	-2.74972E-002	-3.77562E-002	6.99241E-001	-4.33872E-002	2.70789E-003	-1.95676E-004	2.39088E-002	2.25821E-002	-1.09509E-003	-1.50366E-003	2.78476E-002	-1.72792E-003
	31	31	1.10024E+000	3.97155E-002	0.00000E+000	4.36965E-002	3.96119E-001	4.05446E-002	4.72252E+001	11	...........	6.76872E-002	-4.90917E-003	6.00341E-001	5.66980E-001	-2.75132E-002	-3.77532E-002	6.99054E-001	-4.33565E-002	2.68823E-003	-1.94970E-004	2.38428E-002	2.25179E-002	-1.09270E-003	-1.49939E-003	2.77633E-002	-1.72193E-003
	32	32	1.10021E+000	3.92997E-002	0.00000E+000	4.32378E-002	3.91983E-001	4.05282E-002	4.77824E+001	11	...........	6.76742E-002	-4.98306E-003	6.00263E-001	5.67220E-001	-2.75242E-002	-3.77572E-002	6.99115E-001	-4.34233E-002	2.65958E-003	-1.95833E-004	2.35902E-002	2.22916E-002	-1.08169E-003	-1.48385E-003	2.74750E-002	-1.70652E-003
	33	33	1.10016E+000	3.95265E-002	0.00000E+000	4.34854E-002	3.94241E-001	4.08066E-002	4.79511E+001	11	...........	6.81467E-002	-5.02222E-003	6.00381E-001	5.67291E-001	-2.75668E-002	-3.77582E-002	6.99338E-001	-4.35075E-002	2.69360E-003	-1.98511E-004	2.37310E-002	2.24230E-002	-1.08962E-003	-1.49245E-003	2.76424E-002	-1.71970E-003
	34	34	1.10024E+000	3.94128E-002	0.00000E+000	4.33634E-002	3.93109E-001	4.05343E-002	4.79723E+001	11	...........	6.76983E-002	-4.88764E-003	6.00340E-001	5.67313E-001	-2.75335E-002	-3.77624E-002	6.99214E-001	-4.34464E-002	2.66818E-003	-1.92635E-004	2.36611E-002	2.23594E-002	-1.08517E-003	-1.48832E-003	2.75580E-002	-1.71234E-003
	35	35	1.10021E+000	3.89726E-002	0.00000E+000	4.28781E-002	3.88735E-001	4.06844E-002	4.62215E+001	11	...........	6.79754E-002	-4.97875E-003	6.00332E-001	5.67415E-001	-2.75508E-002	-3.77860E-002	6.99029E-001	-4.34621E-002	2.64918E-003	-1.94035E-004	2.33965E-002	2.21136E-002	-1.07373E-003	-1.47262E-003	2.72430E-002	-1.69383E-003
	36	36	1.10016E+000	3.91891E-002	0.00000E+000	4.31141E-002	3.90887E-001	4.04047E-002	4.64167E+001	11	...........	6.74662E-002	-4.90097E-003	6.00240E-001	5.67416E-001	-2.75844E-002	-3.77768E-002	6.99099E-001	-4.33662E-002	2.64394E-003	-1.92065E-004	2.35229E-002	2.22365E-002	-1.08101E-003	-1.48044E-003	2.73971E-002	-1.69949E-003
	37	37	1.10023E+000	3.91563E-002	0.00000E+000	4.30811E-002	3.90561E-001	4.06107E-002	4.80455E+001	11	...........	6.78107E-002	-4.89208E-003	6.00168E-001	5.67461E-001	-2.75699E-002	-3.77829E-002	6.99150E-001	-4.32782E-002	2.65521E-003	-1.91556E-004	2.35003E-002	2.22196E-002	-1.07953E-003	-1.47944E-003	2.73761E-002	-1.69461E-003
	38	38	1.10021E+000	3.86880E-002	0.00000E+000	4.25650E-002	3.85903E-001	4.05768E-002	4.75628E+001	11	...........	6.77201E-002	-4.80819E-003	6.00069E-001	5.67360E-001	-2.75767E-002	-3.78200E-002	6.99279E-001	-4.34054E-002	2.61995E-003	-1.86019E-004	2.32155E-002	2.19500E-002	-1.06688E-003	-1.46318E-003	2.70537E-002	-1.67927E-003
	39	39	1.10016E+000	3.89077E-002	0.00000E+000	4.28045E-002	3.88095E-001	4.06207E-002	4.73102E+001	11	...........	6.78430E-002	-4.94792E-003	6.00034E-001	5.67218E-001	-2.75600E-002	-3.78017E-002	6.99334E-001	-4.34233E-002	2.63961E-003	-1.92512E-004	2.33459E-002	2.20691E-002	-1.07229E-003	-1.47077E-003	2.72094E-002	-1.68950E-003
	40	40	1.10023E+000	3.88206E-002	0.00000E+000	4.27117E-002	3.87226E-001	4.02862E-002	4.78811E+001	11	...........	6.72887E-002	-4.88736E-003	5.99910E-001	5.67368E-001	-2.75812E-002	-3.77681E-002	6.99381E-001	-4.34804E-002	2.61219E-003	-1.89730E-004	2.32889E-002	2.20255E-002	-1.07072E-003	-1.46618E-003	2.71503E-002	-1.68793E-003
	41	41	1.10022E+000	3.84371E-002	0.00000E+000	4.22892E-002	3.83417E-001	4.06545E-002	4.75088E+001	11	...........	6.78643E-002	-4.84722E-003	5.99811E-001	5.67406E-001	-2.76004E-002	-3.77626E-002	6.99361E-001	-4.34903E-002	2.60851E-003	-1.86313E-004	2.30550E-002	2.18095E-002	-1.06088E-003	-1.45149E-003	2.68814E-002	-1.67164E-003
	42	42	1.10015E+000	3.85619E-002	0.00000E+000	4.24240E-002	3.84655E-001	4.03656E-002	4.62129E+001	11	...........	6.74118E-002	-4.80333E-003	5.99863E-001	5.67372E-001	-2.75925E-002	-3.77350E-002	6.99297E-001	-4.35806E-002	2.59953E-003	-1.85226E-004	2.31318E-002	2.18789E-002	-1.06402E-003	-1.45513E-003	2.69662E-002	-1.68055E-003
	43	43	1.10023E+000	3.85448E-002	0.00000E+000	4.24080E-002	3.84488E-001	4.02699E-002	4.70760E+001	11	...........	6.72361E-002	-4.90292E-003	5.99872E-001	5.67443E-001	-2.76040E-002	-3.77256E-002	6.99263E-001	-4.35900E-002	2.59160E-003	-1.88982E-004	2.31219E-002	2.18720E-002	-1.06399E-003	-1.45412E-003	2.69529E-002	-1.68017E-003
	44	44	1.10022E+000	3.81585E-002	0.00000E+000	4.19828E-002	3.80650E-001	4.05821E-002	4.79117E+001	11	...........	6.77543E-002	-5.04403E-003	5.99895E-001	5.67483E-001	-2.75754E-002	-3.77229E-002	6.99296E-001	-4.35586E-002	2.58540E-003	-1.92473E-004	2.28911E-002	2.16543E-002	-1.05224E-003	-1.43945E-003	2.66841E-002	-1.66213E-003
	45	45	1.10015E+000	3.82902E-002	0.00000E+000	4.21251E-002	3.81955E-001	4.04665E-002	4.71034E+001	11	...........	6.75971E-002	-4.93431E-003	5.99943E-001	5.67563E-001	-2.75731E-002	-3.77087E-002	6.99211E-001	-4.33237E-002	2.58831E-003	-1.88936E-004	2.29720E-002	2.17321E-002	-1.05578E-003	-1.44388E-003	2.67729E-002	-1.65888E-003
	46	46	1.10022E+000	3.82562E-002	0.00000E+000	4.20904E-002	3.81616E-001	4.02390E-002	4.76142E+001	11	...........	6.72071E-002	-4.93569E-003	5.99913E-001	5.67628E-001	-2.75611E-002	-3.76867E-002	6.99271E-001	-4.32596E-002	2.57109E-003	-1.88821E-004	2.29504E-002	2.17153E-002	-1.05438E-003	-1.44175E-003	2.67515E-002	-1.65495E-003
	47	47	1.10023E+000	3.78673E-002	0.00000E+000	4.16626E-002	3.77749E-001	4.05280E-002	4.83596E+001	11	...........	6.76883E-002	-4.88472E-003	6.00116E-001	5.67509E-001	-2.76007E-002	-3.77154E-002	6.99297E-001	-4.32331E-002	2.56317E-003	-1.84971E-004	2.27248E-002	2.14900E-002	-1.04516E-003	-1.42818E-003	2.64805E-002	-1.63712E-003
	48	48	1.10015E+000	3.79706E-002	0.00000E+000	4.17734E-002	3.78784E-001	4.02093E-002	4.56744E+001	11	...........	6.71207E-002	-4.97500E-003	6.00182E-001	5.67436E-001	-2.76275E-002	-3.76653E-002	6.99335E-001	-4.31875E-002	2.54861E-003	-1.88904E-004	2.27892E-002	2.15459E-002	-1.04903E-003	-1.43017E-003	2.65541E-002	-1.63985E-003
	49	49	1.10022E+000	3.79949E-002	0.00000E+000	4.18028E-002	3.79021E-001	4.03163E-002	4.65462E+001	11	...........	6.73411E-002	-4.89458E-003	6.00224E-001	5.67451E-001	-2.76136E-002	-3.76421E-002	6.99312E-001	-4.33278E-002	2.55862E-003	-1.85969E-004	2.28054E-002	2.15602E-002	-1.04917E-003	-1.43021E-003	2.65703E-002	-1.64623E-003
	50	50	1.10023E+000	3.76157E-002	0.00000E+000	4.13859E-002	3.75249E-001	4.03635E-002	4.82042E+001	11	...........	6.74301E-002	-4.78653E-003	6.00399E-001	5.67537E-001	-2.76332E-002	-3.76476E-002	6.99270E-001	-4.34267E-002	2.53643E-003	-1.80049E-004	2.25844E-002	2.13483E-002	-1.03944E-003	-1.41614E-003	2.63035E-002	-1.63353E-003
	51	51	1.10015E+000	3.77450E-002	0.00000E+000	4.15252E-002	3.76537E-001	4.02359E-002	4.77749E+001	11	...........	6.71862E-002	-4.77042E-003	6.00562E-001	5.67650E-001	-2.76333E-002	-3.76221E-002	6.99337E-001	-4.33179E-002	2.53594E-003	-1.80059E-004	2.26682E-002	2.14259E-002	-1.04302E-003	-1.42004E-003	2.63965E-002	-1.63503E-003
	52	52	1.10022E+000	3.77616E-002	0.00000E+000	4.15460E-002	3.76702E-001	4.02774E-002	4.84348E+001	11	...........	6.72554E-002	-4.79708E-003	6.00541E-001	5.67919E-001	-2.76031E-002	-3.76171E-002	6.99384E-001	-4.32656E-002	2.53967E-003	-1.81146E-004	2.26774E-002	2.14455E-002	-1.04234E-003	-1.42048E-003	2.64098E-002	-1.63378E-003
	53	53	1.10023E+000	3.73238E-002	0.00000E+000	4.10649E-002	3.72345E-001	4.01897E-002	4.65012E+001	11	...........	6.71200E-002	-4.76194E-003	6.00542E-001	5.67961E-001	-2.76182E-002	-3.76294E-002	6.99386E-001	-4.33172E-002	2.50517E-003	-1.77734E-004	2.24145E-002	2.11984E-002	-1.03082E-003	-1.40447E-003	2.61037E-002	-1.61676E-003
	54	54	1.10015E+000	3.74689E-002	0.00000E+000	4.12215E-002	3.73787E-001	4.02498E-002	4.74296E+001	11	...........	6.72249E-002	-4.81750E-003	6.00399E-001	5.67970E-001	-2.76356E-002	-3.76194E-002	6.99384E-001	-4.33760E-002	2.51884E-003	-1.80507E-004	2.24963E-002	2.12812E-002	-1.03547E-003	-1.40956E-003	2.62052E-002	-1.62525E-003
	55	55	1.10021E+000	3.75092E-002	0.00000E+000	4.12682E-002	3.74183E-001	4.01297E-002	4.73760E+001	11	...........	6.70281E-002	-4.81764E-003	6.00389E-001	5.67976E-001	-2.75862E-002	-3.76346E-002	6.99344E-001	-4.33921E-002	2.51417E-003	-1.80706E-004	2.25201E-002	2.13043E-002	-1.03474E-003	-1.41164E-003	2.62318E-002	-1.62760E-003
	56	56	1.10024E+000	3.70236E-002	0.00000E+000	4.07349E-002	3.69359E-001	3.99074E-002	4.70392E+001	11	...........	6.66749E-002	-4.87556E-003	6.00522E-001	5.68156E-001	-2.76158E-002	-3.76639E-002	6.99321E-001	-4.34149E-002	2.46854E-003	-1.80511E-004	2.22335E-002	2.10352E-002	-1.02244E-003	-1.39445E-003	2.58914E-002	-1.60737E-003
	57	57	1.10015E+000	3.71483E-002	0.00000E+000	4.08687E-002	3.70601E-001	4.00332E-002	4.47633E+001	11	...........	6.68793E-002	-4.83750E-003	6.00339E-001	5.68106E-001	-2.76503E-002	-3.76483E-002	6.99324E-001	-4.33612E-002	2.48446E-003	-1.79705E-004	2.23016E-002	2.11042E-002	-1.02716E-003	-1.39857E-003	2.59787E-002	-1.61080E-003
	58	58	1.10021E+000	3.72465E-002	0.00000E+000	4.09790E-002	3.71575E-001	4.03516E-002	4.84824E+001	11	...........	6.74506E-002	-4.76889E-003	6.00400E-001	5.68126E-001	-2.76351E-002	-3.76256E-002	6.99290E-001	-4.33469E-002	2.51230E-003	-1.77624E-004	2.23628E-002	2.11607E-002	-1.02931E-003	-1.40142E-003	2.60461E-002	-1.61452E-003
	59	59	1.10024E+000	3.68131E-002	0.00000E+000	4.05034E-002	3.67266E-001	4.01502E-002	4.70524E+001	11	...........	6.70587E-002	-4.95972E-003	6.00464E-001	5.68030E-001	-2.76482E-002	-3.76442E-002	6.99302E-001	-4.33664E-002	2.46864E-003	-1.82583E-004	2.21050E-002	2.09109E-002	-1.01782E-003	-1.38580E-003	2.57435E-002	-1.59645E-003
	60	60	1.10015E+000	3.68848E-002	0.00000E+000	4.05786E-002	3.67979E-001	3.98812E-002	4.72694E+001	11	...........	6.65483E-002	-4.87819E-003	6.00494E-001	5.68074E-001	-2.76519E-002	-3.76235E-002	6.99305E-001	-4.34219E-002	2.45462E-003	-1.79931E-004	2.21491E-002	2.09533E-002	-1.01994E-003	-1.38773E-003	2.57937E-002	-1.60161E-003
	61	61	1.10021E+000	3.69778E-002	0.00000E+000	4.06834E-002	3.68906E-001	4.02611E-002	4.69773E+001	11	...........	6.72110E-002	-4.93792E-003	6.00459E-001	5.68194E-001	-2.76519E-002	-3.76717E-002	6.99355E-001	-4.33192E-002	2.48531E-003	-1.82593E-004	2.22037E-002	2.10106E-002	-1.02251E-003	-1.39302E-003	2.58606E-002	-1.60185E-003
	62	62	1.10025E+000	3.65275E-002	0.00000E+000	4.01893E-002	3.64425E-001	3.98540E-002	4.75033E+001	11	...........	6.65562E-002	-4.92444E-003	6.00410E-001	5.68098E-001	-2.76457E-002	-3.76781E-002	6.99352E-001	-4.32308E-002	2.43113E-003	-1.79878E-004	2.19315E-002	2.07512E-002	-1.00983E-003	-1.37629E-003	2.55456E-002	-1.57911E-003
	63	63	1.10015E+000	3.66699E-002	0.00000E+000	4.03423E-002	3.65844E-001	4.00992E-002	4.82494E+001	11	...........	6.69612E-002	-4.98972E-003	6.00436E-001	5.68050E-001	-2.76281E-002	-3.77050E-002	6.99362E-001	-4.32292E-002	2.45546E-003	-1.82973E-004	2.20179E-002	2.08303E-002	-1.01312E-003	-1.38264E-003	2.56455E-002	-1.58521E-003
	64	64	1.10021E+000	3.66801E-002	0.00000E+000	4.03557E-002	3.65944E-001	4.01192E-002	4.57648E+001	11	...........	6.69825E-002	-4.94208E-003	6.00491E-001	5.68185E-001	-2.76294E-002	-3.77047E-002	6.99296E-001	-4.33129E-002	2.45692E-003	-1.81276E-004	2.20260E-002	2.08411E-002	-1.01345E-003	-1.38301E-003	2.56502E-002	-1.58872E-003
	65	65	1.10025E+000	3.62540E-002	0.00000E+000	3.98884E-002	3.61706E-001	3.98229E-002	4.65436E+001	11	...........	6.64987E-002	-4.84611E-003	6.00163E-001	5.68041E-001	-2.76244E-002	-3.76914E-002	6.99372E-001	-4.33486E-002	2.41085E-003	-1.75691E-004	2.17583E-002	2.05938E-002	-1.00150E-003	-1.36647E-003	2.53551E-002	-1.57156E-003
	66	66	1.10015E+000	3.64127E-002	0.00000E+000	4.00593E-002	3.63286E-001	4.01159E-002	4.80415E+001	11	...........	6.69658E-002	-4.89431E-003	6.00143E-001	5.67875E-001	-2.76214E-002	-3.76937E-002	6.99381E-001	-4.33676E-002	2.43841E-003	-1.78215E-004	2.18528E-002	2.06778E-002	-1.00577E-003	-1.37253E-003	2.54664E-002	-1.57913E-003
	67	67	1.10021E+000	3.64042E-002	0.00000E+000	4.00521E-002	3.63200E-001	3.98795E-002	4.65057E+001	11	...........	6.66293E-002	-4.83597E-003	6.00246E-001	5.67686E-001	-2.76437E-002	-3.76908E-002	6.99277E-001	-4.32344E-002	2.42558E-003	-1.76050E-004	2.18514E-002	2.06661E-002	-1.00635E-003	-1.37210E-003	2.54566E-002	-1.57391E-003
	68	68	1.10025E+000	3.60281E-002	0.00000E+000	3.96401E-002	3.59459E-001	3.99571E-002	4.75350E+001	11	...........	6.67415E-002	-4.74514E-003	6.00303E-001	5.67666E-001	-2.76285E-002	-3.76978E-002	6.99266E-001	-4.32976E-002	2.40457E-003	-1.70958E-004	2.16278E-002	2.04519E-002	-9.95402E-004	-1.35818E-003	2.51932E-002	-1.55993E-003
	69	69	1.10015E+000	3.61392E-002	0.00000E+000	3.97584E-002	3.60564E-001	3.99797E-002	4.69710E+001	11	...........	6.67954E-002	-4.88875E-003	6.00244E-001	5.67901E-001	-2.76286E-002	-3.76964E-002	6.99306E-001	-4.32956E-002	2.41393E-003	-1.76676E-004	2.16924E-002	2.05235E-002	-9.98476E-004	-1.36232E-003	2.52724E-002	-1.56467E-003
	70	70	1.10020E+000	3.61546E-002	0.00000E+000	3.97774E-002	3.60719E-001	3.97578E-002	4.59797E+001	11	...........	6.63993E-002	-4.95389E-003	6.00208E-001	5.67911E-001	-2.75832E-002	-3.76812E-002	6.99265E-001	-4.34060E-002	2.40064E-003	-1.79106E-004	2.17003E-002	2.05326E-002	-9.97258E-004	-1.36235E-003	2.52816E-002	-1.56932E-003
	71	71	1.10025E+000	3.58034E-002	0.00000E+000	3.93928E-002	3.57223E-001	3.99087E-002	4.83778E+001	11	...........	6.66725E-002	-4.94611E-003	6.00310E-001	5.67961E-001	-2.75714E-002	-3.77039E-002	6.99394E-001	-4.33007E-002	2.38710E-003	-1.77088E-004	2.14931E-002	2.03349E-002	-9.87149E-004	-1.34993E-003	2.50407E-002	-1.55031E-003
	72	72	1.10014E+000	3.58703E-002	0.00000E+000	3.94625E-002	3.57889E-001	3.99595E-002	4.68849E+001	11	...........	6.67354E-002	-5.00194E-003	6.00343E-001	5.68015E-001	-2.75624E-002	-3.77140E-002	6.99493E-001	-4.32682E-002	2.39382E-003	-1.79421E-004	2.15344E-002	2.03749E-002	-9.88669E-004	-1.35281E-003	2.50910E-002	-1.55204E-003
	73	73	1.10020E+000	3.59200E-002	0.00000E+000	3.95192E-002	3.58385E-001	3.96716E-002	4.74087E+001	11	...........	6.62394E-002	-4.88611E-003	6.00599E-001	5.67994E-001	-2.75706E-002	-3.77117E-002	6.99536E-001	-4.32744E-002	2.37932E-003	-1.75509E-004	2.15735E-002	2.04024E-002	-9.90334E-004	-1.35460E-003	2.51273E-002	-1.55442E-003
	74	74	1.10026E+000	3.55588E-002	0.00000E+000	3.91238E-002	3.54793E-001	3.99522E-002	4.72230E+001	11	...........	6.67125E-002	-4.93236E-003	6.00807E-001	5.67835E-001	-2.75424E-002	-3.77160E-002	6.99459E-001	-4.32425E-002	2.37221E-003	-1.75389E-004	2.13639E-002	2.01915E-002	-9.79372E-004	-1.34113E-003	2.48719E-002	-1.53765E-003
	75	75	1.10014E+000	3.56181E-002	0.00000E+000	3.91851E-002	3.55383E-001	3.96894E-002	4.74966E+001	11	...........	6.62612E-002	-4.84681E-003	6.01009E-001	5.67858E-001	-2.75671E-002	-3.76996E-002	6.99387E-001	-4.33383E-002	2.36010E-003	-1.72634E-004	2.14068E-002	2.02260E-002	-9.81888E-004	-1.34279E-003	2.49109E-002	-1.54363E-003
	76	76	1.10020E+000	3.56752E-002	0.00000E+000	3.92499E-002	3.55952E-001	3.98768E-002	4.68405E+001	11	...........	6.66249E-002	-4.90014E-003	6.01060E-001	5.67853E-001	-2.75683E-002	-3.76907E-002	6.99174E-001	-4.33676E-002	2.37686E-003	-1.74814E-004	2.14429E-002	2.02583E-002	-9.83506E-004	-1.34462E-003	2.49432E-002	-1.54715E-003
	77	77	1.10026E+000	3.53225E-002	0.00000E+000	3.88638E-002	3.52443E-001	3.97694E-002	4.70790E+001	11	...........	6.64061E-002	-5.03444E-003	6.00882E-001	5.67920E-001	-2.75989E-002	-3.77136E-002	6.99291E-001	-4.32710E-002	2.34563E-003	-1.77829E-004	2.12246E-002	2.00603E-002	-9.74861E-004	-1.33214E-003	2.47007E-002	-1.52844E-003
	78	78	1.10014E+000	3.53757E-002	0.00000E+000	3.89184E-002	3.52978E-001	3.95918E-002	4.71118E+001	11	...........	6.61108E-002	-5.05000E-003	6.01000E-001	5.67851E-001	-2.75678E-002	-3.77099E-002	6.99265E-001	-4.32321E-002	2.33872E-003	-1.78647E-004	2.12608E-002	2.00881E-002	-9.75229E-004	-1.33401E-003	2.47370E-002	-1.52936E-003
	79	79	1.10020E+000	3.54465E-002	0.00000E+000	3.89981E-002	3.53679E-001	3.98391E-002	4.82877E+001	11	...........	6.65014E-002	-5.05347E-003	6.01204E-001	5.67875E-001	-2.76118E-002	-3.76844E-002	6.99165E-001	-4.33375E-002	2.35724E-003	-1.79128E-004	2.13106E-002	2.01292E-002	-9.78742E-004	-1.33578E-003	2.47830E-002	-1.53616E-003
	80	80	1.10026E+000	3.50659E-002	0.00000E+000	3.85817E-002	3.49896E-001	3.97611E-002	4.68394E+001	11	...........	6.63853E-002	-5.07764E-003	6.00947E-001	5.67765E-001	-2.76153E-002	-3.76854E-002	6.99077E-001	-4.34242E-002	2.32786E-003	-1.78052E-004	2.10727E-002	1.99092E-002	-9.68354E-004	-1.32147E-003	2.45138E-002	-1.52271E-003
	81	81	1.10014E+000	3.50815E-002	0.00000E+000	3.85947E-002	3.50047E-001	3.96512E-002	4.65225E+001	11	...........	6.61947E-002	-4.93736E-003	6.00894E-001	5.67720E-001	-2.76274E-002	-3.77035E-002	6.99074E-001	-4.33940E-002	2.32221E-003	-1.73210E-004	2.10803E-002	1.99165E-002	-9.69209E-004	-1.32269E-003	2.45246E-002	-1.52233E-003
	82	82	1.10019E+000	3.51828E-002	0.00000E+000	3.87079E-002	3.51051E-001	3.94639E-002	4.71498E+001	11	...........	6.59032E-002	-4.83361E-003	6.00859E-001	5.67602E-001	-2.76396E-002	-3.77104E-002	6.99056E-001	-4.33396E-002	2.31866E-003	-1.70060E-004	2.11399E-002	1.99698E-002	-9.72437E-004	-1.32676E-003	2.45947E-002	-1.52481E-003
	83	83	1.10026E+000	3.48441E-002	0.00000E+000	3.83377E-002	3.47684E-001	3.98658E-002	4.82401E+001	11	...........	6.65636E-002	-4.98306E-003	6.00939E-001	5.67637E-001	-2.76481E-002	-3.77129E-002	6.99160E-001	-4.33876E-002	2.31935E-003	-1.73630E-004	2.09392E-002	1.97788E-002	-9.63371E-004	-1.31407E-003	2.43616E-002	-1.51180E-003
	84	84	1.10015E+000	3.48441E-002	0.00000E+000	3.83336E-002	3.47687E-001	3.96258E-002	4.72748E+001	11	...........	6.61733E-002	-4.99958E-003	6.00908E-001	5.67642E-001	-2.76562E-002	-3.77593E-002	6.99213E-001	-4.35343E-002	2.30575E-003	-1.74206E-004	2.09381E-002	1.97790E-002	-9.63657E-004	-1.31569E-003	2.43634E-002	-1.51691E-003
	85	85	1.10019E+000	3.49174E-002	0.00000E+000	3.84158E-002	3.48417E-001	3.94088E-002	4.59874E+001	11	...........	6.58190E-002	-5.02611E-003	6.00934E-001	5.67649E-001	-2.76326E-002	-3.77928E-002	6.99008E-001	-4.35131E-002	2.29823E-003	-1.75498E-004	2.09830E-002	1.98208E-002	-9.64859E-004	-1.31962E-003	2.44075E-002	-1.51936E-003
	86	86	1.10026E+000	3.46086E-002	0.00000E+000	3.80786E-002	3.45347E-001	3.97101E-002	4.69930E+001	11	...........	6.63160E-002	-5.07292E-003	6.00941E-001	5.67549E-001	-2.76183E-002	-3.77703E-002	6.99162E-001	-4.35049E-002	2.29510E-003	-1.75566E-004	2.07977E-002	1.96421E-002	-9.55831E-004	-1.30718E-003	2.41970E-002	-1.50564E-003
	87	87	1.10015E+000	3.46363E-002	0.00000E+000	3.81050E-002	3.45621E-001	3.97358E-002	4.87275E+001	11	...........	6.63518E-002	-5.01958E-003	6.00958E-001	5.67521E-001	-2.76000E-002	-3.77625E-002	6.99244E-001	-4.34806E-002	2.29818E-003	-1.73860E-004	2.08150E-002	1.96568E-002	-9.55962E-004	-1.30795E-003	2.42193E-002	-1.50601E-003
	88	88	1.10019E+000	3.46669E-002	0.00000E+000	3.81403E-002	3.45926E-001	3.95001E-002	4.66782E+001	11	...........	6.59382E-002	-4.89819E-003	6.00862E-001	5.67624E-001	-2.76108E-002	-3.77379E-002	6.99087E-001	-4.35040E-002	2.28587E-003	-1.69805E-004	2.08300E-002	1.96778E-002	-9.57182E-004	-1.30826E-003	2.42352E-002	-1.50815E-003
	89	89	1.10027E+000	3.43617E-002	0.00000E+000	3.78071E-002	3.42894E-001	3.96359E-002	4.65469E+001	11	...........	6.61704E-002	-4.94708E-003	6.00882E-001	5.67581E-001	-2.76287E-002	-3.77787E-002	6.98975E-001	-4.35186E-002	2.27373E-003	-1.69990E-004	2.06473E-002	1.95031E-002	-9.49371E-004	-1.29814E-003	2.40180E-002	-1.49537E-003
	90	90	1.10014E+000	3.43745E-002	0.00000E+000	3.78168E-002	3.43021E-001	3.95396E-002	4.87815E+001	11	...........	6.60621E-002	-4.98097E-003	6.00840E-001	5.67468E-001	-2.76537E-002	-3.77840E-002	6.98972E-001	-4.34268E-002	2.27085E-003	-1.71218E-004	2.06535E-002	1.95064E-002	-9.50583E-004	-1.29881E-003	2.40268E-002	-1.49277E-003
	91	91	1.10019E+000	3.44668E-002	0.00000E+000	3.79201E-002	3.43941E-001	3.95119E-002	4.69641E+001	11	...........	6.59439E-002	-4.91569E-003	6.00970E-001	5.67481E-001	-2.76311E-002	-3.77650E-002	6.99081E-001	-4.33481E-002	2.27288E-003	-1.69428E-004	2.07135E-002	1.95593E-002	-9.52356E-004	-1.30164E-003	2.40951E-002	-1.49407E-003
	92	92	1.10027E+000	3.40885E-002	0.00000E+000	3.75065E-002	3.40173E-001	3.94002E-002	4.69540E+001	11	...........	6.57953E-002	-4.84625E-003	6.00972E-001	5.67476E-001	-2.76458E-002	-3.77849E-002	6.99197E-001	-4.33976E-002	2.24287E-003	-1.65202E-004	2.04863E-002	1.93444E-002	-9.42406E-004	-1.28803E-003	2.38346E-002	-1.47936E-003
	93	93	1.10015E+000	3.41296E-002	0.00000E+000	3.75476E-002	3.40581E-001	3.96021E-002	4.69279E+001	11	...........	6.61346E-002	-4.86181E-003	6.01179E-001	5.67376E-001	-2.76557E-002	-3.78076E-002	6.99128E-001	-4.33899E-002	2.25715E-003	-1.65931E-004	2.05180E-002	1.93643E-002	-9.43877E-004	-1.29036E-003	2.38609E-002	-1.48088E-003
	94	94	1.10019E+000	3.42495E-002	0.00000E+000	3.76809E-002	3.41773E-001	3.95243E-002	4.82556E+001	11	...........	6.59982E-002	-4.88653E-003	6.01144E-001	5.67398E-001	-2.76640E-002	-3.78229E-002	6.99071E-001	-4.33565E-002	2.26041E-003	-1.67361E-004	2.05889E-002	1.94331E-002	-9.47479E-004	-1.29542E-003	2.39428E-002	-1.48494E-003
	95	95	1.10027E+000	3.39267E-002	0.00000E+000	3.73284E-002	3.38568E-001	3.94328E-002	4.78583E+001	11	...........	6.58542E-002	-5.02361E-003	6.01167E-001	5.67377E-001	-2.76462E-002	-3.77881E-002	6.99219E-001	-4.35019E-002	2.23422E-003	-1.70435E-004	2.03956E-002	1.92492E-002	-9.37947E-004	-1.28203E-003	2.37222E-002	-1.47588E-003
	96	96	1.10015E+000	3.38576E-002	0.00000E+000	3.72484E-002	3.37875E-001	3.92590E-002	4.68186E+001	11	...........	6.55599E-002	-4.97375E-003	6.01094E-001	5.67539E-001	-2.76308E-002	-3.77669E-002	6.99141E-001	-4.34703E-002	2.21970E-003	-1.68399E-004	2.03516E-002	1.92155E-002	-9.35514E-004	-1.27870E-003	2.36713E-002	-1.47180E-003
	97	97	1.10019E+000	3.39951E-002	0.00000E+000	3.74010E-002	3.39244E-001	3.96452E-002	4.68843E+001	11	...........	6.62029E-002	-4.92819E-003	6.01209E-001	5.67580E-001	-2.76025E-002	-3.77219E-002	6.99013E-001	-4.33821E-002	2.25058E-003	-1.67535E-004	2.04382E-002	1.92949E-002	-9.38350E-004	-1.28236E-003	2.37630E-002	-1.47478E-003
	98	98	1.10027E+000	3.37157E-002	0.00000E+000	3.70963E-002	3.36463E-001	3.93798E-002	4.80152E+001	11	...........	6.57512E-002	-5.01708E-003	6.01227E-001	5.67500E-001	-2.76114E-002	-3.76936E-002	6.98958E-001	-4.33087E-002	2.21685E-003	-1.69155E-004	2.02708E-002	1.91337E-002	-9.30938E-004	-1.27087E-003	2.35659E-002	-1.46019E-003
	99	99	1.10015E+000	3.36538E-002	0.00000E+000	3.70241E-002	3.35851E-001	3.94799E-002	4.70375E+001	11	...........	6.59493E-002	-5.03028E-003	6.01294E-001	5.67368E-001	-2.76261E-002	-3.76961E-002	6.98939E-001	-4.34347E-002	2.21944E-003	-1.69288E-004	2.02358E-002	1.90941E-002	-9.29722E-004	-1.26862E-003	2.35219E-002	-1.46174E-003
	100	100	1.10019E+000	3.37325E-002	0.00000E+000	3.71121E-002	3.36630E-001	3.90550E-002	4.72655E+001	11	...........	6.52339E-002	-4.90417E-003	6.01313E-001	5.67405E-001	-2.76383E-002	-3.77011E-002	6.98973E-001	-4.33740E-002	2.20050E-003	-1.65430E-004	2.02838E-002	1.91400E-002	-9.32310E-004	-1.27175E-003	2.35781E-002	-1.46311E-003
	101	101	1.10027E+000	3.34871E-002	0.00000E+000	3.68448E-002	3.34195E-001	3.96758E-002	4.87098E+001	11	...........	6.62508E-002	-5.03694E-003	6.01210E-001	5.67329E-001	-2.76649E-002	-3.77271E-002	6.99162E-001	-4.34346E-002	2.21855E-003	-1.68673E-004	2.01328E-002	1.89982E-002	-9.26415E-004	-1.26337E-003	2.34129E-002	-1.45450E-003
	102	102	1.10015E+000	3.33960E-002	0.00000E+000	3.67406E-002	3.33289E-001	3.93587E-002	4.77873E+001	11	...........	6.57453E-002	-5.02972E-003	6.01185E-001	5.67529E-001	-2.76687E-002	-3.77096E-002	6.99224E-001	-4.34426E-002	2.19563E-003	-1.67973E-004	2.00772E-002	1.89532E-002	-9.24026E-004	-1.25935E-003	2.33513E-002	-1.45081E-003
	103	103	1.10019E+000	3.34834E-002	0.00000E+000	3.68380E-002	3.34157E-001	3.94118E-002	4.58981E+001	11	...........	6.58410E-002	-4.97833E-003	6.01018E-001	5.67632E-001	-2.76461E-002	-3.77272E-002	6.99227E-001	-4.32667E-002	2.20458E-003	-1.66691E-004	2.01241E-002	1.90062E-002	-9.25685E-004	-1.26323E-003	2.34125E-002	-1.44871E-003
	104	104	1.10026E+000	3.32435E-002	0.00000E+000	3.65767E-002	3.31775E-001	3.90827E-002	4.65583E+001	11	...........	6.52471E-002	-4.86319E-003	6.00987E-001	5.67627E-001	-2.76699E-002	-3.77335E-002	6.99181E-001	-4.33969E-002	2.16904E-003	-1.61670E-004	1.99789E-002	1.88699E-002	-9.19844E-004	-1.25439E-003	2.32433E-002	-1.44267E-003
	105	105	1.10015E+000	3.31898E-002	0.00000E+000	3.65138E-002	3.31239E-001	3.95285E-002	4.68634E+001	11	...........	6.60085E-002	-4.93028E-003	6.00999E-001	5.67716E-001	-2.76392E-002	-3.77311E-002	6.99252E-001	-4.34615E-002	2.19081E-003	-1.63635E-004	1.99470E-002	1.88424E-002	-9.17338E-004	-1.25229E-003	2.32080E-002	-1.44248E-003
	106	106	1.10018E+000	3.32896E-002	0.00000E+000	3.66247E-002	3.32233E-001	3.91482E-002	4.74136E+001	11	...........	6.53829E-002	-5.03486E-003	6.01161E-001	5.67742E-001	-2.76678E-002	-3.77169E-002	6.99098E-001	-4.34586E-002	2.17657E-003	-1.67608E-004	2.00124E-002	1.88999E-002	-9.21049E-004	-1.25558E-003	2.32727E-002	-1.44672E-003
	107	107	1.10027E+000	3.30106E-002	0.00000E+000	3.63205E-002	3.29462E-001	3.91369E-002	4.82382E+001	11	...........	6.59794E-002	-4.97250E-003	6.01131E-001	5.67768E-001	-2.76726E-002	-3.77232E-002	6.99128E-001	-4.34824E-002	2.17802E-003	-1.64145E-004	1.98437E-002	1.87424E-002	-9.13491E-004	-1.24527E-003	2.30786E-002	-1.43538E-003
	108	108	1.10015E+000	3.29366E-002	0.00000E+000	3.62354E-002	3.28725E-001	3.93616E-002	4.62564E+001	11	...........	6.57469E-002	-5.01472E-003	6.00978E-001	5.67805E-001	-2.76875E-002	-3.77689E-002	6.99173E-001	-4.33572E-002	2.16548E-003	-1.65168E-004	1.97942E-002	1.87016E-002	-9.11933E-004	-1.24398E-003	2.30284E-002	-1.42804E-003
	109	109	1.10018E+000	3.30248E-002	0.00000E+000	3.63333E-002	3.29598E-001	3.89797E-002	4.67336E+001	11	...........	6.51011E-002	-4.93542E-003	6.00791E-001	5.67618E-001	-2.77074E-002	-3.77528E-002	6.99150E-001	-4.34217E-002	2.14995E-003	-1.62991E-004	1.98410E-002	1.87455E-002	-9.15029E-004	-1.24678E-003	2.30893E-002	-1.43399E-003
	110	110	1.10027E+000	3.28213E-002	0.00000E+000	3.61122E-002	3.27578E-001	3.95567E-002	4.81778E+001	11	...........	6.60565E-002	-4.98278E-003	6.00853E-001	5.67585E-001	-2.76908E-002	-3.77806E-002	6.99200E-001	-4.33782E-002	2.16806E-003	-1.63541E-004	1.97208E-002	1.86289E-002	-9.08849E-004	-1.24001E-003	2.29487E-002	-1.42373E-003
	111	111	1.10015E+000	3.27382E-002	0.00000E+000	3.60170E-002	3.26751E-001	3.93210E-002	4.82775E+001	11	...........	6.56696E-002	-4.91792E-003	6.00882E-001	5.67601E-001	-2.76818E-002	-3.77860E-002	6.99289E-001	-4.34385E-002	2.14990E-003	-1.61004E-004	1.96718E-002	1.85822E-002	-9.06252E-004	-1.23704E-003	2.28935E-002	-1.42210E-003
	112	112	1.10018E+000	3.28040E-002	0.00000E+000	3.60905E-002	3.27401E-001	3.91112E-002	4.67900E+001	11	...........	6.52610E-002	-4.90208E-003	6.00791E-001	5.67621E-001	-2.77007E-002	-3.77228E-002	6.99344E-001	-4.34544E-002	2.14082E-003	-1.60808E-004	1.97084E-002	1.86202E-002	-9.08694E-004	-1.23746E-003	2.29413E-002	-1.42548E-003
	113	113	1.10026E+000	3.25837E-002	0.00000E+000	3.58507E-002	3.25213E-001	3.93513E-002	4.49107E+001	11	...........	6.57272E-002	-4.90778E-003	6.00801E-001	5.67818E-001	-2.76776E-002	-3.77865E-002	6.99234E-001	-4.33614E-002	2.14164E-003	-1.59914E-004	1.95763E-002	1.85016E-002	-9.01841E-004	-1.23123E-003	2.27836E-002	-1.41288E-003
	114	114	1.10015E+000	3.24526E-002	0.00000E+000	3.57029E-002	3.23912E-001	3.90283E-002	4.73626E+001	11	...........	6.52187E-002	-4.85097E-003	6.00605E-001	5.67787E-001	-2.76804E-002	-3.77844E-002	6.99324E-001	-4.33482E-002	2.11652E-003	-1.57427E-004	1.94912E-002	1.84262E-002	-8.98302E-004	-1.22620E-003	2.26949E-002	-1.40676E-003
	115	115	1.10018E+000	3.26607E-002	0.00000E+000	3.59328E-002	3.25976E-001	3.93776E-002	4.73806E+001	11	...........	6.58025E-002	-4.91486E-003	6.00616E-001	5.67886E-001	-2.76318E-002	-3.77624E-002	6.99251E-001	-4.33778E-002	2.14916E-003	-1.60523E-004	1.96166E-002	1.85476E-002	-9.02475E-004	-1.23335E-003	2.28381E-002	-1.41675E-003
	116	116	1.10026E+000	3.23639E-002	0.00000E+000	3.56088E-002	3.23027E-001	3.90656E-002	4.67446E+001	11	...........	6.52042E-002	-4.85875E-003	6.00469E-001	5.68071E-001	-2.77007E-002	-3.78275E-002	6.99154E-001	-4.34524E-002	2.11026E-003	-1.57248E-004	1.94335E-002	1.83850E-002	-8.96504E-004	-1.22425E-003	2.26274E-002	-1.40629E-003
	117	117	1.10016E+000	3.22398E-002	0.00000E+000	3.54688E-002	3.21791E-001	3.93485E-002	4.77087E+001	11	...........	6.57122E-002	-4.88958E-003	6.00374E-001	5.68100E-001	-2.76944E-002	-3.78036E-002	6.99098E-001	-4.33639E-002	2.11855E-003	-1.57639E-004	1.93559E-002	1.83154E-002	-8.92863E-004	-1.21878E-003	2.25388E-002	-1.39804E-003
	118	118	1.10018E+000	3.24293E-002	0.00000E+000	3.56782E-002	3.23677E-001	3.91764E-002	4.82896E+001	11	...........	6.54587E-002	-4.96875E-003	6.00170E-001	5.68091E-001	-2.76907E-002	-3.77467E-002	6.99177E-001	-4.33439E-002	2.12278E-003	-1.61133E-004	1.94631E-002	1.84228E-002	-8.97991E-004	-1.22410E-003	2.26738E-002	-1.40561E-003
	119	119	1.10026E+000	3.22051E-002	0.00000E+000	3.54339E-002	3.21451E-001	3.92311E-002	4.83703E+001	11	...........	6.55062E-002	-4.96083E-003	6.00139E-001	5.68091E-001	-2.77040E-002	-3.77675E-002	6.99147E-001	-4.33861E-002	2.10963E-003	-1.59764E-004	1.93275E-002	1.82954E-002	-8.92210E-004	-1.21630E-003	2.25161E-002	-1.39725E-003
	120	120	1.10016E+000	3.20016E-002	0.00000E+000	3.52068E-002	3.19429E-001	3.90158E-002	4.60154E+001	11	...........	6.51626E-002	-4.97194E-003	6.00116E-001	5.68089E-001	-2.77232E-002	-3.77569E-002	6.99159E-001	-4.33362E-002	2.08531E-003	-1.59110E-004	1.92046E-002	1.81797E-002	-8.87186E-004	-1.20828E-003	2.23742E-002	-1.38683E-003
	121	121	1.10018E+000	3.21201E-002	0.00000E+000	3.53379E-002	3.20607E-001	3.90029E-002	4.48722E+001	11	...........	6.51287E-002	-4.88667E-003	6.00227E-001	5.68008E-001	-2.77110E-002	-3.77768E-002	6.99145E-001	-4.34762E-002	2.09194E-003	-1.56960E-004	1.92793E-002	1.82445E-002	-8.90078E-004	-1.21339E-003	2.24566E-002	-1.39646E-003
	122	122	1.10026E+000	3.20003E-002	0.00000E+000	3.52085E-002	3.19415E-001	3.94002E-002	4.73691E+001	11	...........	6.58206E-002	-4.94986E-003	6.00355E-001	5.67937E-001	-2.77233E-002	-3.77921E-002	6.99056E-001	-4.34300E-002	2.10627E-003	-1.58397E-004	1.92115E-002	1.81741E-002	-8.87154E-004	-1.20936E-003	2.23700E-002	-1.38977E-003
	123	123	1.10016E+000	3.18124E-002	0.00000E+000	3.49989E-002	3.17543E-001	3.89083E-002	4.72968E+001	11	...........	6.49982E-002	-4.95667E-003	6.00388E-001	5.67911E-001	-2.76778E-002	-3.78018E-002	6.99170E-001	-4.34154E-002	2.06775E-003	-1.57684E-004	1.90998E-002	1.80666E-002	-8.80497E-004	-1.20257E-003	2.22423E-002	-1.38115E-003
	124	124	1.10018E+000	3.19490E-002	0.00000E+000	3.51497E-002	3.18904E-001	3.92936E-002	4.63016E+001	11	...........	6.56443E-002	-4.92889E-003	6.00573E-001	5.67942E-001	-2.76893E-002	-3.78075E-002	6.99165E-001	-4.33326E-002	2.09727E-003	-1.57473E-004	1.91877E-002	1.81452E-002	-8.84645E-004	-1.20791E-003	2.23376E-002	-1.38443E-003
	125	125	1.10026E+000	3.17566E-002	0.00000E+000	3.49404E-002	3.16991E-001	3.90941E-002	4.77362E+001	11	...........	6.52914E-002	-4.92208E-003	6.00545E-001	5.68015E-001	-2.76754E-002	-3.78361E-002	6.99112E-001	-4.33003E-002	2.07343E-003	-1.56309E-004	1.90713E-002	1.80382E-002	-8.78876E-004	-1.20155E-003	2.22014E-002	-1.37507E-003
	126	126	1.10017E+000	3.15674E-002	0.00000E+000	3.47294E-002	3.15103E-001	3.90402E-002	4.79342E+001	11	...........	6.51742E-002	-4.98000E-003	6.00701E-001	5.68218E-001	-2.76686E-002	-3.78311E-002	6.99115E-001	-4.34925E-002	2.05738E-003	-1.57206E-004	1.89626E-002	1.79372E-002	-8.73426E-004	-1.19423E-003	2.20692E-002	-1.37294E-003
	127	127	1.10018E+000	3.17543E-002	0.00000E+000	3.49354E-002	3.16961E-001	3.91319E-002	4.78542E+001	11	...........	6.53424E-002	-4.87458E-003	6.00898E-001	5.68259E-001	-2.77149E-002	-3.78229E-002	6.99088E-001	-4.34172E-002	2.07490E-003	-1.54789E-004	1.90811E-002	1.80447E-002	-8.80065E-004	-1.20104E-003	2.21990E-002	-1.37868E-003
	128	128	1.10025E+000	3.15192E-002	0.00000E+000	3.46792E-002	3.14629E-001	3.89228E-002	4.56043E+001	11	...........	6.49917E-002	-4.92681E-003	6.00818E-001	5.68340E-001	-2.76822E-002	-3.78407E-002	6.99044E-001	-4.33918E-002	2.04849E-003	-1.55289E-004	1.89373E-002	1.79137E-002	-8.72523E-004	-1.19271E-003	2.20333E-002	-1.36768E-003
	129	129	1.10017E+000	3.13492E-002	0.00000E+000	3.44894E-002	3.12940E-001	3.87993E-002	4.54969E+001	11	...........	6.47904E-002	-4.91889E-003	6.00564E-001	5.68335E-001	-2.77100E-002	-3.78485E-002	6.99075E-001	-4.34333E-002	2.03113E-003	-1.54203E-004	1.88272E-002	1.78169E-002	-8.68686E-004	-1.18652E-003	2.19154E-002	-1.36160E-003
	130	130	1.10018E+000	3.15717E-002	0.00000E+000	3.47346E-002	3.15145E-001	3.93191E-002	4.73228E+001	11	...........	6.56806E-002	-5.02597E-003	6.00713E-001	5.68137E-001	-2.77219E-002	-3.78197E-002	6.99071E-001	-4.35276E-002	2.07365E-003	-1.58679E-004	1.89655E-002	1.79371E-002	-8.75229E-004	-1.19403E-003	2.20709E-002	-1.37424E-003
	131	131	1.10025E+000	3.13464E-002	0.00000E+000	3.44889E-002	3.12908E-001	3.87582E-002	4.69841E+001	11	...........	6.47203E-002	-4.97597E-003	6.00626E-001	5.68131E-001	-2.76771E-002	-3.77928E-002	6.99106E-001	-4.35419E-002	2.02875E-003	-1.55979E-004	1.88274E-002	1.78088E-002	-8.67576E-004	-1.18467E-003	2.19144E-002	-1.36488E-003
	132	132	1.10017E+000	3.11346E-002	0.00000E+000	3.42535E-002	3.10800E-001	3.90701E-002	4.58203E+001	11	...........	6.52471E-002	-4.97792E-003	6.00434E-001	5.68276E-001	-2.76667E-002	-3.78101E-002	6.99107E-001	-4.33572E-002	2.03144E-003	-1.54986E-004	1.86943E-002	1.76931E-002	-8.61392E-004	-1.17721E-003	2.17664E-002	-1.34991E-003
	133	133	1.10018E+000	3.13388E-002	0.00000E+000	3.44782E-002	3.12833E-001	3.90490E-002	4.77450E+001	11	...........	6.52100E-002	-4.90944E-003	6.00453E-001	5.68386E-001	-2.76267E-002	-3.77949E-002	6.99091E-001	-4.32908E-002	2.04360E-003	-1.53856E-004	1.88175E-002	1.78125E-002	-8.65786E-004	-1.18444E-003	2.19087E-002	-1.35668E-003
	134	134	1.10025E+000	3.11389E-002	0.00000E+000	3.42607E-002	3.10843E-001	3.89246E-002	4.70695E+001	11	...........	6.50018E-002	-4.88014E-003	6.00385E-001	5.68468E-001	-2.76211E-002	-3.77965E-002	6.99071E-001	-4.31707E-002	2.02409E-003	-1.51962E-004	1.86953E-002	1.77015E-002	-8.60091E-004	-1.17694E-003	2.17683E-002	-1.34429E-003
	135	135	1.10017E+000	3.09443E-002	0.00000E+000	3.40441E-002	3.08908E-001	3.88612E-002	4.72011E+001	11	...........	6.48872E-002	-4.89486E-003	6.00347E-001	5.68560E-001	-2.76035E-002	-3.78079E-002	6.99133E-001	-4.33336E-002	2.00789E-003	-1.51468E-004	1.85773E-002	1.75937E-002	-8.54170E-004	-1.16994E-003	2.16342E-002	-1.34093E-003
	136	136	1.10018E+000	3.11249E-002	0.00000E+000	3.42429E-002	3.10705E-001	3.89935E-002	4.85591E+001	11	...........	6.51092E-002	-5.03903E-003	6.00431E-001	5.68591E-001	-2.75832E-002	-3.77889E-002	6.99182E-001	-4.31685E-002	2.02652E-003	-1.56839E-004	1.86884E-002	1.76973E-002	-8.58525E-004	-1.17618E-003	2.17620E-002	-1.34362E-003
	137	137	1.10025E+000	3.09308E-002	0.00000E+000	3.40315E-002	3.08773E-001	3.87416E-002	4.53229E+001	11	...........	6.47229E-002	-5.00736E-003	6.00345E-001	5.68596E-001	-2.75575E-002	-3.77547E-002	6.99058E-001	-4.32747E-002	2.00193E-003	-1.54881E-004	1.85691E-002	1.75871E-002	-8.52374E-004	-1.16778E-003	2.16224E-002	-1.33852E-003
	138	138	1.10018E+000	3.07262E-002	0.00000E+000	3.38042E-002	3.06743E-001	3.89289E-002	4.72761E+001	11	...........	6.50247E-002	-5.00458E-003	6.00443E-001	5.68628E-001	-2.75682E-002	-3.77512E-002	6.99156E-001	-4.34089E-002	1.99796E-003	-1.53772E-004	1.84493E-002	1.74718E-002	-8.47065E-004	-1.15995E-003	2.14824E-002	-1.33379E-003
	139	139	1.10018E+000	3.08621E-002	0.00000E+000	3.39537E-002	3.08092E-001	3.87486E-002	4.59226E+001	11	...........	6.46601E-002	-5.04111E-003	6.00616E-001	5.68559E-001	-2.75608E-002	-3.77551E-002	6.99186E-001	-4.34525E-002	1.99555E-003	-1.55579E-004	1.85363E-002	1.75469E-002	-8.50584E-004	-1.16520E-003	2.15783E-002	-1.34103E-003
	140	140	1.10025E+000	3.07785E-002	0.00000E+000	3.38640E-002	3.07263E-001	3.89991E-002	4.72687E+001	11	...........	6.51221E-002	-4.94403E-003	6.00691E-001	5.68275E-001	-2.75560E-002	-3.77292E-002	6.99181E-001	-4.33950E-002	2.00436E-003	-1.52170E-004	1.84883E-002	1.74906E-002	-8.48130E-004	-1.16125E-003	2.15197E-002	-1.33563E-003
	141	141	1.10018E+000	3.05308E-002	0.00000E+000	3.35893E-002	3.04799E-001	3.87975E-002	4.84906E+001	11	...........	6.48118E-002	-4.97639E-003	6.00792E-001	5.68241E-001	-2.75407E-002	-3.77510E-002	6.99173E-001	-4.32981E-002	1.97876E-003	-1.51933E-004	1.83427E-002	1.73488E-002	-8.40839E-004	-1.15257E-003	2.13463E-002	-1.32192E-003
	142	142	1.10018E+000	3.06604E-002	0.00000E+000	3.37319E-002	3.06087E-001	3.88546E-002	4.63284E+001	11	...........	6.48526E-002	-4.95556E-003	6.00842E-001	5.68262E-001	-2.75576E-002	-3.77885E-002	6.99195E-001	-4.32506E-002	1.98841E-003	-1.51939E-004	1.84221E-002	1.74231E-002	-8.44928E-004	-1.15861E-003	2.14376E-002	-1.32608E-003
	143	143	1.10025E+000	3.05766E-002	0.00000E+000	3.36418E-002	3.05255E-001	3.88035E-002	4.75867E+001	11	...........	6.47954E-002	-4.84417E-003	6.00775E-001	5.68075E-001	-2.75464E-002	-3.77935E-002	6.99141E-001	-4.31871E-002	1.98122E-003	-1.48118E-004	1.83697E-002	1.73698E-002	-8.42275E-004	-1.15560E-003	2.13774E-002	-1.32051E-003
	144	144	1.10018E+000	3.03256E-002	0.00000E+000	3.33636E-002	3.02763E-001	3.87888E-002	4.79702E+001	11	...........	6.47357E-002	-4.84306E-003	6.00798E-001	5.68030E-001	-2.75471E-002	-3.77614E-002	6.99058E-001	-4.32115E-002	1.96315E-003	-1.46869E-004	1.82196E-002	1.72258E-002	-8.35382E-004	-1.14514E-003	2.11994E-002	-1.31042E-003
	145	145	1.10018E+000	3.04452E-002	0.00000E+000	3.34951E-002	3.03951E-001	3.85743E-002	4.58003E+001	11	...........	6.44208E-002	-5.00819E-003	6.00718E-001	5.67976E-001	-2.75532E-002	-3.77811E-002	6.99094E-001	-4.33125E-002	1.96130E-003	-1.52475E-004	1.82890E-002	1.72921E-002	-8.38862E-004	-1.15025E-003	2.12841E-002	-1.31866E-003
	146	146	1.10024E+000	3.03399E-002	0.00000E+000	3.33812E-002	3.02903E-001	3.87190E-002	4.71011E+001	11	...........	6.46665E-002	-4.93500E-003	6.00722E-001	5.68059E-001	-2.75476E-002	-3.77878E-002	6.99036E-001	-4.33678E-002	1.96197E-003	-1.49727E-004	1.82258E-002	1.72348E-002	-8.35792E-004	-1.14648E-003	2.12087E-002	-1.31577E-003
	147	147	1.10018E+000	3.01432E-002	0.00000E+000	3.31630E-002	3.00946E-001	3.89494E-002	4.84225E+001	11	...........	6.50432E-002	-4.97819E-003	6.00928E-001	5.67968E-001	-2.75190E-002	-3.77533E-002	6.99132E-001	-4.33525E-002	1.96061E-003	-1.50059E-004	1.81139E-002	1.71204E-002	-8.29511E-004	-1.13801E-003	2.10741E-002	-1.30678E-003
	148	148	1.10018E+000	3.02471E-002	0.00000E+000	3.32771E-002	3.01980E-001	3.85494E-002	4.73266E+001	11	...........	6.43962E-002	-5.01083E-003	6.00858E-001	5.67921E-001	-2.75324E-002	-3.77293E-002	6.99186E-001	-4.34237E-002	1.94780E-003	-1.51563E-004	1.81742E-002	1.71779E-002	-8.32773E-004	-1.14120E-003	2.11483E-002	-1.31344E-003
	149	149	1.10024E+000	3.01548E-002	0.00000E+000	3.31776E-002	3.01063E-001	3.88691E-002	4.78163E+001	11	...........	6.48982E-002	-5.06861E-003	6.01000E-001	5.67839E-001	-2.74840E-002	-3.77240E-002	6.99247E-001	-4.33297E-002	1.95699E-003	-1.52843E-004	1.81230E-002	1.71231E-002	-8.28776E-004	-1.13756E-003	2.10856E-002	-1.30660E-003
	150	150	1.10018E+000	2.98776E-002	0.00000E+000	3.28709E-002	2.98311E-001	3.87409E-002	4.62563E+001	11	...........	6.46836E-002	-5.00778E-003	6.00860E-001	5.67775E-001	-2.75135E-002	-3.77472E-002	6.99342E-001	-4.33357E-002	1.93259E-003	-1.49620E-004	1.79522E-002	1.69638E-002	-8.22036E-004	-1.12780E-003	2.08946E-002	-1.29477E-003
	151	151	1.10017E+000	3.00106E-002	0.00000E+000	3.30168E-002	2.99627E-001	3.82305E-002	4.57201E+001	11	...........	6.38533E-002	-4.95181E-003	6.00729E-001	5.67731E-001	-2.75001E-002	-3.77783E-002	6.99443E-001	-4.32437E-002	1.91627E-003	-1.48606E-004	1.80282E-002	1.70379E-002	-8.25295E-004	-1.13375E-003	2.09907E-002	-1.29777E-003
	152	152	1.10024E+000	2.99649E-002	0.00000E+000	3.29686E-002	2.99178E-001	3.88479E-002	4.68451E+001	11	...........	6.48451E-002	-4.95764E-003	6.00987E-001	5.67818E-001	-2.75111E-002	-3.77546E-002	6.99377E-001	-4.32672E-002	1.94308E-003	-1.48555E-004	1.80085E-002	1.70146E-002	-8.24369E-004	-1.13131E-003	2.09568E-002	-1.29650E-003
	153	153	1.10019E+000	2.97032E-002	0.00000E+000	3.26792E-002	2.96569E-001	3.87408E-002	4.75764E+001	11	...........	6.46832E-002	-4.95181E-003	6.01125E-001	5.67828E-001	-2.75033E-002	-3.77610E-002	6.99323E-001	-4.33285E-002	1.92130E-003	-1.47085E-004	1.78554E-002	1.68663E-002	-8.16938E-004	-1.12162E-003	2.07722E-002	-1.28700E-003
	154	154	1.10017E+000	2.98722E-002	0.00000E+000	3.28645E-002	2.98253E-001	3.87262E-002	4.69315E+001	11	...........	6.46914E-002	-4.98167E-003	6.01011E-001	5.67739E-001	-2.74950E-002	-3.77476E-002	6.99313E-001	-4.33247E-002	1.93247E-003	-1.48813E-004	1.79535E-002	1.69596E-002	-8.21335E-004	-1.12760E-003	2.08900E-002	-1.29420E-003
	155	155	1.10024E+000	2.97481E-002	0.00000E+000	3.27300E-002	2.97021E-001	3.85508E-002	4.70359E+001	11	...........	6.43575E-002	-4.91347E-003	6.01065E-001	5.67765E-001	-2.75242E-002	-3.77374E-002	6.99186E-001	-4.33540E-002	1.91451E-003	-1.46166E-004	1.78805E-002	1.68899E-002	-8.18792E-004	-1.12261E-003	2.07995E-002	-1.28970E-003
	156	156	1.10019E+000	2.94674E-002	0.00000E+000	3.24198E-002	2.94233E-001	3.84652E-002	4.55549E+001	11	...........	6.42257E-002	-4.86611E-003	6.00942E-001	5.67642E-001	-2.74947E-002	-3.77618E-002	6.99080E-001	-4.33967E-002	1.89256E-003	-1.43392E-004	1.77082E-002	1.67269E-002	-8.10197E-004	-1.11274E-003	2.06000E-002	-1.27879E-003
	157	157	1.10017E+000	2.96756E-002	0.00000E+000	3.26483E-002	2.96300E-001	3.87182E-002	4.63121E+001	11	...........	6.46929E-002	-4.93792E-003	6.00894E-001	5.67653E-001	-2.75087E-002	-3.77650E-002	6.99062E-001	-4.33869E-002	1.91980E-003	-1.46536E-004	1.78319E-002	1.68455E-002	-8.16339E-004	-1.12070E-003	2.07451E-002	-1.28753E-003
	158	158	1.10024E+000	2.96099E-002	0.00000E+000	3.25780E-002	2.95644E-001	3.87369E-002	4.72827E+001	11	...........	6.47107E-002	-4.96194E-003	6.00941E-001	5.67498E-001	-2.74999E-002	-3.78235E-002	6.99174E-001	-4.33765E-002	1.91608E-003	-1.46923E-004	1.77938E-002	1.68036E-002	-8.14269E-004	-1.11995E-003	2.07025E-002	-1.28438E-003
	159	159	1.10019E+000	2.92892E-002	0.00000E+000	3.22238E-002	2.92457E-001	3.84967E-002	4.70700E+001	11	...........	6.42740E-002	-4.96694E-003	6.00944E-001	5.67431E-001	-2.74471E-002	-3.78364E-002	6.99196E-001	-4.34265E-002	1.88254E-003	-1.45478E-004	1.76012E-002	1.66196E-002	-8.03904E-004	-1.10820E-003	2.04789E-002	-1.27193E-003
	160	160	1.10017E+000	2.94200E-002	0.00000E+000	3.23670E-002	2.93758E-001	3.84075E-002	4.57124E+001	11	...........	6.41407E-002	-4.97125E-003	6.01140E-001	5.67546E-001	-2.74890E-002	-3.78362E-002	6.99141E-001	-4.32687E-002	1.88702E-003	-1.46254E-004	1.76855E-002	1.66972E-002	-8.08726E-004	-1.11314E-003	2.05687E-002	-1.27296E-003
	161	161	1.10023E+000	2.93933E-002	0.00000E+000	3.23395E-002	2.93495E-001	3.87680E-002	4.76277E+001	11	...........	6.47381E-002	-5.10139E-003	6.01191E-001	5.67507E-001	-2.74947E-002	-3.78208E-002	6.99254E-001	-4.32942E-002	1.90286E-003	-1.49946E-004	1.76710E-002	1.66809E-002	-8.08160E-004	-1.11168E-003	2.05533E-002	-1.27256E-003
	162	162	1.10020E+000	2.91130E-002	0.00000E+000	3.20300E-002	2.90706E-001	3.86206E-002	4.70522E+001	11	...........	6.45010E-002	-5.08111E-003	6.01196E-001	5.67371E-001	-2.74850E-002	-3.78246E-002	6.99217E-001	-4.32596E-002	1.87782E-003	-1.47926E-004	1.75026E-002	1.65179E-002	-8.00171E-004	-1.10119E-003	2.03563E-002	-1.25942E-003
	163	163	1.10017E+000	2.92378E-002	0.00000E+000	3.21665E-002	2.91949E-001	3.82576E-002	4.64372E+001	11	...........	6.39019E-002	-5.05778E-003	6.01025E-001	5.67340E-001	-2.75178E-002	-3.78039E-002	6.99116E-001	-4.32836E-002	1.86835E-003	-1.47878E-004	1.75726E-002	1.65877E-002	-8.04558E-004	-1.10530E-003	2.04406E-002	-1.26552E-003
	164	164	1.10023E+000	2.92125E-002	0.00000E+000	3.21406E-002	2.91700E-001	3.87907E-002	4.76454E+001	11	...........	6.47782E-002	-5.05833E-003	6.01037E-001	5.67202E-001	-2.75383E-002	-3.78083E-002	6.99097E-001	-4.33676E-002	1.89233E-003	-1.47767E-004	1.75578E-002	1.65694E-002	-8.04464E-004	-1.10448E-003	2.04224E-002	-1.26688E-003
	165	165	1.10020E+000	2.89034E-002	0.00000E+000	3.17996E-002	2.88621E-001	3.83680E-002	4.76505E+001	11	...........	6.41343E-002	-4.93819E-003	6.01044E-001	5.67100E-001	-2.74825E-002	-3.77990E-002	6.99196E-001	-4.33853E-002	1.85370E-003	-1.42731E-004	1.73722E-002	1.63911E-002	-7.94339E-004	-1.09252E-003	2.02092E-002	-1.25398E-003
	166	166	1.10017E+000	2.90440E-002	0.00000E+000	3.19534E-002	2.90023E-001	3.85195E-002	4.55080E+001	11	...........	6.43249E-002	-4.88986E-003	6.01175E-001	5.66941E-001	-2.75118E-002	-3.78024E-002	6.99070E-001	-4.34331E-002	1.86825E-003	-1.42021E-004	1.74605E-002	1.64663E-002	-7.99053E-004	-1.09793E-003	2.03038E-002	-1.26147E-003
	167	167	1.10023E+000	2.90234E-002	0.00000E+000	3.19324E-002	2.89816E-001	3.85664E-002	4.82290E+001	11	...........	6.44260E-002	-4.84264E-003	6.01114E-001	5.67008E-001	-2.74765E-002	-3.78151E-002	6.98995E-001	-4.34264E-002	1.86986E-003	-1.40550E-004	1.74464E-002	1.64565E-002	-7.97462E-004	-1.09752E-003	2.02872E-002	-1.26038E-003
	168	168	1.10020E+000	2.87319E-002	0.00000E+000	3.16109E-002	2.86915E-001	3.85682E-002	4.82723E+001	11	...........	6.44089E-002	-4.83028E-003	6.01320E-001	5.66976E-001	-2.74783E-002	-3.77639E-002	6.98982E-001	-4.34578E-002	1.85059E-003	-1.38783E-004	1.72771E-002	1.62903E-002	-7.89505E-004	-1.08503E-003	2.00831E-002	-1.24862E-003
	169	169	1.10017E+000	2.88574E-002	0.00000E+000	3.17481E-002	2.88167E-001	3.82784E-002	4.70999E+001	11	...........	6.38867E-002	-4.77611E-003	6.01356E-001	5.66902E-001	-2.75039E-002	-3.77404E-002	6.99091E-001	-4.34668E-002	1.84361E-003	-1.37826E-004	1.73536E-002	1.63593E-002	-7.93692E-004	-1.08909E-003	2.01740E-002	-1.25434E-003
	170	170	1.10023E+000	2.87839E-002	0.00000E+000	3.16689E-002	2.87439E-001	3.85762E-002	4.61094E+001	11	...........	6.44072E-002	-4.82833E-003	6.01353E-001	5.66936E-001	-2.74989E-002	-3.77387E-002	6.99176E-001	-4.34657E-002	1.85389E-003	-1.38978E-004	1.73093E-002	1.63186E-002	-7.91526E-004	-1.08627E-003	2.01250E-002	-1.25111E-003
	171	171	1.10021E+000	2.85216E-002	0.00000E+000	3.13796E-002	2.84832E-001	3.83838E-002	4.73418E+001	11	...........	6.40819E-002	-4.72597E-003	6.01303E-001	5.66921E-001	-2.75132E-002	-3.77200E-002	6.99131E-001	-4.34381E-002	1.82772E-003	-1.34792E-004	1.71501E-002	1.61695E-002	-7.84720E-004	-1.07583E-003	1.99403E-002	-1.23892E-003
	172	172	1.10017E+000	2.86715E-002	0.00000E+000	3.15435E-002	2.86322E-001	3.83019E-002	4.71434E+001	11	...........	6.40022E-002	-4.69042E-003	6.01269E-001	5.66853E-001	-2.75467E-002	-3.77136E-002	6.99025E-001	-4.34407E-002	1.83504E-003	-1.34481E-004	1.72393E-002	1.62525E-002	-7.89805E-004	-1.08131E-003	2.00421E-002	-1.24551E-003
	173	173	1.10023E+000	2.86613E-002	0.00000E+000	3.15339E-002	2.86220E-001	3.85900E-002	4.82671E+001	11	...........	6.44715E-002	-4.80625E-003	6.01289E-001	5.67006E-001	-2.75006E-002	-3.77217E-002	6.99057E-001	-4.32611E-002	1.84784E-003	-1.37753E-004	1.72337E-002	1.62511E-002	-7.88201E-004	-1.08115E-003	2.00359E-002	-1.23992E-003
	174	173.035	1.10099E+000	2.59884E-002	0.00000E+000	2.86130E-002	2.59648E-001	3.82119E-002	4.87124E+001	11	...........	6.36865E-002	-4.84127E-003	6.01313E-001	5.67012E-001	-2.73810E-002	-3.79167E-002	6.99115E-001	-4.32024E-002	1.65511E-003	-1.25817E-004	1.56272E-002	1.47357E-002	-7.11586E-004	-9.85392E-004	1.81689E-002	-1.12276E-003
STARTTIMEOFFSET	QUANT	715538.4	Start Time Offset (s)
