EXPLAIN
TAG	PWR800_CHARGE
TITLE	LABEL	PWR Charge	Test Identifier
DATE	LABEL	10/15/2022	Date
TIME	LABEL	11:45:10	Time
NOTES	NOTES	1	Notes...
	
PSTAT	PSTAT	REF3000-21114	Potentiostat
CAPACITY	QUANT	5.30000E-002	Capacity (A-hr)
CELLTYPE	SELECTOR	1	Cell Type
WORKINGCONNECTION	SELECTOR	0	Working Connection
MAXCHARGETIME	VARIABLEANDUNITS	7.20000E+003	s	2.00000E+000	hour(s)	Max Charge Time
CHARGEMODE	MULTIPARAM	0	1.00000E-001	Charge Mode	Constant Current	Amp(s)
CHARGECURRENT	QUANT	0.1	Charge Current (A)
VOLTAGEFINISH	TWOPARAM	T	2.50000E-002	7.20000E+003	Voltage Finish	I (A) <	Max Time(s)
SAMPLETIME	QUANT	1.00000E+000	Sample Period (s)
CHARGESTOPAT1	MULTIPARAM	2	1.10000E+000	Stop At 1	|Voltage| > Limit	V
CHARGESTOPAT2	MULTIPARAM	0	0.00000E+000	Stop At 2	None	N/A
AESELECTOR	AESELECTOR	0x1	T	Set Limits	AE Channels
AESBHCSELECTOR	TOGGLE	F	Save Both Half Cells
IRCOMP	TOGGLE	F	IR Measure
EOC	QUANT	0.2772302	Open Circuit (V)
SEQUENCER	TOGGLE	TRUE	Run as Sequence
PSTATMODEL	IQUANT	5	Pstat Model
PSTATSECTION	LABEL	REF3000-21114	Pstat Section
PSTATSERIALNO	LABEL	21114	Pstat Serial Number
CTRLMODE	IQUANT	0	Control Mode
ELECTROMETER	IQUANT	0	RE=0 or CS=1
IESTAB	IQUANT	0	I/E Stability
CASPEED	IQUANT	4	Control Amp Speed
CONVENTION	IQUANT	1	Current Convention
ICHRANGE	IQUANT	2	Ich Range
ICHRANGEMODE	TOGGLE	T	Ich Auto Range
ICHOFFSETENABLE	TOGGLE	F	Ich Offset Enable
ICHOFFSET	QUANT	0	Ich Offset (V)
ICHFILTER	IQUANT	1	Ich Filter
VCHRANGE	IQUANT	3	Vch Range
VCHRANGEMODE	TOGGLE	T	Vch Auto Range
VCHOFFSETENABLE	TOGGLE	F	Vch Offset Enable
VCHOFFSET	QUANT	0	Vch Offset (V)
VCHFILTER	IQUANT	1	Vch Filter
ACHRANGE	IQUANT	2	Ach Range
ACHOFFSETENABLE	TOGGLE	F	Ach Offset Enable
ACHOFFSET	QUANT	0	Ach Offset (V)
ACHFILTER	IQUANT	1	Ach Filter
IERANGELOWERLIMIT	IQUANT	9	I/E Range Lower Limit
IERANGEMODE	TOGGLE	F	I/E AutoRange
IERANGE	IQUANT	9	I/E Range
POSFEEDENABLE	TOGGLE	F	Positive Feedback IR Comp
POSFEEDRESISTANCE	QUANT	0	Positive Feedback Resistance (ohm)
ACHSELECT	IQUANT	1	Ach Select
SENSECABLEID	IQUANT	13	Sense Cable ID
PWRCABLEID	IQUANT	13	Power Cable ID
DCCALDATE	LABEL		DC Calibration Date
ACCALDATE	LABEL		AC Calibration Date
THERMOSELECT	IQUANT	1	Thermo Select
FRAMEWORKVERSION	LABEL	7.8.6	Framework Version
INSTRUMENTVERSION	LABEL	4.50	Instrument Version
COMPLIANCEVOLTAGE	IQUANT	0	Compliance Voltage
CURVE	TABLE	132
	Pt	T	Vf	Im	Vu	Pwr	Sig	Ach	Temp	IERange	Over	Vf1	Vf2	Vf3	Vf4	Vf5	Vf6	Vf7	Vf8	Pwr1	Pwr2	Pwr3	Pwr4	Pwr5	Pwr6	Pwr7	Pwr8
	#	s	V	A	V	W	V	V	deg C	#	bits	V	V	V	V	V	V	V	V	W	W	W	W	W	W	W	W
	0	1	5.61403E-001	9.98615E-002	0.00000E+000	5.60626E-002	9.94000E-001	3.99171E-002	4.01842E+001	11	...........	6.62096E-002	-3.94014E-003	5.78836E-001	6.37278E-001	-2.93299E-002	-3.84939E-002	6.68232E-001	-4.27401E-002	6.61179E-003	-3.93468E-004	5.78034E-002	6.36395E-002	-2.92892E-003	-3.84406E-003	6.67307E-002	-4.26810E-003
	1	2	7.45404E-001	9.98622E-002	0.00000E+000	7.44376E-002	9.94000E-001	4.00933E-002	4.30725E+001	11	...........	6.64660E-002	-3.99722E-003	5.78901E-001	6.37515E-001	-2.93079E-002	-3.85015E-002	6.68263E-001	-4.26967E-002	6.63744E-003	-3.99171E-004	5.78103E-002	6.36637E-002	-2.92675E-003	-3.84485E-003	6.67342E-002	-4.26378E-003
	2	2.39167	9.98603E-001	9.98627E-002	0.00000E+000	9.97232E-002	9.94000E-001	4.12294E-002	4.86044E+001	11	...........	6.83014E-002	-4.15816E-003	5.78934E-001	6.37452E-001	-2.93606E-002	-3.85021E-002	6.68244E-001	-4.26326E-002	6.82076E-003	-4.15245E-004	5.78139E-002	6.36577E-002	-2.93203E-003	-3.84493E-003	6.67326E-002	-4.25741E-003
	3	3	1.10077E+000	7.17202E-002	0.00000E+000	7.89475E-002	7.14154E-001	4.06458E-002	4.88302E+001	11	...........	6.72902E-002	-4.25685E-003	5.79006E-001	6.37496E-001	-2.93224E-002	-3.85164E-002	6.68095E-001	-4.26635E-002	4.82607E-003	-3.05302E-004	4.15265E-002	4.57213E-002	-2.10301E-003	-2.76241E-003	4.79159E-002	-3.05983E-003
	4	4	1.10011E+000	5.31720E-002	0.00000E+000	5.84953E-002	5.29714E-001	3.99644E-002	4.61454E+001	11	...........	6.62468E-002	-4.14986E-003	5.78976E-001	6.37417E-001	-2.93643E-002	-3.84879E-002	6.68063E-001	-4.25625E-002	3.52247E-003	-2.20656E-004	3.07853E-002	3.38928E-002	-1.56136E-003	-2.04648E-003	3.55222E-002	-2.26313E-003
	5	5	1.10012E+000	4.67953E-002	0.00000E+000	5.14803E-002	4.66316E-001	4.07456E-002	4.82195E+001	11	...........	6.75164E-002	-4.16042E-003	5.78890E-001	6.37295E-001	-2.93610E-002	-3.84672E-002	6.68106E-001	-4.27124E-002	3.15945E-003	-1.94688E-004	2.70894E-002	2.98224E-002	-1.37396E-003	-1.80009E-003	3.12643E-002	-1.99874E-003
	6	6	1.10006E+000	4.34841E-002	0.00000E+000	4.78349E-002	4.33388E-001	4.02115E-002	4.72748E+001	11	...........	6.66596E-002	-4.09000E-003	5.78761E-001	6.37294E-001	-2.93550E-002	-3.84833E-002	6.68116E-001	-4.27625E-002	2.89863E-003	-1.77850E-004	2.51669E-002	2.77121E-002	-1.27647E-003	-1.67341E-003	2.90524E-002	-1.85949E-003
	7	7	1.10001E+000	4.19354E-002	0.00000E+000	4.61292E-002	4.17986E-001	4.03467E-002	4.77726E+001	11	...........	6.68775E-002	-4.01569E-003	5.78567E-001	6.37350E-001	-2.93421E-002	-3.84671E-002	6.68227E-001	-4.26850E-002	2.80453E-003	-1.68400E-004	2.42624E-002	2.67275E-002	-1.23047E-003	-1.61313E-003	2.80224E-002	-1.79001E-003
	8	8	1.10008E+000	4.08084E-002	0.00000E+000	4.48924E-002	4.06783E-001	4.04459E-002	4.65095E+001	11	...........	6.70485E-002	-3.94681E-003	5.78595E-001	6.37262E-001	-2.93147E-002	-3.84793E-002	6.68144E-001	-4.26471E-002	2.73614E-003	-1.61063E-004	2.36115E-002	2.60057E-002	-1.19629E-003	-1.57028E-003	2.72659E-002	-1.74036E-003
	9	9	1.10004E+000	3.96581E-002	0.00000E+000	4.36256E-002	3.95345E-001	3.99972E-002	4.53291E+001	11	...........	6.63189E-002	-3.91403E-003	5.78520E-001	6.37330E-001	-2.92842E-002	-3.84475E-002	6.68159E-001	-4.26503E-002	2.63008E-003	-1.55223E-004	2.29430E-002	2.52753E-002	-1.16135E-003	-1.52475E-003	2.64979E-002	-1.69143E-003
	10	10	1.10000E+000	3.93402E-002	0.00000E+000	4.32741E-002	3.92185E-001	4.04533E-002	4.70447E+001	11	...........	6.70411E-002	-3.97250E-003	5.78582E-001	6.37303E-001	-2.92993E-002	-3.84544E-002	6.68207E-001	-4.27358E-002	2.63741E-003	-1.56279E-004	2.27615E-002	2.50716E-002	-1.15264E-003	-1.51281E-003	2.62874E-002	-1.68124E-003
	11	11	1.10007E+000	3.89430E-002	0.00000E+000	4.28399E-002	3.88236E-001	4.03695E-002	4.70543E+001	11	...........	6.69007E-002	-3.95653E-003	5.78626E-001	6.37355E-001	-2.93106E-002	-3.84485E-002	6.68100E-001	-4.26610E-002	2.60531E-003	-1.54079E-004	2.25334E-002	2.48205E-002	-1.14144E-003	-1.49730E-003	2.60178E-002	-1.66135E-003
	12	12	1.10004E+000	3.82851E-002	0.00000E+000	4.21153E-002	3.81697E-001	4.01932E-002	4.72169E+001	11	...........	6.66297E-002	-3.90403E-003	5.78633E-001	6.37363E-001	-2.93412E-002	-3.84361E-002	6.67995E-001	-4.26197E-002	2.55092E-003	-1.49466E-004	2.21530E-002	2.44015E-002	-1.12333E-003	-1.47153E-003	2.55742E-002	-1.63170E-003
	13	13	1.09999E+000	3.82053E-002	0.00000E+000	4.20255E-002	3.80908E-001	4.02807E-002	4.59448E+001	11	...........	6.67590E-002	-3.93333E-003	5.78793E-001	6.37576E-001	-2.93519E-002	-3.84258E-002	6.68056E-001	-4.25936E-002	2.55055E-003	-1.50274E-004	2.21130E-002	2.43588E-002	-1.12140E-003	-1.46807E-003	2.55233E-002	-1.62730E-003
	14	14	1.10006E+000	3.80387E-002	0.00000E+000	4.18450E-002	3.79249E-001	4.02192E-002	4.56092E+001	11	...........	6.66753E-002	-3.89125E-003	5.78804E-001	6.37627E-001	-2.93471E-002	-3.84224E-002	6.68181E-001	-4.26407E-002	2.53624E-003	-1.48018E-004	2.20170E-002	2.42545E-002	-1.11633E-003	-1.46154E-003	2.54168E-002	-1.62200E-003
	15	15	1.10005E+000	3.75544E-002	0.00000E+000	4.13117E-002	3.74433E-001	4.02552E-002	4.63255E+001	11	...........	6.67037E-002	-3.98194E-003	5.78746E-001	6.37842E-001	-2.93492E-002	-3.84311E-002	6.68153E-001	-4.26626E-002	2.50502E-003	-1.49540E-004	2.17345E-002	2.39538E-002	-1.10219E-003	-1.44326E-003	2.50921E-002	-1.60217E-003
	16	16	1.09999E+000	3.75637E-002	0.00000E+000	4.13198E-002	3.74525E-001	3.97596E-002	4.73236E+001	11	...........	6.65608E-002	-4.00875E-003	5.78509E-001	6.37931E-001	-2.93374E-002	-3.84251E-002	6.68164E-001	-4.26662E-002	2.50027E-003	-1.50583E-004	2.17309E-002	2.39631E-002	-1.10202E-003	-1.44339E-003	2.50987E-002	-1.60270E-003
	17	17	1.10006E+000	3.75002E-002	0.00000E+000	4.12524E-002	3.73895E-001	4.02682E-002	4.61597E+001	11	...........	6.67487E-002	-3.99583E-003	5.78454E-001	6.38086E-001	-2.93343E-002	-3.83887E-002	6.68127E-001	-4.26253E-002	2.50309E-003	-1.49845E-004	2.16922E-002	2.39284E-002	-1.10004E-003	-1.43959E-003	2.50549E-002	-1.59846E-003
	18	18	1.10005E+000	3.70156E-002	0.00000E+000	4.07190E-002	3.69079E-001	4.00804E-002	4.71196E+001	11	...........	6.64146E-002	-3.95264E-003	5.78359E-001	6.37991E-001	-2.93136E-002	-3.84021E-002	6.68111E-001	-4.26211E-002	2.45838E-003	-1.46309E-004	2.14083E-002	2.36156E-002	-1.08506E-003	-1.42148E-003	2.47306E-002	-1.57765E-003
	19	19	1.09999E+000	3.70817E-002	0.00000E+000	4.07895E-002	3.69738E-001	3.98752E-002	4.49634E+001	11	...........	6.61219E-002	-4.09042E-003	5.78403E-001	6.38034E-001	-2.93503E-002	-3.83949E-002	6.67975E-001	-4.25311E-002	2.45191E-003	-1.51680E-004	2.14482E-002	2.36594E-002	-1.08836E-003	-1.42375E-003	2.47696E-002	-1.57712E-003
	20	20	1.10005E+000	3.70943E-002	0.00000E+000	4.08057E-002	3.69862E-001	4.01717E-002	4.62517E+001	11	...........	6.68454E-002	-4.05069E-003	5.78511E-001	6.38190E-001	-2.93814E-002	-3.84024E-002	6.68028E-001	-4.26371E-002	2.47958E-003	-1.50257E-004	2.14594E-002	2.36732E-002	-1.08988E-003	-1.42451E-003	2.47800E-002	-1.58159E-003
	21	21	1.10005E+000	3.66241E-002	0.00000E+000	4.02885E-002	3.65187E-001	3.97503E-002	4.72185E+001	11	...........	6.63119E-002	-4.01097E-003	5.78644E-001	6.38181E-001	-2.94064E-002	-3.84024E-002	6.67992E-001	-4.27204E-002	2.42862E-003	-1.46898E-004	2.11923E-002	2.33728E-002	-1.07698E-003	-1.40645E-003	2.44646E-002	-1.56460E-003
	22	22	1.09999E+000	3.67240E-002	0.00000E+000	4.03960E-002	3.66176E-001	3.97527E-002	4.70542E+001	11	...........	6.63294E-002	-4.00625E-003	5.78800E-001	6.38095E-001	-2.94167E-002	-3.84126E-002	6.68000E-001	-4.27054E-002	2.43588E-003	-1.47125E-004	2.12558E-002	2.34334E-002	-1.08030E-003	-1.41066E-003	2.45316E-002	-1.56831E-003
	23	23	1.10005E+000	3.66733E-002	0.00000E+000	4.03426E-002	3.65676E-001	3.98311E-002	4.61809E+001	11	...........	6.64526E-002	-3.97486E-003	5.78866E-001	6.38256E-001	-2.94147E-002	-3.84211E-002	6.68079E-001	-4.26707E-002	2.43704E-003	-1.45771E-004	2.12289E-002	2.34070E-002	-1.07874E-003	-1.40903E-003	2.45007E-002	-1.56488E-003
	24	24	1.10006E+000	3.63241E-002	0.00000E+000	3.99586E-002	3.62204E-001	3.96741E-002	4.51252E+001	11	...........	6.61918E-002	-3.90306E-003	5.78912E-001	6.38120E-001	-2.94146E-002	-3.84374E-002	6.68058E-001	-4.26439E-002	2.40436E-003	-1.41775E-004	2.10285E-002	2.31791E-002	-1.06846E-003	-1.39620E-003	2.42666E-002	-1.54900E-003
	25	25	1.09999E+000	3.64144E-002	0.00000E+000	4.00555E-002	3.63101E-001	3.96752E-002	4.76527E+001	11	...........	6.61903E-002	-3.92069E-003	5.78922E-001	6.38041E-001	-2.94057E-002	-3.84599E-002	6.67881E-001	-4.26631E-002	2.41028E-003	-1.42770E-004	2.10811E-002	2.32339E-002	-1.07079E-003	-1.40049E-003	2.43205E-002	-1.55355E-003
	26	26	1.10005E+000	3.64015E-002	0.00000E+000	4.00434E-002	3.62970E-001	3.97325E-002	4.61406E+001	11	...........	6.62639E-002	-4.10347E-003	5.79034E-001	6.38138E-001	-2.94753E-002	-3.84801E-002	6.68042E-001	-4.26849E-002	2.41210E-003	-1.49373E-004	2.10777E-002	2.32292E-002	-1.07294E-003	-1.40073E-003	2.43177E-002	-1.55379E-003
	27	27	1.10006E+000	3.60158E-002	0.00000E+000	3.96195E-002	3.59132E-001	3.95042E-002	4.62985E+001	11	...........	6.58933E-002	-4.21819E-003	5.78998E-001	6.38255E-001	-2.94972E-002	-3.84796E-002	6.68012E-001	-4.27431E-002	2.37320E-003	-1.51922E-004	2.08531E-002	2.29873E-002	-1.06237E-003	-1.38587E-003	2.40590E-002	-1.53943E-003
	28	28	1.09999E+000	3.61191E-002	0.00000E+000	3.97306E-002	3.60163E-001	3.98690E-002	4.69501E+001	11	...........	6.64911E-002	-4.16708E-003	5.78919E-001	6.38419E-001	-2.94731E-002	-3.84824E-002	6.67964E-001	-4.27142E-002	2.40160E-003	-1.50511E-004	2.09101E-002	2.30591E-002	-1.06454E-003	-1.38995E-003	2.41263E-002	-1.54280E-003
	29	29	1.10005E+000	3.60833E-002	0.00000E+000	3.96933E-002	3.59809E-001	3.95020E-002	4.67283E+001	11	...........	6.58997E-002	-4.07389E-003	5.78838E-001	6.38724E-001	-2.94617E-002	-3.84596E-002	6.67935E-001	-4.27565E-002	2.37788E-003	-1.46999E-004	2.08864E-002	2.30473E-002	-1.06307E-003	-1.38775E-003	2.41013E-002	-1.54280E-003
	30	30	1.10006E+000	3.57081E-002	0.00000E+000	3.92812E-002	3.56077E-001	3.95853E-002	4.57067E+001	11	...........	6.60404E-002	-4.07611E-003	5.78881E-001	6.38713E-001	-2.94437E-002	-3.84428E-002	6.68047E-001	-4.26965E-002	2.35818E-003	-1.45550E-004	2.06707E-002	2.28072E-002	-1.05138E-003	-1.37272E-003	2.38547E-002	-1.52461E-003
	31	31	1.09999E+000	3.58383E-002	0.00000E+000	3.94217E-002	3.57371E-001	3.97827E-002	4.78722E+001	11	...........	6.63550E-002	-4.02722E-003	5.78927E-001	6.38618E-001	-2.94956E-002	-3.84647E-002	6.68180E-001	-4.27876E-002	2.37805E-003	-1.44329E-004	2.07477E-002	2.28870E-002	-1.05707E-003	-1.37851E-003	2.39464E-002	-1.53343E-003
	32	32	1.10004E+000	3.57852E-002	0.00000E+000	3.93653E-002	3.56847E-001	3.95725E-002	4.55900E+001	11	...........	6.60293E-002	-4.09472E-003	5.79047E-001	6.38538E-001	-2.95235E-002	-3.84800E-002	6.68059E-001	-4.27321E-002	2.36287E-003	-1.46530E-004	2.07213E-002	2.28502E-002	-1.05650E-003	-1.37701E-003	2.39066E-002	-1.52918E-003
	33	33	1.10007E+000	3.53728E-002	0.00000E+000	3.89124E-002	3.52740E-001	3.94192E-002	4.43975E+001	11	...........	6.57696E-002	-3.95722E-003	5.79212E-001	6.38686E-001	-2.94844E-002	-3.84626E-002	6.68166E-001	-4.26846E-002	2.32645E-003	-1.39978E-004	2.04883E-002	2.25921E-002	-1.04295E-003	-1.36053E-003	2.36349E-002	-1.50987E-003
	34	34	1.09999E+000	3.54800E-002	0.00000E+000	3.90275E-002	3.53805E-001	3.94510E-002	4.49760E+001	11	...........	6.58135E-002	-4.02278E-003	5.79156E-001	6.38549E-001	-2.94622E-002	-3.84503E-002	6.68131E-001	-4.26387E-002	2.33506E-003	-1.42728E-004	2.05485E-002	2.26557E-002	-1.04532E-003	-1.36422E-003	2.37053E-002	-1.51282E-003
	35	35	1.10004E+000	3.55773E-002	0.00000E+000	3.91364E-002	3.54775E-001	3.97332E-002	4.70517E+001	11	...........	6.62765E-002	-4.13778E-003	5.79366E-001	6.38681E-001	-2.94786E-002	-3.84468E-002	6.68244E-001	-4.26483E-002	2.35794E-003	-1.47211E-004	2.06123E-002	2.27225E-002	-1.04877E-003	-1.36783E-003	2.37743E-002	-1.51731E-003
	36	36	1.10007E+000	3.51365E-002	0.00000E+000	3.86527E-002	3.50391E-001	3.94274E-002	4.58690E+001	11	...........	6.57712E-002	-4.10431E-003	5.79414E-001	6.38693E-001	-2.95274E-002	-3.84632E-002	6.68155E-001	-4.26293E-002	2.31097E-003	-1.44211E-004	2.03586E-002	2.24414E-002	-1.03749E-003	-1.35146E-003	2.34766E-002	-1.49785E-003
	37	37	1.09999E+000	3.52189E-002	0.00000E+000	3.87403E-002	3.51208E-001	3.96065E-002	4.64597E+001	11	...........	6.60897E-002	-4.05500E-003	5.79468E-001	6.38689E-001	-2.94690E-002	-3.84660E-002	6.68090E-001	-4.27215E-002	2.32761E-003	-1.42813E-004	2.04082E-002	2.24940E-002	-1.03787E-003	-1.35473E-003	2.35294E-002	-1.50461E-003
	38	38	1.10004E+000	3.52736E-002	0.00000E+000	3.88023E-002	3.51754E-001	3.93083E-002	4.38695E+001	11	...........	6.55643E-002	-4.13917E-003	5.79743E-001	6.38753E-001	-2.94271E-002	-3.84742E-002	6.68024E-001	-4.27383E-002	2.31269E-003	-1.46003E-004	2.04496E-002	2.25311E-002	-1.03800E-003	-1.35712E-003	2.35636E-002	-1.50754E-003
	39	39	1.10008E+000	3.49403E-002	0.00000E+000	3.84370E-002	3.48442E-001	3.96701E-002	4.66008E+001	11	...........	6.61858E-002	-4.15694E-003	5.79857E-001	6.38819E-001	-2.95007E-002	-3.84821E-002	6.68200E-001	-4.27185E-002	2.31256E-003	-1.45245E-004	2.02604E-002	2.23205E-002	-1.03076E-003	-1.34458E-003	2.33472E-002	-1.49260E-003
	40	40	1.09998E+000	3.49529E-002	0.00000E+000	3.84477E-002	3.48564E-001	3.93104E-002	4.56556E+001	11	...........	6.55721E-002	-4.14931E-003	5.79809E-001	6.38834E-001	-2.95226E-002	-3.84981E-002	6.68056E-001	-4.26624E-002	2.29193E-003	-1.45030E-004	2.02660E-002	2.23291E-002	-1.03190E-003	-1.34562E-003	2.33505E-002	-1.49117E-003
	41	41	1.10004E+000	3.50650E-002	0.00000E+000	3.85728E-002	3.49677E-001	3.95798E-002	4.70298E+001	11	...........	6.60360E-002	-4.06639E-003	5.79602E-001	6.38846E-001	-2.94561E-002	-3.84693E-002	6.68049E-001	-4.26911E-002	2.31555E-003	-1.42588E-004	2.03238E-002	2.24012E-002	-1.03288E-003	-1.34893E-003	2.34252E-002	-1.49697E-003
	42	42	1.10008E+000	3.46427E-002	0.00000E+000	3.81097E-002	3.45479E-001	3.93781E-002	4.60785E+001	11	...........	6.56949E-002	-3.94347E-003	5.79345E-001	6.38786E-001	-2.94710E-002	-3.84789E-002	6.68163E-001	-4.26962E-002	2.27585E-003	-1.36612E-004	2.00701E-002	2.21293E-002	-1.02095E-003	-1.33301E-003	2.31470E-002	-1.47911E-003
	43	43	1.09998E+000	3.46871E-002	0.00000E+000	3.81553E-002	3.45922E-001	3.94344E-002	4.47538E+001	11	...........	6.57714E-002	-3.92472E-003	5.79226E-001	6.38729E-001	-2.95483E-002	-3.84726E-002	6.68217E-001	-4.26761E-002	2.28142E-003	-1.36137E-004	2.00917E-002	2.21557E-002	-1.02495E-003	-1.33450E-003	2.31785E-002	-1.48031E-003
	44	44	1.10003E+000	3.47540E-002	0.00000E+000	3.82305E-002	3.46589E-001	3.92827E-002	4.56735E+001	11	...........	6.55329E-002	-3.92042E-003	5.79285E-001	6.38765E-001	-2.94907E-002	-3.84690E-002	6.68097E-001	-4.27185E-002	2.27753E-003	-1.36250E-004	2.01325E-002	2.21996E-002	-1.02492E-003	-1.33695E-003	2.32190E-002	-1.48464E-003
	45	45	1.10008E+000	3.43980E-002	0.00000E+000	3.78406E-002	3.43049E-001	3.93771E-002	4.68883E+001	11	...........	6.56876E-002	-3.89528E-003	5.79365E-001	6.38757E-001	-2.94468E-002	-3.84907E-002	6.68147E-001	-4.27056E-002	2.25952E-003	-1.33990E-004	1.99290E-002	2.19720E-002	-1.01291E-003	-1.32400E-003	2.29829E-002	-1.46899E-003
	46	46	1.09999E+000	3.44447E-002	0.00000E+000	3.78887E-002	3.43509E-001	3.95078E-002	4.53923E+001	11	...........	6.59071E-002	-3.99500E-003	5.79441E-001	6.38654E-001	-2.95292E-002	-3.85132E-002	6.68150E-001	-4.27076E-002	2.27015E-003	-1.37606E-004	1.99587E-002	2.19982E-002	-1.01712E-003	-1.32657E-003	2.30142E-002	-1.47105E-003
	47	47	1.10003E+000	3.44901E-002	0.00000E+000	3.79402E-002	3.43960E-001	3.92904E-002	4.63468E+001	11	...........	6.55286E-002	-3.95514E-003	5.79376E-001	6.38653E-001	-2.95443E-002	-3.85210E-002	6.68127E-001	-4.28358E-002	2.26009E-003	-1.36413E-004	1.99828E-002	2.20272E-002	-1.01899E-003	-1.32859E-003	2.30438E-002	-1.47741E-003
	48	48	1.10008E+000	3.41507E-002	0.00000E+000	3.75685E-002	3.40587E-001	3.92453E-002	4.55081E+001	11	...........	6.54717E-002	-3.90500E-003	5.79271E-001	6.38799E-001	-2.94867E-002	-3.85072E-002	6.68151E-001	-4.29340E-002	2.23590E-003	-1.33358E-004	1.97825E-002	2.18154E-002	-1.00699E-003	-1.31505E-003	2.28178E-002	-1.46623E-003
	49	49	1.09998E+000	3.42110E-002	0.00000E+000	3.76316E-002	3.41187E-001	3.93266E-002	4.63492E+001	11	...........	6.56174E-002	-4.07097E-003	5.79309E-001	6.38920E-001	-2.95303E-002	-3.85201E-002	6.68156E-001	-4.27996E-002	2.24484E-003	-1.39272E-004	1.98187E-002	2.18581E-002	-1.01026E-003	-1.31781E-003	2.28583E-002	-1.46422E-003
	50	50	1.10003E+000	3.43220E-002	0.00000E+000	3.77552E-002	3.42292E-001	3.93583E-002	4.58727E+001	11	...........	6.56686E-002	-4.15625E-003	5.79272E-001	6.39051E-001	-2.95374E-002	-3.85040E-002	6.68108E-001	-4.28094E-002	2.25388E-003	-1.42651E-004	1.98818E-002	2.19335E-002	-1.01378E-003	-1.32154E-003	2.29308E-002	-1.46931E-003
	51	51	1.10008E+000	3.39301E-002	0.00000E+000	3.73260E-002	3.38396E-001	3.91152E-002	4.69147E+001	11	...........	6.52667E-002	-4.03292E-003	5.79183E-001	6.38946E-001	-2.94671E-002	-3.84964E-002	6.68244E-001	-4.27858E-002	2.21450E-003	-1.36837E-004	1.96517E-002	2.16795E-002	-9.99821E-004	-1.30619E-003	2.26736E-002	-1.45173E-003
	52	52	1.09998E+000	3.39575E-002	0.00000E+000	3.73527E-002	3.38666E-001	3.92728E-002	4.63159E+001	11	...........	6.55222E-002	-4.06347E-003	5.79148E-001	6.38914E-001	-2.94749E-002	-3.84776E-002	6.68272E-001	-4.27078E-002	2.22497E-003	-1.37985E-004	1.96664E-002	2.16959E-002	-1.00089E-003	-1.30660E-003	2.26929E-002	-1.45025E-003
	53	53	1.10003E+000	3.40228E-002	0.00000E+000	3.74260E-002	3.39317E-001	3.93274E-002	4.50725E+001	11	...........	6.56154E-002	-4.00528E-003	5.79252E-001	6.38748E-001	-2.95437E-002	-3.84708E-002	6.68187E-001	-4.26951E-002	2.23242E-003	-1.36271E-004	1.97078E-002	2.17320E-002	-1.00516E-003	-1.30889E-003	2.27336E-002	-1.45261E-003
	54	54	1.10008E+000	3.36771E-002	0.00000E+000	3.70476E-002	3.35884E-001	3.89538E-002	4.54247E+001	11	...........	6.49912E-002	-3.92556E-003	5.79244E-001	6.38737E-001	-2.95425E-002	-3.84868E-002	6.68246E-001	-4.27375E-002	2.18872E-003	-1.32201E-004	1.95072E-002	2.15108E-002	-9.94905E-004	-1.29612E-003	2.25046E-002	-1.43927E-003
	55	55	1.09998E+000	3.37280E-002	0.00000E+000	3.71003E-002	3.36381E-001	3.93861E-002	4.69317E+001	11	...........	6.56999E-002	-4.03639E-003	5.79133E-001	6.38844E-001	-2.94851E-002	-3.84928E-002	6.68297E-001	-4.27468E-002	2.21592E-003	-1.36139E-004	1.95330E-002	2.15469E-002	-9.94474E-004	-1.29828E-003	2.25403E-002	-1.44176E-003
	56	56	1.10003E+000	3.38021E-002	0.00000E+000	3.71832E-002	3.37120E-001	3.93272E-002	4.60649E+001	11	...........	6.56097E-002	-3.98000E-003	5.79185E-001	6.39026E-001	-2.94962E-002	-3.84976E-002	6.68249E-001	-4.26719E-002	2.21774E-003	-1.34532E-004	1.95776E-002	2.16004E-002	-9.97034E-004	-1.30130E-003	2.25882E-002	-1.44240E-003
	57	57	1.10009E+000	3.34602E-002	0.00000E+000	3.68092E-002	3.33723E-001	3.91059E-002	4.53676E+001	11	...........	6.52360E-002	-3.94708E-003	5.79155E-001	6.39244E-001	-2.95594E-002	-3.84897E-002	6.68153E-001	-4.27128E-002	2.18281E-003	-1.32070E-004	1.93787E-002	2.13892E-002	-9.89066E-004	-1.28788E-003	2.23566E-002	-1.42918E-003
	58	58	1.09998E+000	3.34784E-002	0.00000E+000	3.68257E-002	3.33904E-001	3.92557E-002	4.65604E+001	11	...........	6.54856E-002	-3.92347E-003	5.79295E-001	6.39340E-001	-2.95769E-002	-3.85103E-002	6.68094E-001	-4.26947E-002	2.19235E-003	-1.31351E-004	1.93939E-002	2.14041E-002	-9.90188E-004	-1.28926E-003	2.23667E-002	-1.42935E-003
	59	59	1.10003E+000	3.35347E-002	0.00000E+000	3.68891E-002	3.34463E-001	3.90590E-002	4.49034E+001	11	...........	6.51503E-002	-3.98847E-003	5.79402E-001	6.39220E-001	-2.95562E-002	-3.85262E-002	6.68155E-001	-4.27525E-002	2.18480E-003	-1.33752E-004	1.94301E-002	2.14361E-002	-9.91161E-004	-1.29197E-003	2.24064E-002	-1.43369E-003
	60	60	1.10009E+000	3.32566E-002	0.00000E+000	3.65852E-002	3.31700E-001	3.91692E-002	4.50102E+001	11	...........	6.53164E-002	-3.84986E-003	5.79292E-001	6.39170E-001	-2.94989E-002	-3.85162E-002	6.68348E-001	-4.27343E-002	2.17220E-003	-1.28033E-004	1.92653E-002	2.12567E-002	-9.81034E-004	-1.28092E-003	2.22270E-002	-1.42120E-003
	61	61	1.09998E+000	3.32373E-002	0.00000E+000	3.65604E-002	3.31506E-001	3.90053E-002	4.70120E+001	11	...........	6.50554E-002	-3.82222E-003	5.79596E-001	6.39247E-001	-2.95128E-002	-3.85067E-002	6.68303E-001	-4.27242E-002	2.16226E-003	-1.27040E-004	1.92642E-002	2.12468E-002	-9.80924E-004	-1.27986E-003	2.22125E-002	-1.42003E-003
	62	62	1.10002E+000	3.33355E-002	0.00000E+000	3.66699E-002	3.32481E-001	3.92773E-002	4.75304E+001	11	...........	6.55353E-002	-3.87639E-003	5.79590E-001	6.39200E-001	-2.95664E-002	-3.85067E-002	6.68399E-001	-4.28097E-002	2.18465E-003	-1.29221E-004	1.93209E-002	2.13081E-002	-9.85611E-004	-1.28364E-003	2.22814E-002	-1.42708E-003
	63	63	1.10009E+000	3.30105E-002	0.00000E+000	3.63145E-002	3.29249E-001	3.90076E-002	4.54756E+001	11	...........	6.50839E-002	-3.90014E-003	5.79521E-001	6.39061E-001	-2.95710E-002	-3.85164E-002	6.68386E-001	-4.28064E-002	2.14845E-003	-1.28746E-004	1.91303E-002	2.10957E-002	-9.76154E-004	-1.27145E-003	2.20638E-002	-1.41306E-003
	64	64	1.09998E+000	3.29718E-002	0.00000E+000	3.62684E-002	3.28863E-001	3.89264E-002	4.48566E+001	11	...........	6.49304E-002	-3.86083E-003	5.79604E-001	6.39032E-001	-2.95661E-002	-3.85300E-002	6.68457E-001	-4.28231E-002	2.14087E-003	-1.27299E-004	1.91106E-002	2.10700E-002	-9.74847E-004	-1.27040E-003	2.20402E-002	-1.41195E-003
	65	65	1.10002E+000	3.31312E-002	0.00000E+000	3.64450E-002	3.30449E-001	3.92162E-002	4.60689E+001	11	...........	6.54372E-002	-3.89083E-003	5.79634E-001	6.39191E-001	-2.95429E-002	-3.85361E-002	6.68496E-001	-4.28089E-002	2.16801E-003	-1.28908E-004	1.92039E-002	2.11771E-002	-9.78792E-004	-1.27675E-003	2.21481E-002	-1.41831E-003
	66	66	1.10009E+000	3.28122E-002	0.00000E+000	3.60963E-002	3.27280E-001	3.89188E-002	4.58205E+001	11	...........	6.49372E-002	-3.92694E-003	5.79670E-001	6.39398E-001	-2.95307E-002	-3.85524E-002	6.68413E-001	-4.27878E-002	2.13073E-003	-1.28852E-004	1.90202E-002	2.09800E-002	-9.68966E-004	-1.26499E-003	2.19321E-002	-1.40396E-003
	67	67	1.09998E+000	3.27767E-002	0.00000E+000	3.60539E-002	3.26926E-001	3.92126E-002	4.66659E+001	11	...........	6.54339E-002	-3.96792E-003	5.79634E-001	6.39241E-001	-2.95125E-002	-3.85889E-002	6.68254E-001	-4.27661E-002	2.14471E-003	-1.30055E-004	1.89985E-002	2.09522E-002	-9.67322E-004	-1.26482E-003	2.19031E-002	-1.40173E-003
	68	68	1.10002E+000	3.28721E-002	0.00000E+000	3.61600E-002	3.27876E-001	3.89458E-002	4.65335E+001	11	...........	6.49844E-002	-3.98833E-003	5.79810E-001	6.39069E-001	-2.95157E-002	-3.85885E-002	6.68333E-001	-4.27043E-002	2.13618E-003	-1.31105E-004	1.90596E-002	2.10076E-002	-9.70244E-004	-1.26849E-003	2.19695E-002	-1.40378E-003
	69	69	1.10009E+000	3.25911E-002	0.00000E+000	3.58531E-002	3.25082E-001	3.90735E-002	4.56668E+001	11	...........	6.52011E-002	-4.01097E-003	5.79946E-001	6.39014E-001	-2.95136E-002	-3.85760E-002	6.68448E-001	-4.25658E-002	2.12497E-003	-1.30722E-004	1.89011E-002	2.08261E-002	-9.61880E-004	-1.25723E-003	2.17855E-002	-1.38727E-003
	70	70	1.09999E+000	3.25089E-002	0.00000E+000	3.57593E-002	3.24270E-001	3.88817E-002	4.70135E+001	11	...........	6.48772E-002	-3.94972E-003	5.79937E-001	6.39193E-001	-2.95200E-002	-3.85667E-002	6.68366E-001	-4.25937E-002	2.10909E-003	-1.28401E-004	1.88531E-002	2.07795E-002	-9.59663E-004	-1.25376E-003	2.17279E-002	-1.38468E-003
	71	71	1.10002E+000	3.26337E-002	0.00000E+000	3.58977E-002	3.25508E-001	3.89778E-002	4.57296E+001	11	...........	6.50115E-002	-4.02722E-003	5.79956E-001	6.39185E-001	-2.95156E-002	-3.85726E-002	6.68245E-001	-4.26935E-002	2.12157E-003	-1.31423E-004	1.89261E-002	2.08590E-002	-9.63202E-004	-1.25877E-003	2.18073E-002	-1.39325E-003
	72	72	1.10009E+000	3.23967E-002	0.00000E+000	3.56394E-002	3.23152E-001	3.90506E-002	4.70338E+001	11	...........	6.51419E-002	-4.10250E-003	5.79854E-001	6.39114E-001	-2.95276E-002	-3.85704E-002	6.68117E-001	-4.26786E-002	2.11039E-003	-1.32908E-004	1.87854E-002	2.07052E-002	-9.56599E-004	-1.24956E-003	2.16448E-002	-1.38265E-003
	73	73	1.09998E+000	3.23232E-002	0.00000E+000	3.55549E-002	3.22420E-001	3.85216E-002	4.59317E+001	11	...........	6.47649E-002	-4.00292E-003	5.79856E-001	6.39219E-001	-2.95344E-002	-3.85606E-002	6.68034E-001	-4.28285E-002	2.09340E-003	-1.29387E-004	1.87428E-002	2.06616E-002	-9.54646E-004	-1.24640E-003	2.15930E-002	-1.38435E-003
	74	74	1.10002E+000	3.24106E-002	0.00000E+000	3.56522E-002	3.23287E-001	3.90208E-002	4.62513E+001	11	...........	6.50992E-002	-3.87500E-003	5.80006E-001	6.39218E-001	-2.95436E-002	-3.85332E-002	6.68121E-001	-4.27656E-002	2.10990E-003	-1.25591E-004	1.87983E-002	2.07174E-002	-9.57525E-004	-1.24888E-003	2.16542E-002	-1.38606E-003
	75	75	1.10009E+000	3.21401E-002	0.00000E+000	3.53571E-002	3.20600E-001	3.88130E-002	4.47381E+001	11	...........	6.47486E-002	-3.84042E-003	5.79921E-001	6.39261E-001	-2.95647E-002	-3.85204E-002	6.68285E-001	-4.27592E-002	2.08103E-003	-1.23431E-004	1.86387E-002	2.05459E-002	-9.50214E-004	-1.23805E-003	2.14788E-002	-1.37428E-003
	76	76	1.09999E+000	3.21093E-002	0.00000E+000	3.53198E-002	3.20294E-001	3.89618E-002	4.68817E+001	11	...........	6.50215E-002	-3.95167E-003	5.80031E-001	6.39012E-001	-2.95929E-002	-3.85318E-002	6.68249E-001	-4.27410E-002	2.08780E-003	-1.26885E-004	1.86244E-002	2.05182E-002	-9.50209E-004	-1.23723E-003	2.14570E-002	-1.37238E-003
	77	77	1.10002E+000	3.22061E-002	0.00000E+000	3.54274E-002	3.21256E-001	3.89182E-002	4.63130E+001	11	...........	6.49375E-002	-3.98194E-003	5.80191E-001	6.38979E-001	-2.96035E-002	-3.85522E-002	6.68188E-001	-4.27644E-002	2.09138E-003	-1.28243E-004	1.86857E-002	2.05790E-002	-9.53412E-004	-1.24162E-003	2.15197E-002	-1.37727E-003
	78	78	1.10009E+000	3.19599E-002	0.00000E+000	3.51587E-002	3.18806E-001	3.88389E-002	4.60830E+001	11	...........	6.48057E-002	-3.89458E-003	5.80149E-001	6.39151E-001	-2.95576E-002	-3.85358E-002	6.68099E-001	-4.27514E-002	2.07118E-003	-1.24470E-004	1.85415E-002	2.04272E-002	-9.44658E-004	-1.23160E-003	2.13524E-002	-1.36633E-003
	79	79	1.09999E+000	3.18321E-002	0.00000E+000	3.50149E-002	3.17533E-001	3.86794E-002	4.42885E+001	11	...........	6.45432E-002	-3.94681E-003	5.80066E-001	6.39116E-001	-2.95407E-002	-3.85414E-002	6.67992E-001	-4.27739E-002	2.05454E-003	-1.25635E-004	1.84647E-002	2.03444E-002	-9.40342E-004	-1.22685E-003	2.12636E-002	-1.36158E-003
	80	80	1.10002E+000	3.19909E-002	0.00000E+000	3.51905E-002	3.19112E-001	3.89274E-002	4.65960E+001	11	...........	6.49535E-002	-3.96000E-003	5.80045E-001	6.38946E-001	-2.95375E-002	-3.85235E-002	6.67985E-001	-4.27925E-002	2.07792E-003	-1.26684E-004	1.85562E-002	2.04404E-002	-9.44931E-004	-1.23240E-003	2.13694E-002	-1.36897E-003
	81	81	1.10009E+000	3.17431E-002	0.00000E+000	3.49203E-002	3.16652E-001	3.87708E-002	4.62654E+001	11	...........	6.46935E-002	-3.97944E-003	5.79987E-001	6.38913E-001	-2.95196E-002	-3.85076E-002	6.68068E-001	-4.26961E-002	2.05357E-003	-1.26320E-004	1.84106E-002	2.02811E-002	-9.37043E-004	-1.22235E-003	2.12065E-002	-1.35531E-003
	82	82	1.09999E+000	3.16255E-002	0.00000E+000	3.47876E-002	3.15479E-001	3.87870E-002	4.63481E+001	11	...........	6.47064E-002	-4.00000E-003	5.79921E-001	6.39128E-001	-2.95172E-002	-3.84961E-002	6.67958E-001	-4.26996E-002	2.04637E-003	-1.26502E-004	1.83403E-002	2.02127E-002	-9.33495E-004	-1.21746E-003	2.11245E-002	-1.35039E-003
	83	83	1.10002E+000	3.17426E-002	0.00000E+000	3.49174E-002	3.16642E-001	3.89090E-002	4.54093E+001	11	...........	6.48978E-002	-3.99056E-003	5.79942E-001	6.39136E-001	-2.95303E-002	-3.85031E-002	6.68061E-001	-4.27631E-002	2.06002E-003	-1.26671E-004	1.84089E-002	2.02878E-002	-9.37367E-004	-1.22219E-003	2.12060E-002	-1.35741E-003
	84	84	1.10009E+000	3.15519E-002	0.00000E+000	3.47099E-002	3.14749E-001	3.86543E-002	4.55712E+001	11	...........	6.44649E-002	-3.95389E-003	5.79785E-001	6.38905E-001	-2.95581E-002	-3.85083E-002	6.68127E-001	-4.26419E-002	2.03399E-003	-1.24753E-004	1.82933E-002	2.01587E-002	-9.32614E-004	-1.21501E-003	2.10807E-002	-1.34544E-003
	85	85	1.09999E+000	3.14418E-002	0.00000E+000	3.45857E-002	3.13656E-001	3.87717E-002	4.69294E+001	11	...........	6.46828E-002	-3.95875E-003	5.79798E-001	6.38831E-001	-2.95867E-002	-3.85033E-002	6.68150E-001	-4.26324E-002	2.03374E-003	-1.24470E-004	1.82299E-002	2.00860E-002	-9.30258E-004	-1.21061E-003	2.10078E-002	-1.34044E-003
	86	86	1.10002E+000	3.15533E-002	0.00000E+000	3.47091E-002	3.14760E-001	3.87437E-002	4.58538E+001	11	...........	6.46151E-002	-4.03319E-003	5.79726E-001	6.38759E-001	-2.96049E-002	-3.85165E-002	6.68080E-001	-4.26589E-002	2.03882E-003	-1.27261E-004	1.82923E-002	2.01549E-002	-9.34131E-004	-1.21532E-003	2.10801E-002	-1.34603E-003
	87	87	1.10009E+000	3.13138E-002	0.00000E+000	3.44480E-002	3.12379E-001	3.87004E-002	4.52555E+001	11	...........	6.45669E-002	-3.95944E-003	5.79644E-001	6.38748E-001	-2.96086E-002	-3.85075E-002	6.67995E-001	-4.27408E-002	2.02184E-003	-1.23985E-004	1.81509E-002	2.00016E-002	-9.27159E-004	-1.20582E-003	2.09175E-002	-1.33838E-003
	88	88	1.09999E+000	3.12059E-002	0.00000E+000	3.43263E-002	3.11308E-001	3.87437E-002	4.65854E+001	11	...........	6.46526E-002	-3.92056E-003	5.79656E-001	6.38686E-001	-2.96350E-002	-3.85165E-002	6.67783E-001	-4.27649E-002	2.01755E-003	-1.22345E-004	1.80887E-002	1.99308E-002	-9.24788E-004	-1.20194E-003	2.08388E-002	-1.33452E-003
	89	89	1.10002E+000	3.13647E-002	0.00000E+000	3.45017E-002	3.12885E-001	3.87788E-002	4.57665E+001	11	...........	6.47187E-002	-3.92944E-003	5.79670E-001	6.38510E-001	-2.96367E-002	-3.85424E-002	6.67988E-001	-4.26435E-002	2.02989E-003	-1.23246E-004	1.81812E-002	2.00267E-002	-9.29546E-004	-1.20887E-003	2.09513E-002	-1.33750E-003
	90	90	1.10009E+000	3.11253E-002	0.00000E+000	3.42406E-002	3.10507E-001	3.86059E-002	4.71747E+001	11	...........	6.44151E-002	-3.99375E-003	5.79573E-001	6.38653E-001	-2.96487E-002	-3.85508E-002	6.68015E-001	-4.25907E-002	2.00494E-003	-1.24307E-004	1.80394E-002	1.98783E-002	-9.22826E-004	-1.19991E-003	2.07922E-002	-1.32565E-003
	91	91	1.09999E+000	3.09664E-002	0.00000E+000	3.40629E-002	3.08930E-001	3.88168E-002	4.49764E+001	11	...........	6.47464E-002	-4.03764E-003	5.79614E-001	6.38730E-001	-2.96543E-002	-3.85429E-002	6.68013E-001	-4.26817E-002	2.00497E-003	-1.25031E-004	1.79486E-002	1.97792E-002	-9.18288E-004	-1.19354E-003	2.06860E-002	-1.32170E-003
	92	92	1.10001E+000	3.11130E-002	0.00000E+000	3.42247E-002	3.10387E-001	3.84232E-002	4.56995E+001	11	...........	6.41003E-002	-3.95125E-003	5.79628E-001	6.38812E-001	-2.96699E-002	-3.85533E-002	6.67987E-001	-4.27064E-002	1.99435E-003	-1.22935E-004	1.80340E-002	1.98754E-002	-9.23119E-004	-1.19951E-003	2.07831E-002	-1.32872E-003
	93	93	1.10009E+000	3.09391E-002	0.00000E+000	3.40357E-002	3.08655E-001	3.86958E-002	4.62651E+001	11	...........	6.45568E-002	-4.05542E-003	5.79797E-001	6.38835E-001	-2.96875E-002	-3.85718E-002	6.68082E-001	-4.26612E-002	1.99733E-003	-1.25471E-004	1.79384E-002	1.97650E-002	-9.18505E-004	-1.19338E-003	2.06699E-002	-1.31990E-003
	94	94	1.10000E+000	3.07701E-002	0.00000E+000	3.38470E-002	3.06977E-001	3.87347E-002	4.70398E+001	11	...........	6.46196E-002	-3.95264E-003	5.79698E-001	6.38986E-001	-2.96858E-002	-3.85932E-002	6.68035E-001	-4.26790E-002	1.98835E-003	-1.21623E-004	1.78373E-002	1.96616E-002	-9.13435E-004	-1.18751E-003	2.05555E-002	-1.31324E-003
	95	95	1.10001E+000	3.08845E-002	0.00000E+000	3.39733E-002	3.08113E-001	3.85787E-002	4.44682E+001	11	...........	6.43711E-002	-3.86431E-003	5.79690E-001	6.39014E-001	-2.96518E-002	-3.85985E-002	6.68036E-001	-4.26987E-002	1.98807E-003	-1.19347E-004	1.79034E-002	1.97356E-002	-9.15780E-004	-1.19209E-003	2.06319E-002	-1.31873E-003
	96	96	1.10008E+000	3.07489E-002	0.00000E+000	3.38263E-002	3.06768E-001	3.85484E-002	4.63255E+001	11	...........	6.43242E-002	-3.94125E-003	5.79638E-001	6.39059E-001	-2.96501E-002	-3.86108E-002	6.68194E-001	-4.26278E-002	1.97790E-003	-1.21189E-004	1.78232E-002	1.96503E-002	-9.11708E-004	-1.18724E-003	2.05462E-002	-1.31076E-003
	97	97	1.10000E+000	3.05653E-002	0.00000E+000	3.36218E-002	3.04943E-001	3.86603E-002	4.71881E+001	11	...........	6.45131E-002	-3.96000E-003	5.79865E-001	6.39154E-001	-2.96436E-002	-3.86022E-002	6.68098E-001	-4.26158E-002	1.97186E-003	-1.21039E-004	1.77238E-002	1.95359E-002	-9.06066E-004	-1.17989E-003	2.04206E-002	-1.30257E-003
	98	98	1.10001E+000	3.06979E-002	0.00000E+000	3.37681E-002	3.06258E-001	3.86642E-002	4.48512E+001	11	...........	6.44933E-002	-3.97792E-003	5.79938E-001	6.39166E-001	-2.96397E-002	-3.86062E-002	6.68073E-001	-4.26728E-002	1.97981E-003	-1.22114E-004	1.78029E-002	1.96210E-002	-9.09876E-004	-1.18513E-003	2.05084E-002	-1.30996E-003
	99	99	1.10008E+000	3.05434E-002	0.00000E+000	3.36002E-002	3.04723E-001	3.85555E-002	4.66787E+001	11	...........	6.43181E-002	-3.86458E-003	5.79927E-001	6.39259E-001	-2.96212E-002	-3.86164E-002	6.68102E-001	-4.27326E-002	1.96449E-003	-1.18037E-004	1.77129E-002	1.95251E-002	-9.04733E-004	-1.17947E-003	2.04061E-002	-1.30520E-003
	100	100	1.10000E+000	3.03518E-002	0.00000E+000	3.33870E-002	3.02816E-001	3.84669E-002	4.59900E+001	11	...........	6.41811E-002	-3.90847E-003	5.79955E-001	6.39288E-001	-2.96086E-002	-3.86044E-002	6.68246E-001	-4.27506E-002	1.94801E-003	-1.18629E-004	1.76027E-002	1.94035E-002	-8.98675E-004	-1.17171E-003	2.02825E-002	-1.29756E-003
	101	101	1.10001E+000	3.04819E-002	0.00000E+000	3.35304E-002	3.04110E-001	3.83804E-002	4.54485E+001	11	...........	6.40292E-002	-3.92431E-003	5.79936E-001	6.39338E-001	-2.96011E-002	-3.85917E-002	6.68026E-001	-4.26832E-002	1.95173E-003	-1.19620E-004	1.76775E-002	1.94882E-002	-9.02297E-004	-1.17635E-003	2.03627E-002	-1.30106E-003
	102	102	1.10008E+000	3.03448E-002	0.00000E+000	3.33818E-002	3.02750E-001	3.87479E-002	4.65151E+001	11	...........	6.46478E-002	-4.00319E-003	5.80170E-001	6.39229E-001	-2.95810E-002	-3.85974E-002	6.68021E-001	-4.27574E-002	1.96172E-003	-1.21476E-004	1.76052E-002	1.93973E-002	-8.97629E-004	-1.17123E-003	2.02710E-002	-1.29746E-003
	103	103	1.10000E+000	3.01348E-002	0.00000E+000	3.31483E-002	3.00664E-001	3.83036E-002	4.61035E+001	11	...........	6.39087E-002	-3.95278E-003	5.80114E-001	6.39161E-001	-2.95478E-002	-3.86137E-002	6.67972E-001	-4.28921E-002	1.92588E-003	-1.19116E-004	1.74816E-002	1.92610E-002	-8.90416E-004	-1.16362E-003	2.01292E-002	-1.29254E-003
	104	104	1.10001E+000	3.03152E-002	0.00000E+000	3.33471E-002	3.02456E-001	3.86435E-002	4.72101E+001	11	...........	6.44735E-002	-3.81847E-003	5.79997E-001	6.39091E-001	-2.95332E-002	-3.86296E-002	6.68211E-001	-4.29503E-002	1.95453E-003	-1.15758E-004	1.75827E-002	1.93742E-002	-8.95304E-004	-1.17106E-003	2.02569E-002	-1.30205E-003
	105	105	1.10008E+000	3.01197E-002	0.00000E+000	3.31341E-002	3.00512E-001	3.85538E-002	4.51186E+001	11	...........	6.43047E-002	-3.87028E-003	5.79947E-001	6.39287E-001	-2.95199E-002	-3.85978E-002	6.68144E-001	-4.29044E-002	1.93684E-003	-1.16572E-004	1.74678E-002	1.92552E-002	-8.89130E-004	-1.16255E-003	2.01243E-002	-1.29227E-003
	106	106	1.10001E+000	2.99411E-002	0.00000E+000	3.29354E-002	2.98737E-001	3.83277E-002	4.40719E+001	11	...........	6.39567E-002	-3.84903E-003	5.79888E-001	6.39494E-001	-2.95050E-002	-3.85797E-002	6.68134E-001	-4.28697E-002	1.91493E-003	-1.15244E-004	1.73625E-002	1.91472E-002	-8.83413E-004	-1.15512E-003	2.00047E-002	-1.28357E-003
	107	107	1.10001E+000	3.01324E-002	0.00000E+000	3.31460E-002	3.00640E-001	3.85050E-002	4.54847E+001	11	...........	6.42503E-002	-4.04472E-003	5.79984E-001	6.39520E-001	-2.95072E-002	-3.85622E-002	6.68187E-001	-4.27599E-002	1.93602E-003	-1.21877E-004	1.74763E-002	1.92703E-002	-8.89124E-004	-1.16197E-003	2.01341E-002	-1.28846E-003
	108	108	1.10008E+000	2.99429E-002	0.00000E+000	3.29395E-002	2.98752E-001	3.84299E-002	4.72423E+001	11	...........	6.41150E-002	-3.95389E-003	5.79939E-001	6.39549E-001	-2.94968E-002	-3.85460E-002	6.68196E-001	-4.28676E-002	1.91979E-003	-1.18391E-004	1.73650E-002	1.91499E-002	-8.83219E-004	-1.15418E-003	2.00077E-002	-1.28358E-003
	109	109	1.10001E+000	2.97344E-002	0.00000E+000	3.27080E-002	2.96684E-001	3.85417E-002	4.61830E+001	11	...........	6.43104E-002	-4.01069E-003	5.79880E-001	6.39417E-001	-2.94928E-002	-3.85622E-002	6.68175E-001	-4.29743E-002	1.91223E-003	-1.19256E-004	1.72424E-002	1.90127E-002	-8.76950E-004	-1.14662E-003	1.98678E-002	-1.27782E-003
	110	110	1.10001E+000	2.98951E-002	0.00000E+000	3.28850E-002	2.98282E-001	3.84819E-002	4.57879E+001	11	...........	6.42015E-002	-4.01306E-003	5.79896E-001	6.39455E-001	-2.94761E-002	-3.85826E-002	6.68265E-001	-4.30382E-002	1.91931E-003	-1.19971E-004	1.73361E-002	1.91166E-002	-8.81192E-004	-1.15343E-003	1.99779E-002	-1.28663E-003
	111	111	1.10008E+000	2.97260E-002	0.00000E+000	3.27009E-002	2.96603E-001	3.83200E-002	4.45804E+001	11	...........	6.39383E-002	-3.97000E-003	5.79832E-001	6.39388E-001	-2.94783E-002	-3.86029E-002	6.68297E-001	-4.28301E-002	1.90063E-003	-1.18012E-004	1.72361E-002	1.90064E-002	-8.76273E-004	-1.14751E-003	1.98658E-002	-1.27317E-003
	112	112	1.10001E+000	2.95664E-002	0.00000E+000	3.25233E-002	2.95015E-001	3.84296E-002	4.56343E+001	11	...........	6.41185E-002	-3.91736E-003	5.79667E-001	6.39238E-001	-2.94804E-002	-3.86001E-002	6.68286E-001	-4.28368E-002	1.89575E-003	-1.15822E-004	1.71387E-002	1.89000E-002	-8.71630E-004	-1.14127E-003	1.97588E-002	-1.26653E-003
	113	113	1.10001E+000	2.97008E-002	0.00000E+000	3.26711E-002	2.96350E-001	3.83447E-002	4.65854E+001	11	...........	6.39710E-002	-4.00778E-003	5.79674E-001	6.38935E-001	-2.94656E-002	-3.86032E-002	6.68251E-001	-4.28414E-002	1.89999E-003	-1.19034E-004	1.72168E-002	1.89769E-002	-8.75150E-004	-1.14654E-003	1.98476E-002	-1.27242E-003
	114	114	1.10008E+000	2.95703E-002	0.00000E+000	3.25297E-002	2.95054E-001	3.84648E-002	4.53499E+001	11	...........	6.41860E-002	-3.95458E-003	5.79868E-001	6.38938E-001	-2.94590E-002	-3.86304E-002	6.68183E-001	-4.28654E-002	1.89800E-003	-1.16938E-004	1.71469E-002	1.88936E-002	-8.71113E-004	-1.14231E-003	1.97584E-002	-1.26754E-003
	115	115	1.10001E+000	2.93028E-002	0.00000E+000	3.22334E-002	2.92392E-001	3.82534E-002	4.43555E+001	11	...........	6.38293E-002	-3.90917E-003	5.79791E-001	6.38959E-001	-2.94531E-002	-3.86417E-002	6.68197E-001	-4.26975E-002	1.87038E-003	-1.14549E-004	1.69895E-002	1.87233E-002	-8.63057E-004	-1.13231E-003	1.95801E-002	-1.25116E-003
	116	116	1.10001E+000	2.95036E-002	0.00000E+000	3.24542E-002	2.94390E-001	3.83922E-002	4.61441E+001	11	...........	6.40578E-002	-3.90083E-003	5.79920E-001	6.39025E-001	-2.94475E-002	-3.86211E-002	6.68222E-001	-4.26894E-002	1.88993E-003	-1.15088E-004	1.71097E-002	1.88535E-002	-8.68806E-004	-1.13946E-003	1.97149E-002	-1.25949E-003
	117	117	1.10008E+000	2.93807E-002	0.00000E+000	3.23209E-002	2.93166E-001	3.84121E-002	4.57164E+001	11	...........	6.40856E-002	-4.03222E-003	5.79914E-001	6.38945E-001	-2.94514E-002	-3.86179E-002	6.68172E-001	-4.27312E-002	1.88288E-003	-1.18469E-004	1.70382E-002	1.87726E-002	-8.65301E-004	-1.13462E-003	1.96313E-002	-1.25547E-003
	118	118	1.10001E+000	2.91592E-002	0.00000E+000	3.20755E-002	2.90968E-001	3.82960E-002	4.68532E+001	11	...........	6.38968E-002	-3.97417E-003	5.79751E-001	6.38916E-001	-2.94560E-002	-3.86326E-002	6.68080E-001	-4.28207E-002	1.86318E-003	-1.15884E-004	1.69051E-002	1.86303E-002	-8.58913E-004	-1.12650E-003	1.94807E-002	-1.24862E-003
	119	119	1.10001E+000	2.93087E-002	0.00000E+000	3.22399E-002	2.92450E-001	3.84491E-002	4.47557E+001	11	...........	6.41424E-002	-3.99264E-003	5.79802E-001	6.39051E-001	-2.94362E-002	-3.86360E-002	6.68240E-001	-4.26972E-002	1.87993E-003	-1.17019E-004	1.69932E-002	1.87298E-002	-8.62738E-004	-1.13237E-003	1.95853E-002	-1.25140E-003
	120	120	1.10007E+000	2.91559E-002	0.00000E+000	3.20735E-002	2.90932E-001	3.80419E-002	4.52735E+001	11	...........	6.34739E-002	-3.81014E-003	5.79805E-001	6.38944E-001	-2.94379E-002	-3.86107E-002	6.68276E-001	-4.26553E-002	1.85064E-003	-1.11088E-004	1.69047E-002	1.86290E-002	-8.58288E-004	-1.12573E-003	1.94841E-002	-1.24365E-003
	121	121	1.10002E+000	2.89755E-002	0.00000E+000	3.18735E-002	2.89143E-001	3.84485E-002	4.57845E+001	11	...........	6.41389E-002	-3.85861E-003	5.79863E-001	6.38842E-001	-2.94303E-002	-3.86197E-002	6.68219E-001	-4.27403E-002	1.85845E-003	-1.11805E-004	1.68018E-002	1.85108E-002	-8.52756E-004	-1.11902E-003	1.93620E-002	-1.23842E-003
	122	122	1.10001E+000	2.91035E-002	0.00000E+000	3.20141E-002	2.90413E-001	3.82561E-002	4.65486E+001	11	...........	6.38025E-002	-3.87181E-003	5.79902E-001	6.38691E-001	-2.94431E-002	-3.86146E-002	6.68164E-001	-4.29082E-002	1.85688E-003	-1.12683E-004	1.68772E-002	1.85881E-002	-8.56896E-004	-1.12382E-003	1.94459E-002	-1.24878E-003
	123	123	1.10007E+000	2.89934E-002	0.00000E+000	3.18948E-002	2.89314E-001	3.82779E-002	4.53188E+001	11	...........	6.38560E-002	-3.84917E-003	5.80102E-001	6.38609E-001	-2.94297E-002	-3.86054E-002	6.68152E-001	-4.28708E-002	1.85140E-003	-1.11600E-004	1.68191E-002	1.85154E-002	-8.53267E-004	-1.11930E-003	1.93720E-002	-1.24297E-003
	124	124	1.10002E+000	2.87604E-002	0.00000E+000	3.16370E-002	2.87003E-001	3.82801E-002	4.56791E+001	11	...........	6.38644E-002	-3.87597E-003	5.80043E-001	6.38719E-001	-2.94465E-002	-3.86122E-002	6.68131E-001	-4.29964E-002	1.83677E-003	-1.11475E-004	1.66823E-002	1.83698E-002	-8.46894E-004	-1.11050E-003	1.92157E-002	-1.23659E-003
	125	125	1.10001E+000	2.88968E-002	0.00000E+000	3.17867E-002	2.88359E-001	3.82995E-002	4.61692E+001	11	...........	6.39000E-002	-3.89306E-003	5.79938E-001	6.38833E-001	-2.94422E-002	-3.86008E-002	6.68092E-001	-4.29040E-002	1.84651E-003	-1.12497E-004	1.67584E-002	1.84602E-002	-8.50786E-004	-1.11544E-003	1.93057E-002	-1.23979E-003
	126	126	1.10007E+000	2.88238E-002	0.00000E+000	3.17082E-002	2.87633E-001	3.82323E-002	4.72190E+001	11	...........	6.37824E-002	-3.82347E-003	5.79840E-001	6.38753E-001	-2.94356E-002	-3.85811E-002	6.68194E-001	-4.27665E-002	1.83845E-003	-1.10207E-004	1.67132E-002	1.84113E-002	-8.48444E-004	-1.11205E-003	1.92599E-002	-1.23269E-003
	127	127	1.10002E+000	2.85473E-002	0.00000E+000	3.14026E-002	2.84887E-001	3.82032E-002	4.48166E+001	11	...........	6.37419E-002	-3.89333E-003	5.79791E-001	6.38850E-001	-2.94343E-002	-3.85737E-002	6.68147E-001	-4.26833E-002	1.81966E-003	-1.11144E-004	1.65515E-002	1.82375E-002	-8.40271E-004	-1.10118E-003	1.90738E-002	-1.21849E-003
	128	128	1.10001E+000	2.87074E-002	0.00000E+000	3.15783E-002	2.86480E-001	3.81107E-002	4.50266E+001	11	...........	6.35729E-002	-3.94014E-003	5.79831E-001	6.38753E-001	-2.94417E-002	-3.85611E-002	6.68089E-001	-4.26651E-002	1.82501E-003	-1.13111E-004	1.66454E-002	1.83369E-002	-8.45193E-004	-1.10699E-003	1.91791E-002	-1.22480E-003
	129	129	1.10007E+000	2.86685E-002	0.00000E+000	3.15373E-002	2.86093E-001	3.83956E-002	4.74943E+001	11	...........	6.40601E-002	-4.03444E-003	5.79860E-001	6.38651E-001	-2.94449E-002	-3.85700E-002	6.68124E-001	-4.26947E-002	1.83651E-003	-1.15662E-004	1.66237E-002	1.83092E-002	-8.44140E-004	-1.10574E-003	1.91541E-002	-1.22399E-003
	130	130	1.10002E+000	2.83785E-002	0.00000E+000	3.12170E-002	2.83208E-001	3.81187E-002	4.62997E+001	11	...........	6.35657E-002	-3.99111E-003	5.79922E-001	6.38661E-001	-2.94632E-002	-3.85924E-002	6.68147E-001	-4.27692E-002	1.80390E-003	-1.13262E-004	1.64573E-002	1.81242E-002	-8.36121E-004	-1.09519E-003	1.89610E-002	-1.21372E-003
	131	130.713	1.10007E+000	2.85447E-002	0.00000E+000	3.14013E-002	2.84864E-001	3.81109E-002	4.55374E+001	11	...........	6.35790E-002	-3.93107E-003	5.79951E-001	6.38732E-001	-2.94797E-002	-3.85742E-002	6.68219E-001	-4.27625E-002	1.81484E-003	-1.12211E-004	1.65545E-002	1.82324E-002	-8.41489E-004	-1.10109E-003	1.90741E-002	-1.22064E-003
STARTTIMEOFFSET	QUANT	747256.3	Start Time Offset (s)
