EXPLAIN
TAG	PWR800_CHARGE
TITLE	LABEL	PWR Charge	Test Identifier
DATE	LABEL	10/13/2022	Date
TIME	LABEL	8:11:32	Time
NOTES	NOTES	1	Notes...
	
PSTAT	PSTAT	REF3000-21114	Potentiostat
CAPACITY	QUANT	5.30000E-002	Capacity (A-hr)
CELLTYPE	SELECTOR	1	Cell Type
WORKINGCONNECTION	SELECTOR	0	Working Connection
MAXCHARGETIME	VARIABLEANDUNITS	7.20000E+003	s	2.00000E+000	hour(s)	Max Charge Time
CHARGEMODE	MULTIPARAM	0	1.00000E-001	Charge Mode	Constant Current	Amp(s)
CHARGECURRENT	QUANT	0.1	Charge Current (A)
VOLTAGEFINISH	TWOPARAM	T	2.50000E-002	7.20000E+003	Voltage Finish	I (A) <	Max Time(s)
SAMPLETIME	QUANT	1.00000E+000	Sample Period (s)
CHARGESTOPAT1	MULTIPARAM	2	1.10000E+000	Stop At 1	|Voltage| > Limit	V
CHARGESTOPAT2	MULTIPARAM	0	0.00000E+000	Stop At 2	None	N/A
AESELECTOR	AESELECTOR	0x1	T	Set Limits	AE Channels
AESBHCSELECTOR	TOGGLE	F	Save Both Half Cells
IRCOMP	TOGGLE	F	IR Measure
EOC	QUANT	0.1639718	Open Circuit (V)
SEQUENCER	TOGGLE	TRUE	Run as Sequence
PSTATMODEL	IQUANT	5	Pstat Model
PSTATSECTION	LABEL	REF3000-21114	Pstat Section
PSTATSERIALNO	LABEL	21114	Pstat Serial Number
CTRLMODE	IQUANT	0	Control Mode
ELECTROMETER	IQUANT	0	RE=0 or CS=1
IESTAB	IQUANT	0	I/E Stability
CASPEED	IQUANT	4	Control Amp Speed
CONVENTION	IQUANT	1	Current Convention
ICHRANGE	IQUANT	2	Ich Range
ICHRANGEMODE	TOGGLE	T	Ich Auto Range
ICHOFFSETENABLE	TOGGLE	F	Ich Offset Enable
ICHOFFSET	QUANT	0	Ich Offset (V)
ICHFILTER	IQUANT	1	Ich Filter
VCHRANGE	IQUANT	3	Vch Range
VCHRANGEMODE	TOGGLE	T	Vch Auto Range
VCHOFFSETENABLE	TOGGLE	F	Vch Offset Enable
VCHOFFSET	QUANT	0	Vch Offset (V)
VCHFILTER	IQUANT	1	Vch Filter
ACHRANGE	IQUANT	2	Ach Range
ACHOFFSETENABLE	TOGGLE	F	Ach Offset Enable
ACHOFFSET	QUANT	0	Ach Offset (V)
ACHFILTER	IQUANT	1	Ach Filter
IERANGELOWERLIMIT	IQUANT	9	I/E Range Lower Limit
IERANGEMODE	TOGGLE	F	I/E AutoRange
IERANGE	IQUANT	9	I/E Range
POSFEEDENABLE	TOGGLE	F	Positive Feedback IR Comp
POSFEEDRESISTANCE	QUANT	0	Positive Feedback Resistance (ohm)
ACHSELECT	IQUANT	1	Ach Select
SENSECABLEID	IQUANT	13	Sense Cable ID
PWRCABLEID	IQUANT	13	Power Cable ID
DCCALDATE	LABEL		DC Calibration Date
ACCALDATE	LABEL		AC Calibration Date
THERMOSELECT	IQUANT	1	Thermo Select
FRAMEWORKVERSION	LABEL	7.8.6	Framework Version
INSTRUMENTVERSION	LABEL	4.50	Instrument Version
COMPLIANCEVOLTAGE	IQUANT	0	Compliance Voltage
CURVE	TABLE	184
	Pt	T	Vf	Im	Vu	Pwr	Sig	Ach	Temp	IERange	Over	Vf1	Vf2	Vf3	Vf4	Vf5	Vf6	Vf7	Vf8	Pwr1	Pwr2	Pwr3	Pwr4	Pwr5	Pwr6	Pwr7	Pwr8
	#	s	V	A	V	W	V	V	deg C	#	bits	V	V	V	V	V	V	V	V	W	W	W	W	W	W	W	W
	0	1	4.48887E-001	9.98559E-002	0.00000E+000	4.48240E-002	9.94000E-001	4.29408E-002	4.14904E+001	11	...........	7.13671E-002	-5.30694E-003	5.96147E-001	5.57314E-001	-2.78326E-002	-3.88671E-002	6.94122E-001	-4.39708E-002	7.12642E-003	-5.29930E-004	5.95288E-002	5.56511E-002	-2.77925E-003	-3.88111E-003	6.93122E-002	-4.39075E-003
	1	2	6.00854E-001	9.98555E-002	0.00000E+000	5.99985E-002	9.94000E-001	4.31222E-002	4.31794E+001	11	...........	7.16482E-002	-5.28681E-003	5.96254E-001	5.57194E-001	-2.78265E-002	-3.88319E-002	6.94061E-001	-4.39235E-002	7.15446E-003	-5.27916E-004	5.95392E-002	5.56389E-002	-2.77863E-003	-3.87758E-003	6.93058E-002	-4.38600E-003
	2	3	8.96696E-001	9.98560E-002	0.00000E+000	8.95405E-002	9.94000E-001	4.40085E-002	4.92131E+001	11	...........	7.31228E-002	-5.36819E-003	5.96187E-001	5.57089E-001	-2.78506E-002	-3.88375E-002	6.94220E-001	-4.39319E-002	7.30175E-003	-5.36046E-004	5.95329E-002	5.56287E-002	-2.78105E-003	-3.87816E-003	6.93220E-002	-4.38687E-003
	3	3.04833	1.09478E+000	9.98563E-002	0.00000E+000	1.09321E-001	9.94000E-001	4.42845E-002	5.36355E+001	11	...........	7.36063E-002	-5.39080E-003	5.96175E-001	5.57164E-001	-2.78822E-002	-3.88017E-002	6.94221E-001	-4.39195E-002	7.35005E-003	-5.38306E-004	5.95318E-002	5.56363E-002	-2.78421E-003	-3.87460E-003	6.93224E-002	-4.38564E-003
	4	4	1.10064E+000	7.33012E-002	0.00000E+000	8.06781E-002	7.29939E-001	4.38576E-002	5.27589E+001	11	...........	7.28710E-002	-5.33873E-003	5.96128E-001	5.57186E-001	-2.78135E-002	-3.88422E-002	6.94199E-001	-4.39457E-002	5.34153E-003	-3.91336E-004	4.36969E-002	4.08424E-002	-2.03876E-003	-2.84718E-003	5.08856E-002	-3.22127E-003
	5	5	1.10045E+000	5.99973E-002	0.00000E+000	6.60240E-002	5.97633E-001	4.37432E-002	5.18383E+001	11	...........	7.26836E-002	-5.21917E-003	5.96115E-001	5.57160E-001	-2.78046E-002	-3.88329E-002	6.94260E-001	-4.39626E-002	4.36082E-003	-3.13136E-004	3.57653E-002	3.34281E-002	-1.66820E-003	-2.32987E-003	4.16538E-002	-2.63764E-003
	6	6	1.10025E+000	5.49427E-002	0.00000E+000	6.04509E-002	5.47371E-001	4.37351E-002	5.11139E+001	11	...........	7.26928E-002	-5.19292E-003	5.96080E-001	5.57256E-001	-2.78125E-002	-3.88144E-002	6.94230E-001	-4.39749E-002	3.99394E-003	-2.85313E-004	3.27503E-002	3.06171E-002	-1.52809E-003	-2.13257E-003	3.81429E-002	-2.41610E-003
	7	7	1.10029E+000	5.22068E-002	0.00000E+000	5.74428E-002	5.20160E-001	4.37272E-002	5.05309E+001	11	...........	7.26665E-002	-5.23208E-003	5.96003E-001	5.57245E-001	-2.77896E-002	-3.88253E-002	6.94161E-001	-4.39936E-002	3.79369E-003	-2.73150E-004	3.11154E-002	2.90920E-002	-1.45080E-003	-2.02694E-003	3.62399E-002	-2.29676E-003
	8	8	1.10040E+000	4.97730E-002	0.00000E+000	5.47702E-002	4.95961E-001	4.37101E-002	5.00170E+001	11	...........	7.26364E-002	-5.19722E-003	5.95833E-001	5.57131E-001	-2.77825E-002	-3.88321E-002	6.94005E-001	-4.40118E-002	3.61533E-003	-2.58681E-004	2.96564E-002	2.77301E-002	-1.38282E-003	-1.93279E-003	3.45427E-002	-2.19060E-003
	9	9	1.10023E+000	4.80869E-002	0.00000E+000	5.29067E-002	4.79199E-001	4.36797E-002	4.95705E+001	11	...........	7.25829E-002	-5.20125E-003	5.95587E-001	5.57013E-001	-2.78101E-002	-3.88278E-002	6.94074E-001	-4.39786E-002	3.49029E-003	-2.50112E-004	2.86399E-002	2.67850E-002	-1.33730E-003	-1.86711E-003	3.33758E-002	-2.11479E-003
	10	10	1.10028E+000	4.72333E-002	0.00000E+000	5.19698E-002	4.70717E-001	4.36300E-002	4.92608E+001	11	...........	7.25126E-002	-5.16944E-003	5.95582E-001	5.57140E-001	-2.78012E-002	-3.88517E-002	6.93970E-001	-4.40010E-002	3.42501E-003	-2.44170E-004	2.81313E-002	2.63156E-002	-1.31315E-003	-1.83509E-003	3.27785E-002	-2.07831E-003
	11	11	1.10038E+000	4.60818E-002	0.00000E+000	5.07076E-002	4.59267E-001	4.36127E-002	4.89977E+001	11	...........	7.24676E-002	-5.21125E-003	5.95598E-001	5.57265E-001	-2.78061E-002	-3.88615E-002	6.94003E-001	-4.39874E-002	3.33944E-003	-2.40144E-004	2.74462E-002	2.56798E-002	-1.28136E-003	-1.79081E-003	3.19809E-002	-2.02702E-003
	12	12	1.10023E+000	4.52943E-002	0.00000E+000	4.98343E-002	4.51439E-001	4.35961E-002	4.87984E+001	11	...........	7.24307E-002	-5.25639E-003	5.95578E-001	5.57336E-001	-2.78158E-002	-3.88592E-002	6.93908E-001	-4.40382E-002	3.28070E-003	-2.38085E-004	2.69763E-002	2.52442E-002	-1.25990E-003	-1.76010E-003	3.14301E-002	-1.99468E-003
	13	13	1.10027E+000	4.50865E-002	0.00000E+000	4.96074E-002	4.49370E-001	4.35478E-002	4.86206E+001	11	...........	7.23557E-002	-5.26014E-003	5.95672E-001	5.57337E-001	-2.78171E-002	-3.88340E-002	6.93956E-001	-4.40307E-002	3.26227E-003	-2.37161E-004	2.68568E-002	2.51284E-002	-1.25418E-003	-1.75089E-003	3.12881E-002	-1.98519E-003
	14	14	1.10037E+000	4.44760E-002	0.00000E+000	4.89400E-002	4.43299E-001	4.35038E-002	4.84926E+001	11	...........	7.22942E-002	-5.25944E-003	5.95773E-001	5.57322E-001	-2.77986E-002	-3.88228E-002	6.94018E-001	-4.40114E-002	3.21536E-003	-2.33919E-004	2.64976E-002	2.47875E-002	-1.23637E-003	-1.72668E-003	3.08672E-002	-1.95745E-003
	15	15	1.10024E+000	4.40799E-002	0.00000E+000	4.84984E-002	4.39354E-001	4.34756E-002	4.83996E+001	11	...........	7.22299E-002	-5.27153E-003	5.95698E-001	5.57277E-001	-2.78165E-002	-3.88264E-002	6.93984E-001	-4.40237E-002	3.18388E-003	-2.32368E-004	2.62583E-002	2.45647E-002	-1.22615E-003	-1.71146E-003	3.05907E-002	-1.94056E-003
	16	16	1.10027E+000	4.41320E-002	0.00000E+000	4.85569E-002	4.39878E-001	4.34623E-002	4.82918E+001	11	...........	7.22169E-002	-5.21806E-003	5.95823E-001	5.57260E-001	-2.78310E-002	-3.88200E-002	6.93986E-001	-4.39312E-002	3.18708E-003	-2.30283E-004	2.62949E-002	2.45930E-002	-1.22824E-003	-1.71320E-003	3.06270E-002	-1.93877E-003
	17	17	1.10036E+000	4.37172E-002	0.00000E+000	4.81048E-002	4.35761E-001	4.34077E-002	4.82397E+001	11	...........	7.21296E-002	-5.26125E-003	5.96151E-001	5.57183E-001	-2.78106E-002	-3.87886E-002	6.94010E-001	-4.39167E-002	3.15331E-003	-2.30007E-004	2.60620E-002	2.43585E-002	-1.21580E-003	-1.69573E-003	3.03402E-002	-1.91991E-003
	18	18	1.10024E+000	4.33805E-002	0.00000E+000	4.77291E-002	4.32404E-001	4.33666E-002	4.81928E+001	11	...........	7.20521E-002	-5.20431E-003	5.96089E-001	5.57323E-001	-2.78564E-002	-3.87804E-002	6.94059E-001	-4.38988E-002	3.12565E-003	-2.25765E-004	2.58587E-002	2.41770E-002	-1.20842E-003	-1.68231E-003	3.01086E-002	-1.90435E-003
	19	19	1.10026E+000	4.34728E-002	0.00000E+000	4.78315E-002	4.33321E-001	4.33305E-002	4.81509E+001	11	...........	7.19946E-002	-5.25958E-003	5.96066E-001	5.57338E-001	-2.78561E-002	-3.87511E-002	6.94100E-001	-4.38942E-002	3.12981E-003	-2.28649E-004	2.59126E-002	2.42291E-002	-1.21098E-003	-1.68462E-003	3.01745E-002	-1.90820E-003
	20	20	1.10036E+000	4.31970E-002	0.00000E+000	4.75321E-002	4.30583E-001	4.31710E-002	4.80612E+001	11	...........	7.19514E-002	-5.23014E-003	5.96063E-001	5.57280E-001	-2.78364E-002	-3.87749E-002	6.94046E-001	-4.39546E-002	3.10808E-003	-2.25926E-004	2.57481E-002	2.40728E-002	-1.20245E-003	-1.67496E-003	2.99807E-002	-1.89870E-003
	21	21	1.10025E+000	4.29001E-002	0.00000E+000	4.72007E-002	4.27633E-001	4.30494E-002	4.79837E+001	11	...........	7.18687E-002	-5.26208E-003	5.95883E-001	5.57202E-001	-2.78483E-002	-3.87990E-002	6.94079E-001	-4.39719E-002	3.08318E-003	-2.25744E-004	2.55635E-002	2.39041E-002	-1.19470E-003	-1.66448E-003	2.97761E-002	-1.88640E-003
	22	22	1.10026E+000	4.30244E-002	0.00000E+000	4.73381E-002	4.28869E-001	4.29912E-002	4.79602E+001	11	...........	7.17726E-002	-5.22111E-003	5.95998E-001	5.57336E-001	-2.78681E-002	-3.88017E-002	6.93972E-001	-4.40026E-002	3.08798E-003	-2.24635E-004	2.56425E-002	2.39791E-002	-1.19901E-003	-1.66942E-003	2.98577E-002	-1.89319E-003
	23	23	1.10036E+000	4.27566E-002	0.00000E+000	4.70475E-002	4.26204E-001	4.29661E-002	4.65220E+001	11	...........	7.17189E-002	-5.22625E-003	5.96090E-001	5.57343E-001	-2.78481E-002	-3.88206E-002	6.93902E-001	-4.39621E-002	3.06646E-003	-2.23457E-004	2.54868E-002	2.38301E-002	-1.19069E-003	-1.65984E-003	2.96689E-002	-1.87967E-003
	24	24	1.10025E+000	4.23531E-002	0.00000E+000	4.65990E-002	4.22197E-001	4.27122E-002	4.64928E+001	11	...........	7.12967E-002	-5.21736E-003	5.96066E-001	5.57388E-001	-2.78385E-002	-3.88101E-002	6.93930E-001	-4.40049E-002	3.01964E-003	-2.20971E-004	2.52452E-002	2.36071E-002	-1.17905E-003	-1.64373E-003	2.93901E-002	-1.86374E-003
	25	25	1.10026E+000	4.26330E-002	0.00000E+000	4.69073E-002	4.24976E-001	4.28919E-002	4.77016E+001	11	...........	7.16149E-002	-5.13181E-003	5.95963E-001	5.57380E-001	-2.78467E-002	-3.87965E-002	6.93913E-001	-4.40919E-002	3.05315E-003	-2.18784E-004	2.54077E-002	2.37628E-002	-1.18719E-003	-1.65401E-003	2.95836E-002	-1.87977E-003
	26	26	1.10035E+000	4.24145E-002	0.00000E+000	4.66710E-002	4.22806E-001	4.28040E-002	4.78432E+001	11	...........	7.14569E-002	-5.17153E-003	5.96058E-001	5.57492E-001	-2.78343E-002	-3.87892E-002	6.93862E-001	-4.40261E-002	3.03081E-003	-2.19348E-004	2.52815E-002	2.36458E-002	-1.18058E-003	-1.64522E-003	2.94298E-002	-1.86735E-003
	27	27	1.10025E+000	4.20854E-002	0.00000E+000	4.63045E-002	4.19531E-001	4.27762E-002	4.78327E+001	11	...........	7.14204E-002	-5.21722E-003	5.95937E-001	5.57393E-001	-2.78050E-002	-3.88033E-002	6.93797E-001	-4.39882E-002	3.00575E-003	-2.19569E-004	2.50802E-002	2.34581E-002	-1.17018E-003	-1.63305E-003	2.91987E-002	-1.85126E-003
	28	28	1.10026E+000	4.22820E-002	0.00000E+000	4.65213E-002	4.21487E-001	4.27244E-002	4.78372E+001	11	...........	7.13393E-002	-5.21847E-003	5.96034E-001	5.57296E-001	-2.78224E-002	-3.88004E-002	6.93806E-001	-4.39778E-002	3.01637E-003	-2.20648E-004	2.52015E-002	2.35636E-002	-1.17639E-003	-1.64056E-003	2.93355E-002	-1.85947E-003
	29	29	1.10035E+000	4.20642E-002	0.00000E+000	4.62855E-002	4.19322E-001	4.27202E-002	4.77842E+001	11	...........	7.13303E-002	-5.14694E-003	5.96097E-001	5.57251E-001	-2.78214E-002	-3.87608E-002	6.93831E-001	-4.39943E-002	3.00045E-003	-2.16502E-004	2.50744E-002	2.34404E-002	-1.17029E-003	-1.63045E-003	2.91855E-002	-1.85059E-003
	30	30	1.10025E+000	4.17226E-002	0.00000E+000	4.59055E-002	4.15927E-001	4.26510E-002	4.77978E+001	11	...........	7.12103E-002	-5.12847E-003	5.95958E-001	5.57297E-001	-2.77808E-002	-3.87675E-002	6.93917E-001	-4.40189E-002	2.97108E-003	-2.13973E-004	2.48649E-002	2.32519E-002	-1.15909E-003	-1.61748E-003	2.89521E-002	-1.83658E-003
	31	31	1.10026E+000	4.19298E-002	0.00000E+000	4.61336E-002	4.17984E-001	4.26049E-002	4.77830E+001	11	...........	7.11135E-002	-5.09194E-003	5.95839E-001	5.57124E-001	-2.77821E-002	-3.87674E-002	6.93860E-001	-4.39511E-002	2.98177E-003	-2.13504E-004	2.49834E-002	2.33601E-002	-1.16490E-003	-1.62551E-003	2.90934E-002	-1.84286E-003
	32	32	1.10035E+000	4.16736E-002	0.00000E+000	4.58556E-002	4.15431E-001	4.26043E-002	4.77956E+001	11	...........	7.11307E-002	-5.10097E-003	5.95824E-001	5.57100E-001	-2.77933E-002	-3.87750E-002	6.93914E-001	-4.39858E-002	2.96427E-003	-2.12576E-004	2.48301E-002	2.32164E-002	-1.15825E-003	-1.61589E-003	2.89179E-002	-1.83305E-003
	33	33	1.10026E+000	4.13753E-002	0.00000E+000	4.55235E-002	4.12468E-001	4.25481E-002	4.77446E+001	11	...........	7.10346E-002	-5.17361E-003	5.95756E-001	5.57150E-001	-2.77899E-002	-3.87856E-002	6.93930E-001	-4.39362E-002	2.93908E-003	-2.14060E-004	2.46496E-002	2.30523E-002	-1.14981E-003	-1.60476E-003	2.87116E-002	-1.81788E-003
	34	34	1.10026E+000	4.15598E-002	0.00000E+000	4.57265E-002	4.14300E-001	4.25186E-002	4.77329E+001	11	...........	7.09939E-002	-5.12139E-003	5.95729E-001	5.57041E-001	-2.77917E-002	-3.87749E-002	6.93907E-001	-4.39378E-002	2.95049E-003	-2.12844E-004	2.47584E-002	2.31505E-002	-1.15502E-003	-1.61148E-003	2.88386E-002	-1.82604E-003
	35	35	1.10035E+000	4.13421E-002	0.00000E+000	4.54907E-002	4.12141E-001	4.24786E-002	4.77356E+001	11	...........	7.09143E-002	-5.07153E-003	5.95737E-001	5.56872E-001	-2.77842E-002	-3.87717E-002	6.93856E-001	-4.39646E-002	2.93174E-003	-2.09667E-004	2.46290E-002	2.30222E-002	-1.14865E-003	-1.60290E-003	2.86854E-002	-1.81759E-003
	36	36	1.10026E+000	4.10057E-002	0.00000E+000	4.51170E-002	4.08801E-001	4.24497E-002	4.77232E+001	11	...........	7.08728E-002	-5.08667E-003	5.95915E-001	5.56725E-001	-2.77825E-002	-3.87589E-002	6.93965E-001	-4.39003E-002	2.90619E-003	-2.08583E-004	2.44359E-002	2.28289E-002	-1.13924E-003	-1.58934E-003	2.84566E-002	-1.80016E-003
	37	37	1.10026E+000	4.11976E-002	0.00000E+000	4.53279E-002	4.10706E-001	4.24567E-002	4.76976E+001	11	...........	7.08690E-002	-5.22847E-003	5.96051E-001	5.56696E-001	-2.78218E-002	-3.87842E-002	6.93834E-001	-4.39247E-002	2.91963E-003	-2.15400E-004	2.45559E-002	2.29345E-002	-1.14619E-003	-1.59781E-003	2.85843E-002	-1.80959E-003
	38	38	1.10035E+000	4.10028E-002	0.00000E+000	4.51173E-002	4.08772E-001	4.24083E-002	4.76176E+001	11	...........	7.07867E-002	-5.23458E-003	5.96408E-001	5.56762E-001	-2.78401E-002	-3.88067E-002	6.93905E-001	-4.39201E-002	2.90245E-003	-2.14633E-004	2.44544E-002	2.28288E-002	-1.14152E-003	-1.59118E-003	2.84521E-002	-1.80085E-003
	39	39	1.10026E+000	4.06509E-002	0.00000E+000	4.47267E-002	4.05271E-001	4.23626E-002	4.76421E+001	11	...........	7.07014E-002	-5.20625E-003	5.96458E-001	5.56883E-001	-2.78368E-002	-3.87985E-002	6.94024E-001	-4.39706E-002	2.87407E-003	-2.11639E-004	2.42466E-002	2.26378E-002	-1.13159E-003	-1.57719E-003	2.82127E-002	-1.78744E-003
	40	40	1.10026E+000	4.08744E-002	0.00000E+000	4.49723E-002	4.07489E-001	4.23478E-002	4.76992E+001	11	...........	7.06947E-002	-5.18806E-003	5.96384E-001	5.56930E-001	-2.78647E-002	-3.87794E-002	6.94045E-001	-4.39792E-002	2.88961E-003	-2.12059E-004	2.43768E-002	2.27642E-002	-1.13895E-003	-1.58509E-003	2.83687E-002	-1.79762E-003
	41	41	1.10035E+000	4.06762E-002	0.00000E+000	4.47579E-002	4.05523E-001	4.23104E-002	4.77653E+001	11	...........	7.06418E-002	-5.16056E-003	5.96411E-001	5.56842E-001	-2.78818E-002	-3.87896E-002	6.93942E-001	-4.40604E-002	2.87344E-003	-2.09912E-004	2.42598E-002	2.26502E-002	-1.13413E-003	-1.57781E-003	2.82269E-002	-1.79221E-003
	42	42	1.10027E+000	4.03285E-002	0.00000E+000	4.43722E-002	4.02069E-001	4.23010E-002	4.77302E+001	11	...........	7.06056E-002	-5.14597E-003	5.96556E-001	5.56835E-001	-2.78672E-002	-3.87843E-002	6.93995E-001	-4.39994E-002	2.84742E-003	-2.07530E-004	2.40582E-002	2.24564E-002	-1.12384E-003	-1.56411E-003	2.79878E-002	-1.77443E-003
	43	43	1.10025E+000	4.05378E-002	0.00000E+000	4.46019E-002	4.04149E-001	4.22623E-002	4.77511E+001	11	...........	7.05343E-002	-5.19306E-003	5.96483E-001	5.56807E-001	-2.78886E-002	-3.87762E-002	6.93955E-001	-4.40346E-002	2.85931E-003	-2.10515E-004	2.41801E-002	2.25718E-002	-1.13054E-003	-1.57191E-003	2.81314E-002	-1.78507E-003
	44	44	1.10034E+000	4.03843E-002	0.00000E+000	4.44366E-002	4.02622E-001	4.22247E-002	4.77572E+001	11	...........	7.04899E-002	-5.11542E-003	5.96571E-001	5.56910E-001	-2.78682E-002	-3.87731E-002	6.93925E-001	-4.39875E-002	2.84668E-003	-2.06582E-004	2.40921E-002	2.24904E-002	-1.12544E-003	-1.56582E-003	2.80237E-002	-1.77640E-003
	45	45	1.10027E+000	3.99889E-002	0.00000E+000	4.39986E-002	3.98693E-001	4.21881E-002	4.77646E+001	11	...........	7.04311E-002	-5.25056E-003	5.96863E-001	5.56920E-001	-2.78658E-002	-3.87836E-002	6.93994E-001	-4.39796E-002	2.81647E-003	-2.09964E-004	2.38679E-002	2.22706E-002	-1.11433E-003	-1.55092E-003	2.77521E-002	-1.75870E-003
	46	46	1.10025E+000	4.01977E-002	0.00000E+000	4.42277E-002	4.00765E-001	4.21870E-002	4.77544E+001	11	...........	7.04151E-002	-5.36514E-003	5.96885E-001	5.56880E-001	-2.78611E-002	-3.87411E-002	6.94018E-001	-4.39307E-002	2.83053E-003	-2.15666E-004	2.39934E-002	2.23853E-002	-1.11995E-003	-1.55731E-003	2.78980E-002	-1.76591E-003
	47	47	1.10034E+000	4.00703E-002	0.00000E+000	4.40909E-002	3.99498E-001	4.21592E-002	4.77451E+001	11	...........	7.03762E-002	-5.22194E-003	5.96812E-001	5.56820E-001	-2.78775E-002	-3.87339E-002	6.94022E-001	-4.39857E-002	2.81999E-003	-2.09245E-004	2.39144E-002	2.23119E-002	-1.11706E-003	-1.55208E-003	2.78096E-002	-1.76252E-003
	48	48	1.10027E+000	3.96927E-002	0.00000E+000	4.36729E-002	3.95743E-001	4.21226E-002	4.77169E+001	11	...........	7.03221E-002	-5.13083E-003	5.96629E-001	5.56902E-001	-2.78974E-002	-3.87343E-002	6.94114E-001	-4.40199E-002	2.79127E-003	-2.03657E-004	2.36818E-002	2.21050E-002	-1.10732E-003	-1.53747E-003	2.75512E-002	-1.74727E-003
	49	49	1.10025E+000	3.98790E-002	0.00000E+000	4.38770E-002	3.97599E-001	4.20981E-002	4.77086E+001	11	...........	7.02700E-002	-5.15931E-003	5.96684E-001	5.56982E-001	-2.79082E-002	-3.87307E-002	6.93978E-001	-4.40704E-002	2.80230E-003	-2.05748E-004	2.37952E-002	2.22119E-002	-1.11295E-003	-1.54454E-003	2.76751E-002	-1.75748E-003
	50	50	1.10034E+000	3.97538E-002	0.00000E+000	4.37426E-002	3.96347E-001	4.20675E-002	4.77130E+001	11	...........	7.02329E-002	-5.16528E-003	5.96704E-001	5.57003E-001	-2.78967E-002	-3.87425E-002	6.93943E-001	-4.40972E-002	2.79203E-003	-2.05340E-004	2.37213E-002	2.21430E-002	-1.10900E-003	-1.54016E-003	2.75869E-002	-1.75303E-003
	51	51	1.10028E+000	3.93833E-002	0.00000E+000	4.33325E-002	3.92668E-001	4.20318E-002	4.77154E+001	11	...........	7.01606E-002	-5.12750E-003	5.96755E-001	5.57173E-001	-2.79079E-002	-3.87432E-002	6.94008E-001	-4.39746E-002	2.76315E-003	-2.01938E-004	2.35022E-002	2.19433E-002	-1.09910E-003	-1.52583E-003	2.73323E-002	-1.73186E-003
	52	52	1.10025E+000	3.95630E-002	0.00000E+000	4.35293E-002	3.94455E-001	4.20265E-002	4.77048E+001	11	...........	7.01568E-002	-5.18458E-003	5.96800E-001	5.57278E-001	-2.78997E-002	-3.87493E-002	6.93884E-001	-4.40011E-002	2.77562E-003	-2.05118E-004	2.36112E-002	2.20476E-002	-1.10380E-003	-1.53304E-003	2.74521E-002	-1.74082E-003
	53	53	1.10034E+000	3.94307E-002	0.00000E+000	4.33870E-002	3.93141E-001	4.19868E-002	4.77044E+001	11	...........	7.00874E-002	-5.18083E-003	5.96686E-001	5.57314E-001	-2.79461E-002	-3.87633E-002	6.93844E-001	-4.40200E-002	2.76359E-003	-2.04284E-004	2.35277E-002	2.19753E-002	-1.10193E-003	-1.52846E-003	2.73587E-002	-1.73574E-003
	54	54	1.10028E+000	3.89735E-002	0.00000E+000	4.28818E-002	3.88593E-001	4.19594E-002	4.76692E+001	11	...........	7.00615E-002	-5.18444E-003	5.96581E-001	5.57268E-001	-2.79690E-002	-3.87626E-002	6.93740E-001	-4.39615E-002	2.73054E-003	-2.02056E-004	2.32508E-002	2.17187E-002	-1.09005E-003	-1.51071E-003	2.70375E-002	-1.71333E-003
	55	55	1.10025E+000	3.91275E-002	0.00000E+000	4.30500E-002	3.90123E-001	4.19323E-002	4.76791E+001	11	...........	6.99887E-002	-5.18958E-003	5.96539E-001	5.57240E-001	-2.79586E-002	-3.87657E-002	6.93639E-001	-4.39200E-002	2.73848E-003	-2.03055E-004	2.33411E-002	2.18034E-002	-1.09395E-003	-1.51680E-003	2.71403E-002	-1.71848E-003
	56	56	1.10033E+000	3.90465E-002	0.00000E+000	4.29641E-002	3.89321E-001	4.18781E-002	4.76244E+001	11	...........	6.99343E-002	-5.15111E-003	5.96534E-001	5.57242E-001	-2.79715E-002	-3.87672E-002	6.93784E-001	-4.39462E-002	2.73069E-003	-2.01133E-004	2.32926E-002	2.17583E-002	-1.09219E-003	-1.51372E-003	2.70898E-002	-1.71595E-003
	57	57	1.10029E+000	3.86303E-002	0.00000E+000	4.25043E-002	3.85183E-001	4.18646E-002	4.76311E+001	11	...........	6.99071E-002	-5.23250E-003	5.96502E-001	5.57202E-001	-2.79660E-002	-3.87736E-002	6.93982E-001	-4.40521E-002	2.70053E-003	-2.02133E-004	2.30431E-002	2.15249E-002	-1.08033E-003	-1.49784E-003	2.68087E-002	-1.70174E-003
	58	58	1.10025E+000	3.88224E-002	0.00000E+000	4.27143E-002	3.87094E-001	4.18225E-002	4.76503E+001	11	...........	6.98467E-002	-5.32361E-003	5.96500E-001	5.57132E-001	-2.79519E-002	-3.87793E-002	6.93984E-001	-4.40197E-002	2.71161E-003	-2.06675E-004	2.31576E-002	2.16292E-002	-1.08516E-003	-1.50550E-003	2.69421E-002	-1.70895E-003
	59	59	1.10033E+000	3.87412E-002	0.00000E+000	4.26281E-002	3.86285E-001	4.18093E-002	4.76586E+001	11	...........	6.98040E-002	-5.31347E-003	5.96533E-001	5.57208E-001	-2.79539E-002	-3.87456E-002	6.93945E-001	-4.40231E-002	2.70429E-003	-2.05850E-004	2.31104E-002	2.15869E-002	-1.08297E-003	-1.50105E-003	2.68843E-002	-1.70551E-003
	60	60	1.10029E+000	3.83385E-002	0.00000E+000	4.21835E-002	3.82283E-001	4.17632E-002	4.76622E+001	11	...........	6.97365E-002	-5.23181E-003	5.96470E-001	5.57325E-001	-2.79326E-002	-3.87447E-002	6.94035E-001	-4.40661E-002	2.67360E-003	-2.00580E-004	2.28678E-002	2.13670E-002	-1.07090E-003	-1.48542E-003	2.66083E-002	-1.68943E-003
	61	61	1.10025E+000	3.85162E-002	0.00000E+000	4.23774E-002	3.84049E-001	4.17502E-002	4.76629E+001	11	...........	6.97079E-002	-5.25236E-003	5.96445E-001	5.57368E-001	-2.78911E-002	-3.87582E-002	6.93951E-001	-4.40500E-002	2.68488E-003	-2.02301E-004	2.29728E-002	2.14677E-002	-1.07426E-003	-1.49282E-003	2.67284E-002	-1.69664E-003
	62	62	1.10033E+000	3.84528E-002	0.00000E+000	4.23107E-002	3.83419E-001	4.17172E-002	4.76962E+001	11	...........	6.96506E-002	-5.24403E-003	5.96698E-001	5.57448E-001	-2.78718E-002	-3.87799E-002	6.93895E-001	-4.41382E-002	2.67826E-003	-2.01648E-004	2.29447E-002	2.14355E-002	-1.07175E-003	-1.49119E-003	2.66822E-002	-1.69724E-003
	63	63	1.10029E+000	3.80309E-002	0.00000E+000	4.18452E-002	3.79229E-001	4.16821E-002	4.76535E+001	11	...........	6.95807E-002	-5.22611E-003	5.96745E-001	5.57499E-001	-2.78490E-002	-3.88046E-002	6.94032E-001	-4.40292E-002	2.64622E-003	-1.98754E-004	2.26948E-002	2.12022E-002	-1.05912E-003	-1.47577E-003	2.63947E-002	-1.67447E-003
	64	64	1.10025E+000	3.82328E-002	0.00000E+000	4.20655E-002	3.81229E-001	4.16422E-002	4.76751E+001	11	...........	6.95354E-002	-5.17972E-003	5.96731E-001	5.57345E-001	-2.78429E-002	-3.88217E-002	6.94103E-001	-4.39771E-002	2.65853E-003	-1.98035E-004	2.28147E-002	2.13089E-002	-1.06451E-003	-1.48426E-003	2.65375E-002	-1.68137E-003
	65	65	1.10032E+000	3.81380E-002	0.00000E+000	4.19642E-002	3.80293E-001	4.16253E-002	4.76921E+001	11	...........	6.95068E-002	-5.24319E-003	5.96823E-001	5.57319E-001	-2.78285E-002	-3.88107E-002	6.93940E-001	-4.39949E-002	2.65085E-003	-1.99965E-004	2.27617E-002	2.12550E-002	-1.06132E-003	-1.48016E-003	2.64655E-002	-1.67788E-003
	66	66	1.10030E+000	3.77755E-002	0.00000E+000	4.15643E-002	3.76688E-001	4.15982E-002	4.76742E+001	11	...........	6.94621E-002	-5.22319E-003	5.96810E-001	5.57358E-001	-2.78239E-002	-3.88100E-002	6.94024E-001	-4.40233E-002	2.62397E-003	-1.97309E-004	2.25448E-002	2.10545E-002	-1.05106E-003	-1.46607E-003	2.62171E-002	-1.66301E-003
	67	67	1.10025E+000	3.80222E-002	0.00000E+000	4.18337E-002	3.79137E-001	4.15732E-002	4.76841E+001	11	...........	6.94090E-002	-5.26000E-003	5.96831E-001	5.57412E-001	-2.78065E-002	-3.87885E-002	6.94043E-001	-4.39653E-002	2.63908E-003	-1.99997E-004	2.26928E-002	2.11940E-002	-1.05726E-003	-1.47482E-003	2.63890E-002	-1.67166E-003
	68	68	1.10032E+000	3.79872E-002	0.00000E+000	4.17980E-002	3.78795E-001	4.15457E-002	4.76556E+001	11	...........	6.93604E-002	-5.24819E-003	5.96725E-001	5.57397E-001	-2.78039E-002	-3.87479E-002	6.94038E-001	-4.39315E-002	2.63480E-003	-1.99364E-004	2.26679E-002	2.11739E-002	-1.05619E-003	-1.47192E-003	2.63645E-002	-1.66883E-003
	69	69	1.10030E+000	3.75889E-002	0.00000E+000	4.13591E-002	3.74831E-001	4.14999E-002	4.76297E+001	11	...........	6.92953E-002	-5.17819E-003	5.96718E-001	5.57307E-001	-2.77932E-002	-3.87710E-002	6.94118E-001	-4.39572E-002	2.60473E-003	-1.94642E-004	2.24300E-002	2.09485E-002	-1.04471E-003	-1.45736E-003	2.60911E-002	-1.65230E-003
	70	70	1.10024E+000	3.77384E-002	0.00000E+000	4.15214E-002	3.76322E-001	4.14812E-002	4.76210E+001	11	...........	6.92675E-002	-5.15667E-003	5.96664E-001	5.57205E-001	-2.77889E-002	-3.87681E-002	6.94093E-001	-4.40107E-002	2.61404E-003	-1.94604E-004	2.25171E-002	2.10280E-002	-1.04871E-003	-1.46304E-003	2.61939E-002	-1.66089E-003
	71	71	1.10032E+000	3.76997E-002	0.00000E+000	4.14817E-002	3.75938E-001	4.14623E-002	4.76067E+001	11	...........	6.92331E-002	-5.18875E-003	5.96710E-001	5.57265E-001	-2.77611E-002	-3.87879E-002	6.94024E-001	-4.40512E-002	2.61007E-003	-1.95614E-004	2.24958E-002	2.10087E-002	-1.04659E-003	-1.46229E-003	2.61645E-002	-1.66072E-003
	72	72	1.10031E+000	3.72884E-002	0.00000E+000	4.10287E-002	3.71844E-001	4.14084E-002	4.76060E+001	11	...........	6.91337E-002	-5.21208E-003	5.96593E-001	5.57246E-001	-2.77649E-002	-3.87808E-002	6.93820E-001	-4.39749E-002	2.57789E-003	-1.94350E-004	2.22460E-002	2.07788E-002	-1.03531E-003	-1.44608E-003	2.58714E-002	-1.63975E-003
	73	73	1.10024E+000	3.74594E-002	0.00000E+000	4.12144E-002	3.73546E-001	4.13986E-002	4.75780E+001	11	...........	6.91297E-002	-5.20861E-003	5.96462E-001	5.57178E-001	-2.78085E-002	-3.87879E-002	6.93836E-001	-4.39910E-002	2.58956E-003	-1.95111E-004	2.23431E-002	2.08715E-002	-1.04169E-003	-1.45297E-003	2.59907E-002	-1.64787E-003
	74	74	1.10031E+000	3.73976E-002	0.00000E+000	4.11491E-002	3.72932E-001	4.13507E-002	4.59156E+001	11	...........	6.90440E-002	-5.13569E-003	5.96397E-001	5.57264E-001	-2.78037E-002	-3.87810E-002	6.93845E-001	-4.39247E-002	2.58208E-003	-1.92063E-004	2.23038E-002	2.08403E-002	-1.03979E-003	-1.45032E-003	2.59482E-002	-1.64268E-003
	75	75	1.10031E+000	3.70078E-002	0.00000E+000	4.07200E-002	3.69057E-001	4.12450E-002	4.70024E+001	11	...........	6.88458E-002	-5.11403E-003	5.96326E-001	5.57292E-001	-2.77833E-002	-3.87843E-002	6.94010E-001	-4.39350E-002	2.54783E-003	-1.89259E-004	2.20687E-002	2.06241E-002	-1.02820E-003	-1.43532E-003	2.56837E-002	-1.62594E-003
	76	76	1.10024E+000	3.71382E-002	0.00000E+000	4.08610E-002	3.70346E-001	4.13237E-002	4.74309E+001	11	...........	6.89824E-002	-5.15861E-003	5.96236E-001	5.57299E-001	-2.77704E-002	-3.87581E-002	6.94047E-001	-4.39282E-002	2.56188E-003	-1.91582E-004	2.21431E-002	2.06971E-002	-1.03134E-003	-1.43940E-003	2.57757E-002	-1.63141E-003
	77	77	1.10031E+000	3.70703E-002	0.00000E+000	4.07888E-002	3.69672E-001	4.13522E-002	4.74886E+001	11	...........	6.90315E-002	-5.08458E-003	5.96282E-001	5.57320E-001	-2.77635E-002	-3.87458E-002	6.93894E-001	-4.38840E-002	2.55902E-003	-1.88487E-004	2.21043E-002	2.06600E-002	-1.02920E-003	-1.43632E-003	2.57228E-002	-1.62679E-003
	78	78	1.10031E+000	3.66355E-002	0.00000E+000	4.03105E-002	3.65348E-001	4.12856E-002	4.75117E+001	11	...........	6.89435E-002	-5.10708E-003	5.96232E-001	5.57335E-001	-2.77721E-002	-3.87294E-002	6.93833E-001	-4.39264E-002	2.52578E-003	-1.87100E-004	2.18432E-002	2.04182E-002	-1.01744E-003	-1.41887E-003	2.54189E-002	-1.60926E-003
	79	79	1.10024E+000	3.68186E-002	0.00000E+000	4.05093E-002	3.67172E-001	4.12583E-002	4.75038E+001	11	...........	6.88983E-002	-4.98458E-003	5.96071E-001	5.57225E-001	-2.77758E-002	-3.87172E-002	6.93839E-001	-4.39937E-002	2.53674E-003	-1.83525E-004	2.19465E-002	2.05162E-002	-1.02267E-003	-1.42551E-003	2.55462E-002	-1.61979E-003
	80	80	1.10031E+000	3.67850E-002	0.00000E+000	4.04748E-002	3.66834E-001	4.12247E-002	4.75651E+001	11	...........	6.88287E-002	-5.15139E-003	5.95907E-001	5.57336E-001	-2.77715E-002	-3.87093E-002	6.93829E-001	-4.39508E-002	2.53186E-003	-1.89494E-004	2.19204E-002	2.05016E-002	-1.02158E-003	-1.42392E-003	2.55225E-002	-1.61673E-003
	81	81	1.10032E+000	3.63413E-002	0.00000E+000	3.99870E-002	3.62422E-001	4.12227E-002	4.75416E+001	11	...........	6.88253E-002	-5.24014E-003	5.95669E-001	5.57278E-001	-2.77835E-002	-3.87103E-002	6.93997E-001	-4.39703E-002	2.50120E-003	-1.90433E-004	2.16474E-002	2.02522E-002	-1.00969E-003	-1.40678E-003	2.52207E-002	-1.59794E-003
	82	82	1.10024E+000	3.65203E-002	0.00000E+000	4.01811E-002	3.64202E-001	4.11882E-002	4.75116E+001	11	...........	6.87492E-002	-5.28486E-003	5.95853E-001	5.57286E-001	-2.78231E-002	-3.87018E-002	6.94014E-001	-4.39754E-002	2.51074E-003	-1.93005E-004	2.17607E-002	2.03523E-002	-1.01611E-003	-1.41340E-003	2.53456E-002	-1.60600E-003
	83	83	1.10030E+000	3.64950E-002	0.00000E+000	4.01556E-002	3.63955E-001	4.11762E-002	4.75469E+001	11	...........	6.87642E-002	-5.29583E-003	5.95834E-001	5.57250E-001	-2.78193E-002	-3.87164E-002	6.93964E-001	-4.39249E-002	2.50955E-003	-1.93271E-004	2.17450E-002	2.03368E-002	-1.01527E-003	-1.41295E-003	2.53262E-002	-1.60304E-003
	84	84	1.10032E+000	3.61038E-002	0.00000E+000	3.97258E-002	3.60068E-001	4.11340E-002	4.75555E+001	11	...........	6.86968E-002	-5.23458E-003	5.95683E-001	5.57277E-001	-2.78221E-002	-3.86983E-002	6.94085E-001	-4.39132E-002	2.48021E-003	-1.88988E-004	2.15064E-002	2.01198E-002	-1.00448E-003	-1.39716E-003	2.50591E-002	-1.58543E-003
	85	85	1.10024E+000	3.62488E-002	0.00000E+000	3.98823E-002	3.61508E-001	4.11199E-002	4.75789E+001	11	...........	6.86635E-002	-5.25889E-003	5.95798E-001	5.57225E-001	-2.78343E-002	-3.86908E-002	6.94099E-001	-4.41158E-002	2.48897E-003	-1.90628E-004	2.15969E-002	2.01987E-002	-1.00896E-003	-1.40249E-003	2.51602E-002	-1.59914E-003
	86	86	1.10030E+000	3.62515E-002	0.00000E+000	3.98876E-002	3.61532E-001	4.10879E-002	4.75721E+001	11	...........	6.86019E-002	-5.25806E-003	5.95956E-001	5.57402E-001	-2.78324E-002	-3.86801E-002	6.94030E-001	-4.40726E-002	2.48692E-003	-1.90612E-004	2.16043E-002	2.02066E-002	-1.00896E-003	-1.40221E-003	2.51596E-002	-1.59770E-003
	87	87	1.10033E+000	3.58506E-002	0.00000E+000	3.94474E-002	3.57545E-001	4.10643E-002	4.75833E+001	11	...........	6.85579E-002	-5.21028E-003	5.95949E-001	5.57314E-001	-2.78415E-002	-3.87168E-002	6.94042E-001	-4.39754E-002	2.45784E-003	-1.86792E-004	2.13651E-002	1.99800E-002	-9.98135E-004	-1.38802E-003	2.48818E-002	-1.57655E-003
	88	88	1.10024E+000	3.59675E-002	0.00000E+000	3.95728E-002	3.58708E-001	4.10502E-002	4.75868E+001	11	...........	6.85289E-002	-5.18472E-003	5.95828E-001	5.57256E-001	-2.78135E-002	-3.87483E-002	6.94037E-001	-4.39560E-002	2.46482E-003	-1.86482E-004	2.14305E-002	2.00431E-002	-1.00038E-003	-1.39368E-003	2.49628E-002	-1.58099E-003
	89	89	1.10030E+000	3.60304E-002	0.00000E+000	3.96442E-002	3.59336E-001	4.10393E-002	4.75741E+001	11	...........	6.85122E-002	-5.10611E-003	5.95978E-001	5.57220E-001	-2.77974E-002	-3.87560E-002	6.93940E-001	-4.39421E-002	2.46852E-003	-1.83975E-004	2.14733E-002	2.00769E-002	-1.00155E-003	-1.39639E-003	2.50029E-002	-1.58325E-003
	90	90	1.10033E+000	3.56447E-002	0.00000E+000	3.92209E-002	3.55493E-001	4.09908E-002	4.75675E+001	11	...........	6.84469E-002	-5.20153E-003	5.95895E-001	5.57157E-001	-2.77817E-002	-3.87489E-002	6.93878E-001	-4.39719E-002	2.43977E-003	-1.85407E-004	2.12405E-002	1.98597E-002	-9.90268E-004	-1.38119E-003	2.47331E-002	-1.56737E-003
	91	91	1.10024E+000	3.57569E-002	0.00000E+000	3.93410E-002	3.56617E-001	4.09892E-002	4.75509E+001	11	...........	6.84429E-002	-5.20375E-003	5.95899E-001	5.57155E-001	-2.77996E-002	-3.87337E-002	6.93955E-001	-4.39521E-002	2.44730E-003	-1.86070E-004	2.13075E-002	1.99221E-002	-9.94026E-004	-1.38500E-003	2.48137E-002	-1.57159E-003
	92	92	1.10029E+000	3.58158E-002	0.00000E+000	3.94080E-002	3.57204E-001	4.09475E-002	4.75650E+001	11	...........	6.83664E-002	-5.10819E-003	5.95938E-001	5.57094E-001	-2.78144E-002	-3.87067E-002	6.94137E-001	-4.39176E-002	2.44860E-003	-1.82954E-004	2.13440E-002	1.99528E-002	-9.96198E-004	-1.38631E-003	2.48611E-002	-1.57295E-003
	93	93	1.10033E+000	3.54113E-002	0.00000E+000	3.89643E-002	3.53178E-001	4.09397E-002	4.75343E+001	11	...........	6.83499E-002	-5.17250E-003	5.96080E-001	5.56966E-001	-2.78247E-002	-3.86950E-002	6.94085E-001	-4.39389E-002	2.42036E-003	-1.83165E-004	2.11080E-002	1.97229E-002	-9.85310E-004	-1.37024E-003	2.45785E-002	-1.55593E-003
	94	94	1.10024E+000	3.55085E-002	0.00000E+000	3.90677E-002	3.54147E-001	4.09035E-002	4.75446E+001	11	...........	6.82821E-002	-5.22236E-003	5.96142E-001	5.56840E-001	-2.78481E-002	-3.86957E-002	6.94163E-001	-4.39335E-002	2.42459E-003	-1.85438E-004	2.11681E-002	1.97726E-002	-9.88843E-004	-1.37403E-003	2.46487E-002	-1.56001E-003
	95	95	1.10029E+000	3.55666E-002	0.00000E+000	3.91337E-002	3.54723E-001	4.05837E-002	4.74976E+001	11	...........	6.82551E-002	-5.17139E-003	5.96050E-001	5.56728E-001	-2.78242E-002	-3.87083E-002	6.94148E-001	-4.40065E-002	2.42761E-003	-1.83929E-004	2.11995E-002	1.98009E-002	-9.89612E-004	-1.37673E-003	2.46885E-002	-1.56516E-003
	96	96	1.10034E+000	3.51719E-002	0.00000E+000	3.87009E-002	3.50798E-001	4.08737E-002	4.75504E+001	11	...........	6.82283E-002	-5.17000E-003	5.95909E-001	5.56730E-001	-2.78040E-002	-3.87053E-002	6.94018E-001	-4.40110E-002	2.39972E-003	-1.81839E-004	2.09592E-002	1.95812E-002	-9.77920E-004	-1.36134E-003	2.44099E-002	-1.54795E-003
	97	97	1.10024E+000	3.52659E-002	0.00000E+000	3.88007E-002	3.51732E-001	4.08353E-002	4.75236E+001	11	...........	6.81807E-002	-5.10250E-003	5.95786E-001	5.56726E-001	-2.78118E-002	-3.86978E-002	6.94147E-001	-4.39526E-002	2.40445E-003	-1.79944E-004	2.10109E-002	1.96334E-002	-9.80807E-004	-1.36471E-003	2.44797E-002	-1.55003E-003
	98	98	1.10029E+000	3.53199E-002	0.00000E+000	3.88622E-002	3.52273E-001	4.08161E-002	4.75494E+001	11	...........	6.81575E-002	-5.03347E-003	5.95692E-001	5.56706E-001	-2.78397E-002	-3.87049E-002	6.94196E-001	-4.39962E-002	2.40732E-003	-1.77782E-004	2.10398E-002	1.96628E-002	-9.83297E-004	-1.36705E-003	2.45189E-002	-1.55394E-003
	99	99	1.10034E+000	3.49112E-002	0.00000E+000	3.84142E-002	3.48207E-001	4.07818E-002	4.75855E+001	11	...........	6.80871E-002	-5.19292E-003	5.95693E-001	5.56742E-001	-2.78335E-002	-3.86915E-002	6.94139E-001	-4.38943E-002	2.37700E-003	-1.81291E-004	2.07963E-002	1.94365E-002	-9.71699E-004	-1.35077E-003	2.42332E-002	-1.53240E-003
	100	100	1.10024E+000	3.49873E-002	0.00000E+000	3.84943E-002	3.48967E-001	4.07649E-002	4.76024E+001	11	...........	6.80482E-002	-5.26278E-003	5.95867E-001	5.56687E-001	-2.78522E-002	-3.86750E-002	6.94173E-001	-4.39446E-002	2.38082E-003	-1.84131E-004	2.08478E-002	1.94770E-002	-9.74475E-004	-1.35313E-003	2.42873E-002	-1.53750E-003
	101	101	1.10029E+000	3.50451E-002	0.00000E+000	3.85597E-002	3.49539E-001	4.07490E-002	4.76095E+001	11	...........	6.80346E-002	-5.19861E-003	5.95818E-001	5.56689E-001	-2.78631E-002	-3.86899E-002	6.94238E-001	-4.39771E-002	2.38428E-003	-1.82186E-004	2.08805E-002	1.95092E-002	-9.76462E-004	-1.35589E-003	2.43296E-002	-1.54118E-003
	102	102	1.10034E+000	3.46682E-002	0.00000E+000	3.81469E-002	3.45793E-001	4.07137E-002	4.75934E+001	11	...........	6.79715E-002	-5.11972E-003	5.95575E-001	5.56723E-001	-2.78607E-002	-3.86749E-002	6.94155E-001	-4.39775E-002	2.35645E-003	-1.77491E-004	2.06475E-002	1.93006E-002	-9.65879E-004	-1.34079E-003	2.40651E-002	-1.52462E-003
	103	103	1.10024E+000	3.47308E-002	0.00000E+000	3.82121E-002	3.46412E-001	4.07030E-002	4.75139E+001	11	...........	6.79621E-002	-5.08819E-003	5.95415E-001	5.56764E-001	-2.78622E-002	-3.86760E-002	6.94115E-001	-4.39351E-002	2.36038E-003	-1.76717E-004	2.06793E-002	1.93369E-002	-9.67678E-004	-1.34325E-003	2.41072E-002	-1.52590E-003
	104	104	1.10029E+000	3.47552E-002	0.00000E+000	3.82407E-002	3.46656E-001	4.06319E-002	4.58301E+001	11	...........	6.78063E-002	-5.15319E-003	5.95595E-001	5.56899E-001	-2.78506E-002	-3.86676E-002	6.94187E-001	-4.39128E-002	2.35662E-003	-1.79100E-004	2.07000E-002	1.93551E-002	-9.67952E-004	-1.34390E-003	2.41266E-002	-1.52620E-003
	105	105	1.10034E+000	3.43878E-002	0.00000E+000	3.78384E-002	3.42995E-001	4.05927E-002	4.71413E+001	11	...........	6.77762E-002	-4.98514E-003	5.95568E-001	5.56933E-001	-2.78531E-002	-3.86892E-002	6.94130E-001	-4.40022E-002	2.33068E-003	-1.71428E-004	2.04803E-002	1.91517E-002	-9.57805E-004	-1.33044E-003	2.38696E-002	-1.51314E-003
	106	106	1.10024E+000	3.44623E-002	0.00000E+000	3.79166E-002	3.43737E-001	4.06027E-002	4.72700E+001	11	...........	6.77839E-002	-4.95722E-003	5.95535E-001	5.57035E-001	-2.78729E-002	-3.86803E-002	6.94075E-001	-4.40481E-002	2.33599E-003	-1.70837E-004	2.05235E-002	1.91967E-002	-9.60564E-004	-1.33301E-003	2.39194E-002	-1.51800E-003
	107	107	1.10028E+000	3.45444E-002	0.00000E+000	3.80086E-002	3.44554E-001	4.05943E-002	4.73078E+001	11	...........	6.77788E-002	-4.88000E-003	5.95638E-001	5.57064E-001	-2.78858E-002	-3.87190E-002	6.94119E-001	-4.41174E-002	2.34138E-003	-1.68577E-004	2.05760E-002	1.92434E-002	-9.63299E-004	-1.33753E-003	2.39779E-002	-1.52401E-003
	108	108	1.10035E+000	3.42037E-002	0.00000E+000	3.76358E-002	3.41166E-001	4.05619E-002	4.73237E+001	11	...........	6.77303E-002	-4.86167E-003	5.95512E-001	5.57052E-001	-2.79108E-002	-3.86989E-002	6.93993E-001	-4.40376E-002	2.31662E-003	-1.66287E-004	2.03687E-002	1.90532E-002	-9.54652E-004	-1.32364E-003	2.37371E-002	-1.50625E-003
	109	109	1.10024E+000	3.42152E-002	0.00000E+000	3.76448E-002	3.41283E-001	4.05524E-002	4.73091E+001	11	...........	6.76960E-002	-4.95639E-003	5.95509E-001	5.56957E-001	-2.79246E-002	-3.87110E-002	6.94024E-001	-4.39464E-002	2.31623E-003	-1.69584E-004	2.03755E-002	1.90564E-002	-9.55446E-004	-1.32451E-003	2.37462E-002	-1.50364E-003
	110	110	1.10028E+000	3.42911E-002	0.00000E+000	3.77299E-002	3.42037E-001	4.05135E-002	4.73060E+001	11	...........	6.76132E-002	-5.11639E-003	5.95411E-001	5.56892E-001	-2.79492E-002	-3.87364E-002	6.93914E-001	-4.39382E-002	2.31853E-003	-1.75446E-004	2.04173E-002	1.90964E-002	-9.58407E-004	-1.32831E-003	2.37950E-002	-1.50669E-003
	111	111	1.10035E+000	3.39726E-002	0.00000E+000	3.73817E-002	3.38872E-001	4.04902E-002	4.72892E+001	11	...........	6.75989E-002	-5.10319E-003	5.95504E-001	5.56870E-001	-2.79585E-002	-3.87208E-002	6.93842E-001	-4.39465E-002	2.29651E-003	-1.73369E-004	2.02308E-002	1.89183E-002	-9.49822E-004	-1.31545E-003	2.35716E-002	-1.49298E-003
	112	112	1.10024E+000	3.39764E-002	0.00000E+000	3.73821E-002	3.38909E-001	4.04673E-002	4.72941E+001	11	...........	6.75518E-002	-5.15028E-003	5.95332E-001	5.56773E-001	-2.79546E-002	-3.87111E-002	6.93904E-001	-4.39082E-002	2.29517E-003	-1.74988E-004	2.02273E-002	1.89172E-002	-9.49797E-004	-1.31526E-003	2.35764E-002	-1.49184E-003
	113	113	1.10028E+000	3.40687E-002	0.00000E+000	3.74851E-002	3.39824E-001	4.04638E-002	4.72895E+001	11	...........	6.75639E-002	-5.20542E-003	5.95443E-001	5.56869E-001	-2.79306E-002	-3.86917E-002	6.93981E-001	-4.40382E-002	2.30181E-003	-1.77342E-004	2.02860E-002	1.89718E-002	-9.51558E-004	-1.31817E-003	2.36430E-002	-1.50032E-003
	114	114	1.10035E+000	3.37143E-002	0.00000E+000	3.70975E-002	3.36306E-001	4.04356E-002	4.73103E+001	11	...........	6.75132E-002	-5.19208E-003	5.95641E-001	5.56821E-001	-2.79349E-002	-3.87021E-002	6.93947E-001	-4.39368E-002	2.27616E-003	-1.75048E-004	2.00816E-002	1.87729E-002	-9.41805E-004	-1.30482E-003	2.33960E-002	-1.48130E-003
	115	115	1.10024E+000	3.37277E-002	0.00000E+000	3.71085E-002	3.36441E-001	4.03907E-002	4.73457E+001	11	...........	6.74411E-002	-5.20583E-003	5.95733E-001	5.56788E-001	-2.79358E-002	-3.86911E-002	6.93867E-001	-4.39076E-002	2.27464E-003	-1.75581E-004	2.00927E-002	1.87792E-002	-9.42212E-004	-1.30496E-003	2.34026E-002	-1.48091E-003
	116	116	1.10028E+000	3.38177E-002	0.00000E+000	3.72089E-002	3.37331E-001	4.03742E-002	4.73524E+001	11	...........	6.74250E-002	-5.21917E-003	5.95826E-001	5.56771E-001	-2.79490E-002	-3.87050E-002	6.93932E-001	-4.38331E-002	2.28016E-003	-1.76500E-004	2.01495E-002	1.88287E-002	-9.45172E-004	-1.30891E-003	2.34672E-002	-1.48233E-003
	117	117	1.10035E+000	3.34885E-002	0.00000E+000	3.68491E-002	3.34065E-001	4.03787E-002	4.73672E+001	11	...........	6.74328E-002	-5.24653E-003	5.95752E-001	5.56843E-001	-2.79574E-002	-3.86926E-002	6.93935E-001	-4.39349E-002	2.25823E-003	-1.75699E-004	1.99509E-002	1.86479E-002	-9.36251E-004	-1.29576E-003	2.32389E-002	-1.47131E-003
	118	118	1.10024E+000	3.34793E-002	0.00000E+000	3.68352E-002	3.33975E-001	4.03514E-002	4.73815E+001	11	...........	6.73637E-002	-5.33347E-003	5.95821E-001	5.56880E-001	-2.79836E-002	-3.87083E-002	6.93903E-001	-4.39788E-002	2.25529E-003	-1.78561E-004	1.99477E-002	1.86440E-002	-9.36872E-004	-1.29593E-003	2.32314E-002	-1.47238E-003
	119	119	1.10028E+000	3.35513E-002	0.00000E+000	3.69158E-002	3.34687E-001	4.03159E-002	4.74046E+001	11	...........	6.73214E-002	-5.28125E-003	5.95828E-001	5.56755E-001	-2.79978E-002	-3.87189E-002	6.93984E-001	-4.40525E-002	2.25872E-003	-1.77193E-004	1.99908E-002	1.86799E-002	-9.39363E-004	-1.29907E-003	2.32841E-002	-1.47802E-003
	120	120	1.10035E+000	3.32565E-002	0.00000E+000	3.65939E-002	3.31756E-001	4.03082E-002	4.74021E+001	11	...........	6.73169E-002	-5.19125E-003	5.95834E-001	5.56845E-001	-2.79879E-002	-3.87119E-002	6.94020E-001	-4.40210E-002	2.23873E-003	-1.72643E-004	1.98154E-002	1.85187E-002	-9.30781E-004	-1.28742E-003	2.30807E-002	-1.46398E-003
	121	121	1.10024E+000	3.32298E-002	0.00000E+000	3.65606E-002	3.31492E-001	4.02746E-002	4.73917E+001	11	...........	6.72510E-002	-5.10833E-003	5.95652E-001	5.56836E-001	-2.79726E-002	-3.86987E-002	6.94005E-001	-4.40576E-002	2.23473E-003	-1.69749E-004	1.97934E-002	1.85035E-002	-9.29524E-004	-1.28595E-003	2.30616E-002	-1.46403E-003
	122	122	1.10028E+000	3.33374E-002	0.00000E+000	3.66804E-002	3.32559E-001	4.02424E-002	4.73754E+001	11	...........	6.72132E-002	-5.10528E-003	5.95611E-001	5.56942E-001	-2.79531E-002	-3.87128E-002	6.94037E-001	-4.40374E-002	2.24071E-003	-1.70197E-004	1.98561E-002	1.85670E-002	-9.31883E-004	-1.29058E-003	2.31374E-002	-1.46809E-003
	123	123	1.10035E+000	3.30417E-002	0.00000E+000	3.63575E-002	3.29624E-001	4.02346E-002	4.73688E+001	11	...........	6.71886E-002	-5.09292E-003	5.95569E-001	5.57073E-001	-2.79310E-002	-3.87031E-002	6.93934E-001	-4.39254E-002	2.22002E-003	-1.68278E-004	1.96786E-002	1.84066E-002	-9.22886E-004	-1.27881E-003	2.29287E-002	-1.45137E-003
	124	124	1.10024E+000	3.29720E-002	0.00000E+000	3.62771E-002	3.28929E-001	4.02124E-002	4.73443E+001	11	...........	6.71433E-002	-5.13958E-003	5.95585E-001	5.56905E-001	-2.79439E-002	-3.87137E-002	6.93957E-001	-4.40032E-002	2.21385E-003	-1.69463E-004	1.96376E-002	1.83623E-002	-9.21367E-004	-1.27647E-003	2.28812E-002	-1.45087E-003
	125	125	1.10028E+000	3.30644E-002	0.00000E+000	3.63800E-002	3.29847E-001	4.01952E-002	4.73338E+001	11	...........	6.71290E-002	-5.19167E-003	5.95502E-001	5.57020E-001	-2.79567E-002	-3.87397E-002	6.94041E-001	-4.39687E-002	2.21958E-003	-1.71660E-004	1.96900E-002	1.84175E-002	-9.24371E-004	-1.28091E-003	2.29481E-002	-1.45380E-003
	126	126	1.10035E+000	3.28073E-002	0.00000E+000	3.60995E-002	3.27289E-001	4.01733E-002	4.73475E+001	11	...........	6.70753E-002	-5.27597E-003	5.95558E-001	5.57032E-001	-2.79614E-002	-3.87517E-002	6.94118E-001	-4.39035E-002	2.20056E-003	-1.73090E-004	1.95386E-002	1.82747E-002	-9.17337E-004	-1.27134E-003	2.27721E-002	-1.44035E-003
	127	127	1.10024E+000	3.27526E-002	0.00000E+000	3.60356E-002	3.26740E-001	4.01478E-002	4.73232E+001	11	...........	6.70382E-002	-5.23958E-003	5.95723E-001	5.56998E-001	-2.79742E-002	-3.87260E-002	6.94043E-001	-4.39122E-002	2.19567E-003	-1.71610E-004	1.95115E-002	1.82431E-002	-9.16225E-004	-1.26837E-003	2.27317E-002	-1.43824E-003
	128	128	1.10027E+000	3.28335E-002	0.00000E+000	3.61258E-002	3.27554E-001	4.01087E-002	4.73285E+001	11	...........	6.69794E-002	-5.32000E-003	5.95583E-001	5.57089E-001	-2.79824E-002	-3.87243E-002	6.94079E-001	-4.39808E-002	2.19917E-003	-1.74674E-004	1.95550E-002	1.82912E-002	-9.18758E-004	-1.27145E-003	2.27890E-002	-1.44404E-003
	129	129	1.10035E+000	3.25562E-002	0.00000E+000	3.58233E-002	3.24789E-001	4.00880E-002	4.72792E+001	11	...........	6.69311E-002	-5.35125E-003	5.95528E-001	5.57137E-001	-2.79836E-002	-3.87244E-002	6.94024E-001	-4.40440E-002	2.17903E-003	-1.74217E-004	1.93882E-002	1.81383E-002	-9.11041E-004	-1.26072E-003	2.25948E-002	-1.43391E-003
	130	130	1.10024E+000	3.25212E-002	0.00000E+000	3.57811E-002	3.24452E-001	4.00539E-002	4.73225E+001	11	...........	6.68912E-002	-5.20167E-003	5.95614E-001	5.57058E-001	-2.79836E-002	-3.87322E-002	6.94007E-001	-4.40185E-002	2.17539E-003	-1.69165E-004	1.93701E-002	1.81162E-002	-9.10061E-004	-1.25962E-003	2.25700E-002	-1.43153E-003
	131	131	1.10027E+000	3.26249E-002	0.00000E+000	3.58962E-002	3.25476E-001	4.00361E-002	4.73222E+001	11	...........	6.68536E-002	-5.15250E-003	5.95742E-001	5.57153E-001	-2.79444E-002	-3.87499E-002	6.94090E-001	-4.40361E-002	2.18109E-003	-1.68100E-004	1.94360E-002	1.81771E-002	-9.11684E-004	-1.26421E-003	2.26446E-002	-1.43667E-003
	132	132	1.10035E+000	3.23461E-002	0.00000E+000	3.55921E-002	3.22708E-001	4.00129E-002	4.73346E+001	11	...........	6.68003E-002	-5.19806E-003	5.95837E-001	5.57337E-001	-2.79394E-002	-3.87437E-002	6.94112E-001	-4.40886E-002	2.16073E-003	-1.68137E-004	1.92730E-002	1.80277E-002	-9.03731E-004	-1.25321E-003	2.24518E-002	-1.42609E-003
	133	133	1.10024E+000	3.22752E-002	0.00000E+000	3.55105E-002	3.22003E-001	3.99932E-002	4.73374E+001	11	...........	6.67874E-002	-5.11958E-003	5.95702E-001	5.57471E-001	-2.79490E-002	-3.87637E-002	6.94041E-001	-4.39607E-002	2.15558E-003	-1.65236E-004	1.92264E-002	1.79925E-002	-9.02061E-004	-1.25111E-003	2.24003E-002	-1.41884E-003
	134	134	1.10027E+000	3.23766E-002	0.00000E+000	3.56231E-002	3.23004E-001	3.99625E-002	4.73511E+001	11	...........	6.67421E-002	-5.08375E-003	5.95633E-001	5.57362E-001	-2.79432E-002	-3.87572E-002	6.94134E-001	-4.39226E-002	2.16088E-003	-1.64595E-004	1.92846E-002	1.80455E-002	-9.04706E-004	-1.25483E-003	2.24737E-002	-1.42207E-003
	135	135	1.10035E+000	3.21143E-002	0.00000E+000	3.53370E-002	3.20393E-001	3.99449E-002	4.73259E+001	11	...........	6.67061E-002	-5.04958E-003	5.95722E-001	5.57287E-001	-2.79394E-002	-3.87749E-002	6.94314E-001	-4.39633E-002	2.14222E-003	-1.62164E-004	1.91312E-002	1.78969E-002	-8.97255E-004	-1.24523E-003	2.22974E-002	-1.41185E-003
	136	136	1.10024E+000	3.20132E-002	0.00000E+000	3.52222E-002	3.19390E-001	3.99233E-002	4.73210E+001	11	...........	6.66662E-002	-5.12431E-003	5.95732E-001	5.57180E-001	-2.79511E-002	-3.87706E-002	6.94251E-001	-4.40092E-002	2.13420E-003	-1.64045E-004	1.90713E-002	1.78371E-002	-8.94804E-004	-1.24117E-003	2.22252E-002	-1.40887E-003
	137	137	1.10027E+000	3.21329E-002	0.00000E+000	3.53549E-002	3.20581E-001	3.99069E-002	4.73396E+001	11	...........	6.66185E-002	-5.08972E-003	5.95748E-001	5.57064E-001	-2.79471E-002	-3.87492E-002	6.94345E-001	-4.40550E-002	2.14064E-003	-1.63548E-004	1.91431E-002	1.79001E-002	-8.98021E-004	-1.24512E-003	2.23113E-002	-1.41561E-003
	138	138	1.10035E+000	3.18863E-002	0.00000E+000	3.50861E-002	3.18126E-001	3.98884E-002	4.73495E+001	11	...........	6.66026E-002	-5.08139E-003	5.95803E-001	5.57026E-001	-2.79394E-002	-3.87678E-002	6.94236E-001	-4.40860E-002	2.12371E-003	-1.62027E-004	1.89980E-002	1.77615E-002	-8.90887E-004	-1.23616E-003	2.21367E-002	-1.40574E-003
	139	139	1.10024E+000	3.17656E-002	0.00000E+000	3.49499E-002	3.16928E-001	3.98562E-002	4.73488E+001	11	...........	6.65642E-002	-5.19625E-003	5.95734E-001	5.56882E-001	-2.79282E-002	-3.87667E-002	6.94331E-001	-4.39699E-002	2.11445E-003	-1.65062E-004	1.89239E-002	1.76897E-002	-8.87157E-004	-1.23145E-003	2.20559E-002	-1.39673E-003
	140	140	1.10027E+000	3.19062E-002	0.00000E+000	3.51054E-002	3.18327E-001	3.98429E-002	4.73392E+001	11	...........	6.65276E-002	-5.26000E-003	5.95903E-001	5.56727E-001	-2.79158E-002	-3.87765E-002	6.94323E-001	-4.39594E-002	2.12264E-003	-1.67826E-004	1.90130E-002	1.77630E-002	-8.90687E-004	-1.23721E-003	2.21532E-002	-1.40258E-003
	141	141	1.10035E+000	3.16863E-002	0.00000E+000	3.48660E-002	3.16143E-001	3.98115E-002	4.73212E+001	11	...........	6.64747E-002	-5.14403E-003	5.95958E-001	5.56676E-001	-2.79278E-002	-3.88017E-002	6.94266E-001	-4.40028E-002	2.10634E-003	-1.62995E-004	1.88837E-002	1.76390E-002	-8.84927E-004	-1.22948E-003	2.19987E-002	-1.39428E-003
	142	142	1.10025E+000	3.15368E-002	0.00000E+000	3.46983E-002	3.14656E-001	3.97826E-002	4.73114E+001	11	...........	6.64339E-002	-5.20139E-003	5.96218E-001	5.56803E-001	-2.79268E-002	-3.87961E-002	6.94212E-001	-4.39715E-002	2.09511E-003	-1.64035E-004	1.88028E-002	1.75598E-002	-8.80723E-004	-1.22351E-003	2.18932E-002	-1.38672E-003
	143	143	1.10027E+000	3.16678E-002	0.00000E+000	3.48431E-002	3.15959E-001	3.97814E-002	4.73094E+001	11	...........	6.64094E-002	-5.12597E-003	5.96189E-001	5.56786E-001	-2.79428E-002	-3.88106E-002	6.94165E-001	-4.39828E-002	2.10304E-003	-1.62328E-004	1.88800E-002	1.76322E-002	-8.84886E-004	-1.22904E-003	2.19827E-002	-1.39284E-003
	144	144	1.10035E+000	3.14529E-002	0.00000E+000	3.46091E-002	3.13826E-001	3.97437E-002	4.73436E+001	11	...........	6.63585E-002	-5.16458E-003	5.96257E-001	5.56762E-001	-2.79661E-002	-3.87993E-002	6.94205E-001	-4.40024E-002	2.08716E-003	-1.62441E-004	1.87540E-002	1.75118E-002	-8.79615E-004	-1.22035E-003	2.18347E-002	-1.38400E-003
	145	145	1.10025E+000	3.13023E-002	0.00000E+000	3.44403E-002	3.12329E-001	3.97218E-002	4.73697E+001	11	...........	6.63239E-002	-5.09889E-003	5.96214E-001	5.56709E-001	-2.79744E-002	-3.87892E-002	6.94167E-001	-4.39954E-002	2.07609E-003	-1.59607E-004	1.86629E-002	1.74263E-002	-8.75664E-004	-1.21419E-003	2.17290E-002	-1.37716E-003
	146	146	1.10027E+000	3.14474E-002	0.00000E+000	3.46006E-002	3.13771E-001	3.96987E-002	4.73866E+001	11	...........	6.62942E-002	-5.13319E-003	5.96256E-001	5.56862E-001	-2.79489E-002	-3.87783E-002	6.94194E-001	-4.40063E-002	2.08478E-003	-1.61426E-004	1.87507E-002	1.75119E-002	-8.78920E-004	-1.21948E-003	2.18306E-002	-1.38388E-003
	147	147	1.10035E+000	3.12490E-002	0.00000E+000	3.43847E-002	3.11792E-001	3.96817E-002	4.73885E+001	11	...........	6.62453E-002	-5.16375E-003	5.96081E-001	5.56944E-001	-2.79181E-002	-3.87592E-002	6.94243E-001	-4.39681E-002	2.07010E-003	-1.61362E-004	1.86269E-002	1.74039E-002	-8.72411E-004	-1.21118E-003	2.16944E-002	-1.37396E-003
	148	148	1.10025E+000	3.10812E-002	0.00000E+000	3.41971E-002	3.10127E-001	3.96491E-002	4.73590E+001	11	...........	6.61942E-002	-5.15792E-003	5.95954E-001	5.57025E-001	-2.79283E-002	-3.87535E-002	6.94299E-001	-4.38967E-002	2.05740E-003	-1.60314E-004	1.85230E-002	1.73130E-002	-8.68047E-004	-1.20451E-003	2.15797E-002	-1.36436E-003
	149	149	1.10027E+000	3.12405E-002	0.00000E+000	3.43730E-002	3.11713E-001	3.96455E-002	4.73456E+001	11	...........	6.61949E-002	-5.04458E-003	5.96096E-001	5.56989E-001	-2.79190E-002	-3.87533E-002	6.94259E-001	-4.38667E-002	2.06796E-003	-1.57596E-004	1.86224E-002	1.74006E-002	-8.72205E-004	-1.21067E-003	2.16890E-002	-1.37042E-003
	150	150	1.10034E+000	3.10512E-002	0.00000E+000	3.41670E-002	3.09826E-001	3.96168E-002	4.73736E+001	11	...........	6.61556E-002	-4.96292E-003	5.96255E-001	5.57171E-001	-2.79164E-002	-3.87742E-002	6.94218E-001	-4.40368E-002	2.05421E-003	-1.54105E-004	1.85144E-002	1.73008E-002	-8.66838E-004	-1.20398E-003	2.15563E-002	-1.36740E-003
	151	151	1.10025E+000	3.08866E-002	0.00000E+000	3.39831E-002	3.08200E-001	3.95835E-002	4.73813E+001	11	...........	6.60993E-002	-5.02375E-003	5.96366E-001	5.57179E-001	-2.79326E-002	-3.87701E-002	6.94346E-001	-4.41006E-002	2.04158E-003	-1.55167E-004	1.84197E-002	1.72094E-002	-8.62744E-004	-1.19748E-003	2.14460E-002	-1.36212E-003
	152	152	1.10027E+000	3.10165E-002	0.00000E+000	3.41265E-002	3.09484E-001	3.95598E-002	4.73774E+001	11	...........	6.60446E-002	-4.96556E-003	5.96297E-001	5.57200E-001	-2.79722E-002	-3.87601E-002	6.94203E-001	-4.40707E-002	2.04847E-003	-1.54014E-004	1.84951E-002	1.72824E-002	-8.67601E-004	-1.20220E-003	2.15318E-002	-1.36692E-003
	153	153	1.10034E+000	3.08189E-002	0.00000E+000	3.39113E-002	3.07524E-001	3.96004E-002	4.65416E+001	11	...........	6.61218E-002	-4.98306E-003	5.96422E-001	5.57328E-001	-2.79699E-002	-3.87546E-002	6.94271E-001	-4.41524E-002	2.03780E-003	-1.53572E-004	1.83811E-002	1.71762E-002	-8.62000E-004	-1.19437E-003	2.13966E-002	-1.36073E-003
	154	154	1.10025E+000	3.06011E-002	0.00000E+000	3.36690E-002	3.05362E-001	3.94187E-002	4.70508E+001	11	...........	6.58239E-002	-5.01194E-003	5.96329E-001	5.57297E-001	-2.79593E-002	-3.87514E-002	6.94124E-001	-4.40431E-002	2.01429E-003	-1.53371E-004	1.82483E-002	1.70539E-002	-8.55586E-004	-1.18584E-003	2.12410E-002	-1.34777E-003
	155	155	1.10027E+000	3.07982E-002	0.00000E+000	3.38862E-002	3.07311E-001	3.95452E-002	4.72799E+001	11	...........	6.60260E-002	-5.00028E-003	5.96252E-001	5.57290E-001	-2.79515E-002	-3.87331E-002	6.94120E-001	-4.39921E-002	2.03348E-003	-1.53999E-004	1.83635E-002	1.71635E-002	-8.60856E-004	-1.19291E-003	2.13776E-002	-1.35488E-003
	156	156	1.10034E+000	3.06450E-002	0.00000E+000	3.37200E-002	3.05789E-001	3.95067E-002	4.73872E+001	11	...........	6.59856E-002	-5.12514E-003	5.96316E-001	5.57211E-001	-2.79525E-002	-3.87354E-002	6.94247E-001	-4.39892E-002	2.02213E-003	-1.57060E-004	1.82741E-002	1.70757E-002	-8.56605E-004	-1.18705E-003	2.12752E-002	-1.34805E-003
	157	157	1.10026E+000	3.04340E-002	0.00000E+000	3.34853E-002	3.03699E-001	3.95299E-002	4.73537E+001	11	...........	6.60137E-002	-5.24694E-003	5.96263E-001	5.57158E-001	-2.79418E-002	-3.87371E-002	6.94205E-001	-4.39550E-002	2.00907E-003	-1.59686E-004	1.81467E-002	1.69566E-002	-8.50382E-004	-1.17893E-003	2.11275E-002	-1.33773E-003
	158	158	1.10027E+000	3.05170E-002	0.00000E+000	3.35768E-002	3.04513E-001	3.93777E-002	4.50122E+001	11	...........	6.57458E-002	-5.33903E-003	5.96202E-001	5.57073E-001	-2.79469E-002	-3.87349E-002	6.94183E-001	-4.39410E-002	2.00636E-003	-1.62931E-004	1.81943E-002	1.70002E-002	-8.52856E-004	-1.18207E-003	2.11844E-002	-1.34095E-003
	159	159	1.10034E+000	3.04158E-002	0.00000E+000	3.34676E-002	3.03506E-001	3.94557E-002	4.69862E+001	11	...........	6.58826E-002	-5.28403E-003	5.96096E-001	5.57154E-001	-2.79461E-002	-3.87486E-002	6.94259E-001	-4.40225E-002	2.00387E-003	-1.60718E-004	1.81307E-002	1.69463E-002	-8.50002E-004	-1.17857E-003	2.11164E-002	-1.33898E-003
	160	160	1.10026E+000	3.02340E-002	0.00000E+000	3.32653E-002	3.01706E-001	3.94854E-002	4.73102E+001	11	...........	6.59136E-002	-5.26167E-003	5.96100E-001	5.57127E-001	-2.79510E-002	-3.87740E-002	6.94222E-001	-4.40169E-002	1.99283E-003	-1.59081E-004	1.80225E-002	1.68442E-002	-8.45071E-004	-1.17230E-003	2.09891E-002	-1.33081E-003
	161	161	1.10027E+000	3.03994E-002	0.00000E+000	3.34475E-002	3.03345E-001	3.94762E-002	4.73382E+001	11	...........	6.59174E-002	-5.15333E-003	5.96173E-001	5.57056E-001	-2.79500E-002	-3.87918E-002	6.94212E-001	-4.39892E-002	2.00385E-003	-1.56658E-004	1.81233E-002	1.69342E-002	-8.49664E-004	-1.17925E-003	2.11037E-002	-1.33725E-003
	162	162	1.10034E+000	3.02351E-002	0.00000E+000	3.32689E-002	3.01713E-001	3.94515E-002	4.73761E+001	11	...........	6.58796E-002	-5.15194E-003	5.96145E-001	5.57093E-001	-2.79433E-002	-3.88058E-002	6.94195E-001	-4.39744E-002	1.99188E-003	-1.55770E-004	1.80245E-002	1.68438E-002	-8.44870E-004	-1.17330E-003	2.09891E-002	-1.32957E-003
	163	163	1.10026E+000	2.99952E-002	0.00000E+000	3.30026E-002	2.99329E-001	3.93940E-002	4.73671E+001	11	...........	6.57886E-002	-5.16403E-003	5.96144E-001	5.57037E-001	-2.79593E-002	-3.87899E-002	6.94121E-001	-4.39693E-002	1.97334E-003	-1.54896E-004	1.78815E-002	1.67085E-002	-8.38645E-004	-1.16351E-003	2.08203E-002	-1.31887E-003
	164	164	1.10027E+000	3.01425E-002	0.00000E+000	3.31648E-002	3.00797E-001	3.94467E-002	4.74591E+001	11	...........	6.58646E-002	-5.14194E-003	5.96112E-001	5.56905E-001	-2.79322E-002	-3.87947E-002	6.94002E-001	-4.39549E-002	1.98533E-003	-1.54991E-004	1.79683E-002	1.67865E-002	-8.41948E-004	-1.16937E-003	2.09190E-002	-1.32491E-003
	165	165	1.10034E+000	3.00220E-002	0.00000E+000	3.30343E-002	2.99594E-001	3.94110E-002	4.74567E+001	11	...........	6.58060E-002	-5.10944E-003	5.96253E-001	5.56869E-001	-2.79367E-002	-3.87875E-002	6.93981E-001	-4.39656E-002	1.97563E-003	-1.53396E-004	1.79007E-002	1.67183E-002	-8.38715E-004	-1.16448E-003	2.08347E-002	-1.31993E-003
	166	166	1.10026E+000	2.97921E-002	0.00000E+000	3.27792E-002	2.97305E-001	3.93922E-002	4.74202E+001	11	...........	6.57735E-002	-5.14639E-003	5.96388E-001	5.56809E-001	-2.79033E-002	-3.87856E-002	6.94016E-001	-4.40386E-002	1.95953E-003	-1.53322E-004	1.77677E-002	1.65885E-002	-8.31300E-004	-1.15550E-003	2.06762E-002	-1.31200E-003
	167	167	1.10027E+000	2.99283E-002	0.00000E+000	3.29290E-002	2.98658E-001	3.93867E-002	4.74231E+001	11	...........	6.57758E-002	-5.08347E-003	5.96470E-001	5.56930E-001	-2.78837E-002	-3.88022E-002	6.94002E-001	-4.40493E-002	1.96856E-003	-1.52140E-004	1.78513E-002	1.66680E-002	-8.34512E-004	-1.16128E-003	2.07703E-002	-1.31832E-003
	168	168	1.10033E+000	2.97940E-002	0.00000E+000	3.27834E-002	2.97318E-001	3.93557E-002	4.74258E+001	11	...........	6.57239E-002	-5.17347E-003	5.96459E-001	5.56953E-001	-2.78756E-002	-3.87796E-002	6.93920E-001	-4.39788E-002	1.95818E-003	-1.54139E-004	1.77709E-002	1.65939E-002	-8.30525E-004	-1.15540E-003	2.06747E-002	-1.31030E-003
	169	169	1.10027E+000	2.95628E-002	0.00000E+000	3.25269E-002	2.95026E-001	3.93537E-002	4.73931E+001	11	...........	6.57278E-002	-5.21319E-003	5.96386E-001	5.57115E-001	-2.78797E-002	-3.87721E-002	6.94034E-001	-4.40161E-002	1.94310E-003	-1.54117E-004	1.76308E-002	1.64699E-002	-8.24203E-004	-1.14621E-003	2.05176E-002	-1.30124E-003
	170	170	1.10026E+000	2.97083E-002	0.00000E+000	3.26869E-002	2.96475E-001	3.93361E-002	4.73851E+001	11	...........	6.56775E-002	-5.20611E-003	5.96308E-001	5.57142E-001	-2.78551E-002	-3.87475E-002	6.93970E-001	-4.40060E-002	1.95116E-003	-1.54665E-004	1.77153E-002	1.65517E-002	-8.27528E-004	-1.15112E-003	2.06166E-002	-1.30734E-003
	171	171	1.10033E+000	2.96010E-002	0.00000E+000	3.25709E-002	2.95411E-001	3.93383E-002	4.74444E+001	11	...........	6.56828E-002	-5.14083E-003	5.96310E-001	5.57108E-001	-2.78362E-002	-3.87581E-002	6.93877E-001	-4.40032E-002	1.94427E-003	-1.52174E-004	1.76513E-002	1.64909E-002	-8.23980E-004	-1.14728E-003	2.05394E-002	-1.30254E-003
	172	172	1.10027E+000	2.93677E-002	0.00000E+000	3.23124E-002	2.93092E-001	3.93020E-002	4.74097E+001	11	...........	6.56150E-002	-5.18569E-003	5.96378E-001	5.57042E-001	-2.78186E-002	-3.87408E-002	6.94010E-001	-4.40197E-002	1.92696E-003	-1.52292E-004	1.75143E-002	1.63591E-002	-8.16970E-004	-1.13773E-003	2.03815E-002	-1.29276E-003
	173	173	1.10026E+000	2.94817E-002	0.00000E+000	3.24377E-002	2.94228E-001	3.93269E-002	4.74537E+001	11	...........	6.56587E-002	-5.26736E-003	5.96482E-001	5.56964E-001	-2.78258E-002	-3.87168E-002	6.94017E-001	-4.40411E-002	1.93573E-003	-1.55291E-004	1.75853E-002	1.64202E-002	-8.20353E-004	-1.14144E-003	2.04608E-002	-1.29841E-003
	174	174	1.10033E+000	2.93363E-002	0.00000E+000	3.22797E-002	2.92782E-001	3.92872E-002	4.74732E+001	11	...........	6.56008E-002	-5.26347E-003	5.96396E-001	5.56926E-001	-2.78210E-002	-3.87343E-002	6.93953E-001	-4.40268E-002	1.92449E-003	-1.54411E-004	1.74961E-002	1.63382E-002	-8.16165E-004	-1.13632E-003	2.03580E-002	-1.29158E-003
	175	175	1.10027E+000	2.90953E-002	0.00000E+000	3.20127E-002	2.90389E-001	3.92981E-002	4.74987E+001	11	...........	6.56169E-002	-5.25306E-003	5.96333E-001	5.56968E-001	-2.78489E-002	-3.87468E-002	6.94021E-001	-4.40175E-002	1.90915E-003	-1.52839E-004	1.73505E-002	1.62052E-002	-8.10272E-004	-1.12735E-003	2.01928E-002	-1.28070E-003
	176	176	1.10026E+000	2.92235E-002	0.00000E+000	3.21535E-002	2.91662E-001	3.92452E-002	4.74960E+001	11	...........	6.55325E-002	-5.21333E-003	5.96320E-001	5.57007E-001	-2.78529E-002	-3.87493E-002	6.94248E-001	-4.40058E-002	1.91509E-003	-1.52352E-004	1.74266E-002	1.62777E-002	-8.13959E-004	-1.13239E-003	2.02883E-002	-1.28600E-003
	177	177	1.10033E+000	2.91666E-002	0.00000E+000	3.20929E-002	2.91095E-001	3.92560E-002	4.74360E+001	11	...........	6.55357E-002	-5.17028E-003	5.96411E-001	5.57070E-001	-2.78633E-002	-3.87512E-002	6.94216E-001	-4.39921E-002	1.91146E-003	-1.50800E-004	1.73953E-002	1.62479E-002	-8.12679E-004	-1.13024E-003	2.02479E-002	-1.28310E-003
	178	178	1.10027E+000	2.89391E-002	0.00000E+000	3.18409E-002	2.88837E-001	3.92225E-002	4.74379E+001	11	...........	6.54975E-002	-5.18000E-003	5.96509E-001	5.57228E-001	-2.78654E-002	-3.87514E-002	6.94029E-001	-4.39621E-002	1.89544E-003	-1.49905E-004	1.72624E-002	1.61257E-002	-8.06400E-004	-1.12143E-003	2.00846E-002	-1.27222E-003
	179	179	1.10026E+000	2.90642E-002	0.00000E+000	3.19782E-002	2.90077E-001	3.92278E-002	4.74764E+001	11	...........	6.55101E-002	-5.18583E-003	5.96505E-001	5.57251E-001	-2.78804E-002	-3.87465E-002	6.94147E-001	-4.39893E-002	1.90400E-003	-1.50722E-004	1.73369E-002	1.61960E-002	-8.10321E-004	-1.12614E-003	2.01748E-002	-1.27851E-003
	180	180	1.10033E+000	2.89662E-002	0.00000E+000	3.18723E-002	2.89102E-001	3.92177E-002	4.74544E+001	11	...........	6.54879E-002	-5.17931E-003	5.96692E-001	5.57220E-001	-2.79001E-002	-3.87635E-002	6.94119E-001	-4.39907E-002	1.89693E-003	-1.50025E-004	1.72839E-002	1.61405E-002	-8.08160E-004	-1.12283E-003	2.01060E-002	-1.27424E-003
	181	181	1.10028E+000	2.87143E-002	0.00000E+000	3.15936E-002	2.86602E-001	3.92368E-002	4.74777E+001	11	...........	6.55110E-002	-5.21486E-003	5.96689E-001	5.57131E-001	-2.78883E-002	-3.87712E-002	6.94130E-001	-4.39400E-002	1.88110E-003	-1.49741E-004	1.71335E-002	1.59976E-002	-8.00793E-004	-1.11329E-003	1.99315E-002	-1.26171E-003
	182	182	1.10026E+000	2.88539E-002	0.00000E+000	3.17468E-002	2.87989E-001	3.91921E-002	4.75020E+001	11	...........	6.54276E-002	-5.17347E-003	5.96588E-001	5.57168E-001	-2.78746E-002	-3.87761E-002	6.94173E-001	-4.39028E-002	1.88784E-003	-1.49275E-004	1.72139E-002	1.60765E-002	-8.04290E-004	-1.11884E-003	2.00296E-002	-1.26677E-003
	183	182.647	1.10037E+000	2.87153E-002	0.00000E+000	3.15976E-002	2.86612E-001	3.92323E-002	4.75011E+001	11	...........	6.54766E-002	-5.10009E-003	5.96542E-001	5.57266E-001	-2.78282E-002	-3.87764E-002	6.94161E-001	-4.39929E-002	1.88018E-003	-1.46451E-004	1.71299E-002	1.60021E-002	-7.99096E-004	-1.11348E-003	1.99331E-002	-1.26327E-003
STARTTIMEOFFSET	QUANT	561688.9	Start Time Offset (s)
