EXPLAIN
TAG	PWR800_CHARGE
TITLE	LABEL	PWR Charge	Test Identifier
DATE	LABEL	10/16/2022	Date
TIME	LABEL	14:13:01	Time
NOTES	NOTES	1	Notes...
	
PSTAT	PSTAT	REF3000-21114	Potentiostat
CAPACITY	QUANT	5.30000E-002	Capacity (A-hr)
CELLTYPE	SELECTOR	1	Cell Type
WORKINGCONNECTION	SELECTOR	0	Working Connection
MAXCHARGETIME	VARIABLEANDUNITS	7.20000E+003	s	2.00000E+000	hour(s)	Max Charge Time
CHARGEMODE	MULTIPARAM	0	1.00000E-001	Charge Mode	Constant Current	Amp(s)
CHARGECURRENT	QUANT	0.1	Charge Current (A)
VOLTAGEFINISH	TWOPARAM	T	2.50000E-002	7.20000E+003	Voltage Finish	I (A) <	Max Time(s)
SAMPLETIME	QUANT	1.00000E+000	Sample Period (s)
CHARGESTOPAT1	MULTIPARAM	2	1.10000E+000	Stop At 1	|Voltage| > Limit	V
CHARGESTOPAT2	MULTIPARAM	0	0.00000E+000	Stop At 2	None	N/A
AESELECTOR	AESELECTOR	0x1	T	Set Limits	AE Channels
AESBHCSELECTOR	TOGGLE	F	Save Both Half Cells
IRCOMP	TOGGLE	F	IR Measure
EOC	QUANT	0.2763223	Open Circuit (V)
SEQUENCER	TOGGLE	TRUE	Run as Sequence
PSTATMODEL	IQUANT	5	Pstat Model
PSTATSECTION	LABEL	REF3000-21114	Pstat Section
PSTATSERIALNO	LABEL	21114	Pstat Serial Number
CTRLMODE	IQUANT	0	Control Mode
ELECTROMETER	IQUANT	0	RE=0 or CS=1
IESTAB	IQUANT	0	I/E Stability
CASPEED	IQUANT	4	Control Amp Speed
CONVENTION	IQUANT	1	Current Convention
ICHRANGE	IQUANT	2	Ich Range
ICHRANGEMODE	TOGGLE	T	Ich Auto Range
ICHOFFSETENABLE	TOGGLE	F	Ich Offset Enable
ICHOFFSET	QUANT	0	Ich Offset (V)
ICHFILTER	IQUANT	1	Ich Filter
VCHRANGE	IQUANT	3	Vch Range
VCHRANGEMODE	TOGGLE	T	Vch Auto Range
VCHOFFSETENABLE	TOGGLE	F	Vch Offset Enable
VCHOFFSET	QUANT	0	Vch Offset (V)
VCHFILTER	IQUANT	1	Vch Filter
ACHRANGE	IQUANT	2	Ach Range
ACHOFFSETENABLE	TOGGLE	F	Ach Offset Enable
ACHOFFSET	QUANT	0	Ach Offset (V)
ACHFILTER	IQUANT	1	Ach Filter
IERANGELOWERLIMIT	IQUANT	9	I/E Range Lower Limit
IERANGEMODE	TOGGLE	F	I/E AutoRange
IERANGE	IQUANT	9	I/E Range
POSFEEDENABLE	TOGGLE	F	Positive Feedback IR Comp
POSFEEDRESISTANCE	QUANT	0	Positive Feedback Resistance (ohm)
ACHSELECT	IQUANT	1	Ach Select
SENSECABLEID	IQUANT	13	Sense Cable ID
PWRCABLEID	IQUANT	13	Power Cable ID
DCCALDATE	LABEL		DC Calibration Date
ACCALDATE	LABEL		AC Calibration Date
THERMOSELECT	IQUANT	1	Thermo Select
FRAMEWORKVERSION	LABEL	7.8.6	Framework Version
INSTRUMENTVERSION	LABEL	4.50	Instrument Version
COMPLIANCEVOLTAGE	IQUANT	0	Compliance Voltage
CURVE	TABLE	56
	Pt	T	Vf	Im	Vu	Pwr	Sig	Ach	Temp	IERange	Over	Vf1	Vf2	Vf3	Vf4	Vf5	Vf6	Vf7	Vf8	Pwr1	Pwr2	Pwr3	Pwr4	Pwr5	Pwr6	Pwr7	Pwr8
	#	s	V	A	V	W	V	V	deg C	#	bits	V	V	V	V	V	V	V	V	W	W	W	W	W	W	W	W
	0	1	5.73600E-001	9.98607E-002	0.00000E+000	5.72801E-002	9.94000E-001	3.77364E-002	3.95544E+001	11	...........	6.26379E-002	-4.33056E-003	5.74701E-001	6.32329E-001	-2.93503E-002	-3.88503E-002	6.64478E-001	-4.31179E-002	6.25507E-003	-4.32452E-004	5.73900E-002	6.31449E-002	-2.93094E-003	-3.87962E-003	6.63553E-002	-4.30579E-003
	1	2	8.38072E-001	9.98615E-002	0.00000E+000	8.36911E-002	9.94000E-001	3.83528E-002	4.37215E+001	11	...........	6.36764E-002	-4.24736E-003	5.74785E-001	6.32311E-001	-2.93521E-002	-3.88614E-002	6.64472E-001	-4.29694E-002	6.35882E-003	-4.24148E-004	5.73989E-002	6.31435E-002	-2.93114E-003	-3.88076E-003	6.63551E-002	-4.29099E-003
	2	2.04333	1.09082E+000	9.98620E-002	0.00000E+000	1.08931E-001	9.94000E-001	3.91135E-002	4.91538E+001	11	...........	6.49295E-002	-4.37179E-003	5.74795E-001	6.32256E-001	-2.89615E-002	-3.90064E-002	6.64455E-001	-4.30801E-002	6.48399E-003	-4.36576E-004	5.74002E-002	6.31384E-002	-2.89216E-003	-3.89526E-003	6.63538E-002	-4.30207E-003
	3	3	1.10156E+000	6.27813E-002	0.00000E+000	6.91570E-002	6.25279E-001	3.83812E-002	4.60914E+001	11	...........	6.37182E-002	-4.37544E-003	5.74833E-001	6.32228E-001	-2.93799E-002	-3.88631E-002	6.64489E-001	-4.29669E-002	4.00031E-003	-2.74695E-004	3.60888E-002	3.96921E-002	-1.84451E-003	-2.43987E-003	4.17174E-002	-2.69752E-003
	4	4	1.10113E+000	4.55157E-002	0.00000E+000	5.01185E-002	4.53605E-001	3.81590E-002	4.63839E+001	11	...........	6.33325E-002	-4.17569E-003	5.74751E-001	6.31970E-001	-2.93587E-002	-3.88668E-002	6.64413E-001	-4.30168E-002	2.88262E-003	-1.90060E-004	2.61602E-002	2.87645E-002	-1.33628E-003	-1.76905E-003	3.02412E-002	-1.95794E-003
	5	5	1.10098E+000	4.06369E-002	0.00000E+000	4.47404E-002	4.05093E-001	3.82898E-002	4.65699E+001	11	...........	6.35821E-002	-4.14306E-003	5.74771E-001	6.31886E-001	-2.93531E-002	-3.88901E-002	6.64331E-001	-4.30683E-002	2.58378E-003	-1.68361E-004	2.33569E-002	2.56779E-002	-1.19282E-003	-1.58037E-003	2.69963E-002	-1.75016E-003
	6	6	1.10100E+000	3.80848E-002	0.00000E+000	4.19315E-002	3.79719E-001	3.81497E-002	4.55657E+001	11	...........	6.33367E-002	-4.12819E-003	5.74681E-001	6.31789E-001	-2.93881E-002	-3.88761E-002	6.64194E-001	-4.30449E-002	2.41217E-003	-1.57222E-004	2.18866E-002	2.40616E-002	-1.11924E-003	-1.48059E-003	2.52957E-002	-1.63936E-003
	7	7	1.10106E+000	3.61344E-002	0.00000E+000	3.97861E-002	3.60325E-001	3.81921E-002	4.60044E+001	11	...........	6.34050E-002	-4.12472E-003	5.74612E-001	6.31782E-001	-2.93857E-002	-3.88642E-002	6.64248E-001	-4.29843E-002	2.29110E-003	-1.49044E-004	2.07633E-002	2.28290E-002	-1.06183E-003	-1.40433E-003	2.40022E-002	-1.55321E-003
	8	8	1.10095E+000	3.48981E-002	0.00000E+000	3.84212E-002	3.48036E-001	3.82555E-002	4.66868E+001	11	...........	6.34954E-002	-4.05611E-003	5.74477E-001	6.31735E-001	-2.93847E-002	-3.88794E-002	6.64269E-001	-4.28726E-002	2.21587E-003	-1.41550E-004	2.00482E-002	2.20463E-002	-1.02547E-003	-1.35682E-003	2.31817E-002	-1.49617E-003
	9	9	1.10099E+000	3.41013E-002	0.00000E+000	3.75451E-002	3.40107E-001	3.81942E-002	4.43976E+001	11	...........	6.34050E-002	-4.12583E-003	5.74371E-001	6.31752E-001	-2.93799E-002	-3.88724E-002	6.64151E-001	-4.29044E-002	2.16220E-003	-1.40696E-004	1.95868E-002	2.15436E-002	-1.00189E-003	-1.32560E-003	2.26484E-002	-1.46310E-003
	10	10	1.10105E+000	3.32231E-002	0.00000E+000	3.65802E-002	3.31379E-001	3.79747E-002	4.45946E+001	11	...........	6.30533E-002	-3.98903E-003	5.74271E-001	6.31674E-001	-2.93604E-002	-3.88574E-002	6.64248E-001	-4.28460E-002	2.09482E-003	-1.32528E-004	1.90790E-002	2.09861E-002	-9.75443E-004	-1.29096E-003	2.20683E-002	-1.42347E-003
	11	11	1.10095E+000	3.26890E-002	0.00000E+000	3.59890E-002	3.26067E-001	3.80993E-002	4.52010E+001	11	...........	6.32522E-002	-4.11958E-003	5.74261E-001	6.31701E-001	-2.93860E-002	-3.88665E-002	6.64297E-001	-4.28692E-002	2.06765E-003	-1.34665E-004	1.87720E-002	2.06497E-002	-9.60598E-004	-1.27051E-003	2.17152E-002	-1.40135E-003
	12	12	1.10098E+000	3.24032E-002	0.00000E+000	3.56752E-002	3.23227E-001	3.82702E-002	4.54579E+001	11	...........	6.35249E-002	-4.04542E-003	5.74227E-001	6.31609E-001	-2.94067E-002	-3.88683E-002	6.64352E-001	-4.29992E-002	2.05841E-003	-1.31084E-004	1.86068E-002	2.04661E-002	-9.52869E-004	-1.25946E-003	2.15271E-002	-1.39331E-003
	13	13	1.10104E+000	3.19000E-002	0.00000E+000	3.51233E-002	3.18220E-001	3.81915E-002	4.36436E+001	11	...........	6.34067E-002	-4.13347E-003	5.74153E-001	6.31626E-001	-2.93999E-002	-3.88643E-002	6.64325E-001	-4.30285E-002	2.02267E-003	-1.31858E-004	1.83155E-002	2.01488E-002	-9.37855E-004	-1.23977E-003	2.11920E-002	-1.37261E-003
	14	14	1.10095E+000	3.16231E-002	0.00000E+000	3.48155E-002	3.15471E-001	3.79561E-002	4.42439E+001	11	...........	6.30150E-002	-4.06917E-003	5.74151E-001	6.31532E-001	-2.94054E-002	-3.88692E-002	6.64205E-001	-4.30517E-002	1.99273E-003	-1.28680E-004	1.81565E-002	1.99710E-002	-9.29892E-004	-1.22917E-003	2.10042E-002	-1.36143E-003
	15	15	1.10098E+000	3.15107E-002	0.00000E+000	3.46925E-002	3.14349E-001	3.82064E-002	4.51354E+001	11	...........	6.34237E-002	-4.09264E-003	5.74327E-001	6.31515E-001	-2.94007E-002	-3.88367E-002	6.64173E-001	-4.30640E-002	1.99852E-003	-1.28962E-004	1.80974E-002	1.98995E-002	-9.26436E-004	-1.22377E-003	2.09285E-002	-1.35698E-003
	16	16	1.10104E+000	3.11829E-002	0.00000E+000	3.43337E-002	3.11096E-001	3.77531E-002	4.12084E+001	11	...........	6.27035E-002	-3.93792E-003	5.74443E-001	6.31557E-001	-2.94062E-002	-3.88378E-002	6.64152E-001	-4.30931E-002	1.95528E-003	-1.22796E-004	1.79128E-002	1.96938E-002	-9.16973E-004	-1.21108E-003	2.07102E-002	-1.34377E-003
	17	17	1.10095E+000	3.10126E-002	0.00000E+000	3.41434E-002	3.09404E-001	3.83528E-002	4.31676E+001	11	...........	6.36899E-002	-3.99556E-003	5.74420E-001	6.31565E-001	-2.94065E-002	-3.88296E-002	6.64156E-001	-4.30343E-002	1.97519E-003	-1.23912E-004	1.78142E-002	1.95865E-002	-9.11972E-004	-1.20421E-003	2.05972E-002	-1.33460E-003
	18	18	1.10097E+000	3.10244E-002	0.00000E+000	3.41571E-002	3.09523E-001	3.81078E-002	4.34889E+001	11	...........	6.32697E-002	-4.09375E-003	5.74431E-001	6.31542E-001	-2.93989E-002	-3.88631E-002	6.64137E-001	-4.31792E-002	1.96291E-003	-1.27006E-004	1.78214E-002	1.95932E-002	-9.12083E-004	-1.20570E-003	2.06045E-002	-1.33961E-003
	19	19	1.10104E+000	3.07316E-002	0.00000E+000	3.38367E-002	3.06611E-001	3.79402E-002	4.31279E+001	11	...........	6.29828E-002	-4.11861E-003	5.74470E-001	6.31515E-001	-2.93446E-002	-3.88667E-002	6.64190E-001	-4.32001E-002	1.93556E-003	-1.26572E-004	1.76544E-002	1.94075E-002	-9.01806E-004	-1.19443E-003	2.04116E-002	-1.32761E-003
	20	20	1.10095E+000	3.05946E-002	0.00000E+000	3.36832E-002	3.05250E-001	3.80399E-002	4.42617E+001	11	...........	6.33660E-002	-4.03181E-003	5.74365E-001	6.31486E-001	-2.93222E-002	-3.88640E-002	6.64227E-001	-4.31212E-002	1.93866E-003	-1.23352E-004	1.75725E-002	1.93201E-002	-8.97102E-004	-1.18903E-003	2.03218E-002	-1.31928E-003
	21	21	1.10097E+000	3.06358E-002	0.00000E+000	3.37292E-002	3.05657E-001	3.77243E-002	4.43117E+001	11	...........	6.29608E-002	-4.00042E-003	5.74236E-001	6.31473E-001	-2.93543E-002	-3.88671E-002	6.64090E-001	-4.30319E-002	1.92885E-003	-1.22556E-004	1.75922E-002	1.93457E-002	-8.99292E-004	-1.19072E-003	2.03449E-002	-1.31832E-003
	22	22	1.10104E+000	3.03831E-002	0.00000E+000	3.34529E-002	3.03145E-001	3.78020E-002	4.43401E+001	11	...........	6.30872E-002	-3.96472E-003	5.74338E-001	6.31349E-001	-2.93606E-002	-3.88587E-002	6.64097E-001	-4.29282E-002	1.91678E-003	-1.20460E-004	1.74502E-002	1.91823E-002	-8.92063E-004	-1.18065E-003	2.01773E-002	-1.30429E-003
	23	23	1.10095E+000	3.02763E-002	0.00000E+000	3.33328E-002	3.02081E-001	3.78890E-002	4.32670E+001	11	...........	6.32312E-002	-4.04250E-003	5.74359E-001	6.31326E-001	-2.93354E-002	-3.88812E-002	6.64118E-001	-4.29525E-002	1.91441E-003	-1.22392E-004	1.73894E-002	1.91142E-002	-8.88167E-004	-1.17718E-003	2.01070E-002	-1.30044E-003
	24	24	1.10097E+000	3.03579E-002	0.00000E+000	3.34233E-002	3.02897E-001	3.77548E-002	4.48078E+001	11	...........	6.30312E-002	-4.05194E-003	5.74464E-001	6.31300E-001	-2.93031E-002	-3.88618E-002	6.64011E-001	-4.28235E-002	1.91350E-003	-1.23009E-004	1.74395E-002	1.91650E-002	-8.89580E-004	-1.17976E-003	2.01580E-002	-1.30003E-003
	25	25	1.10104E+000	3.01270E-002	0.00000E+000	3.31708E-002	3.00603E-001	3.76760E-002	4.41523E+001	11	...........	6.28911E-002	-4.05722E-003	5.74447E-001	6.31365E-001	-2.93474E-002	-3.88503E-002	6.64068E-001	-4.27881E-002	1.89472E-003	-1.22232E-004	1.73064E-002	1.90211E-002	-8.84147E-004	-1.17044E-003	2.00063E-002	-1.28907E-003
	26	26	1.10096E+000	2.99919E-002	0.00000E+000	3.30198E-002	2.99259E-001	3.77817E-002	4.43321E+001	11	...........	6.30586E-002	-4.05444E-003	5.74389E-001	6.31540E-001	-2.93728E-002	-3.88561E-002	6.64207E-001	-4.28213E-002	1.89125E-003	-1.21601E-004	1.72270E-002	1.89411E-002	-8.80946E-004	-1.16537E-003	1.99208E-002	-1.28429E-003
	27	27	1.10097E+000	3.00743E-002	0.00000E+000	3.31110E-002	3.00077E-001	3.76517E-002	4.39696E+001	11	...........	6.28454E-002	-4.05611E-003	5.74406E-001	6.31715E-001	-2.93506E-002	-3.88447E-002	6.64240E-001	-4.28357E-002	1.89003E-003	-1.21985E-004	1.72749E-002	1.89984E-002	-8.82698E-004	-1.16823E-003	1.99766E-002	-1.28825E-003
	28	28	1.10104E+000	2.98639E-002	0.00000E+000	3.28812E-002	2.97986E-001	3.76095E-002	4.44301E+001	11	...........	6.27831E-002	-3.95389E-003	5.74242E-001	6.31670E-001	-2.93122E-002	-3.88343E-002	6.64145E-001	-4.27906E-002	1.87495E-003	-1.18079E-004	1.71491E-002	1.88641E-002	-8.75377E-004	-1.15974E-003	1.98340E-002	-1.27789E-003
	29	29	1.10096E+000	2.97393E-002	0.00000E+000	3.27417E-002	2.96752E-001	3.77682E-002	4.53972E+001	11	...........	6.30385E-002	-4.03444E-003	5.74395E-001	6.31684E-001	-2.93007E-002	-3.88354E-002	6.64087E-001	-4.30318E-002	1.87472E-003	-1.19982E-004	1.70821E-002	1.87858E-002	-8.71382E-004	-1.15494E-003	1.97495E-002	-1.27974E-003
	30	30	1.10097E+000	2.97916E-002	0.00000E+000	3.27998E-002	2.97269E-001	3.75326E-002	4.38052E+001	11	...........	6.26479E-002	-4.09569E-003	5.74251E-001	6.31517E-001	-2.93075E-002	-3.88078E-002	6.64072E-001	-4.30017E-002	1.86638E-003	-1.22017E-004	1.71078E-002	1.88139E-002	-8.73117E-004	-1.15615E-003	1.97838E-002	-1.28109E-003
	31	31	1.10103E+000	2.96094E-002	0.00000E+000	3.26009E-002	2.95457E-001	3.76404E-002	4.27490E+001	11	...........	6.28458E-002	-4.04806E-003	5.74179E-001	6.31576E-001	-2.92862E-002	-3.88049E-002	6.64031E-001	-4.29886E-002	1.86083E-003	-1.19861E-004	1.70011E-002	1.87006E-002	-8.67149E-004	-1.14899E-003	1.96616E-002	-1.27287E-003
	32	32	1.10096E+000	2.95140E-002	0.00000E+000	3.24937E-002	2.94510E-001	3.77172E-002	4.49800E+001	11	...........	6.29610E-002	-4.01444E-003	5.74203E-001	6.31634E-001	-2.92971E-002	-3.87879E-002	6.64009E-001	-4.29464E-002	1.85823E-003	-1.18482E-004	1.69470E-002	1.86420E-002	-8.64674E-004	-1.14479E-003	1.95976E-002	-1.26752E-003
	33	33	1.10097E+000	2.95566E-002	0.00000E+000	3.25411E-002	2.94933E-001	3.74603E-002	4.44916E+001	11	...........	6.25389E-002	-3.97056E-003	5.74261E-001	6.31662E-001	-2.93237E-002	-3.87924E-002	6.64017E-001	-4.29571E-002	1.84844E-003	-1.17356E-004	1.69732E-002	1.86698E-002	-8.66712E-004	-1.14657E-003	1.96261E-002	-1.26967E-003
	34	34	1.10103E+000	2.94134E-002	0.00000E+000	3.23851E-002	2.93509E-001	3.76694E-002	4.42197E+001	11	...........	6.28856E-002	-3.95361E-003	5.74151E-001	6.31630E-001	-2.92828E-002	-3.87986E-002	6.63855E-001	-4.29985E-002	1.84968E-003	-1.16289E-004	1.68877E-002	1.85784E-002	-8.61306E-004	-1.14120E-003	1.95262E-002	-1.26473E-003
	35	35	1.10096E+000	2.92460E-002	0.00000E+000	3.21987E-002	2.91845E-001	3.75185E-002	4.43559E+001	11	...........	6.26033E-002	-4.03681E-003	5.74177E-001	6.31653E-001	-2.92589E-002	-3.88119E-002	6.64051E-001	-4.28676E-002	1.83090E-003	-1.18060E-004	1.67924E-002	1.84733E-002	-8.55706E-004	-1.13509E-003	1.94209E-002	-1.25371E-003
	36	36	1.10097E+000	2.93260E-002	0.00000E+000	3.22871E-002	2.92639E-001	3.75214E-002	4.32809E+001	11	...........	6.26260E-002	-4.15556E-003	5.74160E-001	6.31530E-001	-2.92967E-002	-3.88410E-002	6.64041E-001	-4.28926E-002	1.83657E-003	-1.21866E-004	1.68378E-002	1.85203E-002	-8.59155E-004	-1.13905E-003	1.94737E-002	-1.25787E-003
	37	37	1.10103E+000	2.92108E-002	0.00000E+000	3.21620E-002	2.91493E-001	3.75472E-002	4.43659E+001	11	...........	6.26664E-002	-4.13222E-003	5.74182E-001	6.31537E-001	-2.92939E-002	-3.88208E-002	6.63938E-001	-4.29256E-002	1.83054E-003	-1.20706E-004	1.67723E-002	1.84477E-002	-8.55698E-004	-1.13399E-003	1.93942E-002	-1.25389E-003
	38	38	1.10096E+000	2.90417E-002	0.00000E+000	3.19738E-002	2.89817E-001	3.74381E-002	4.40891E+001	11	...........	6.24993E-002	-4.17861E-003	5.74250E-001	6.31530E-001	-2.92990E-002	-3.88412E-002	6.63904E-001	-4.29864E-002	1.81509E-003	-1.21354E-004	1.66772E-002	1.83407E-002	-8.50894E-004	-1.12802E-003	1.92809E-002	-1.24840E-003
	39	39	1.10097E+000	2.91417E-002	0.00000E+000	3.20842E-002	2.90807E-001	3.75626E-002	4.42710E+001	11	...........	6.27017E-002	-4.10792E-003	5.74093E-001	6.31484E-001	-2.93406E-002	-3.88539E-002	6.64002E-001	-4.30194E-002	1.82724E-003	-1.19712E-004	1.67301E-002	1.84025E-002	-8.55035E-004	-1.13227E-003	1.93502E-002	-1.25366E-003
	40	40	1.10103E+000	2.89714E-002	0.00000E+000	3.18984E-002	2.89117E-001	3.73903E-002	4.41656E+001	11	...........	6.24106E-002	-4.10611E-003	5.74209E-001	6.31404E-001	-2.93232E-002	-3.88390E-002	6.64099E-001	-4.30664E-002	1.80812E-003	-1.18960E-004	1.66357E-002	1.82927E-002	-8.49535E-004	-1.12522E-003	1.92399E-002	-1.24770E-003
	41	41	1.10096E+000	2.88147E-002	0.00000E+000	3.17240E-002	2.87558E-001	3.75843E-002	4.33308E+001	11	...........	6.27147E-002	-4.07194E-003	5.74220E-001	6.31448E-001	-2.92822E-002	-3.88379E-002	6.64119E-001	-4.31047E-002	1.80711E-003	-1.17332E-004	1.65460E-002	1.81950E-002	-8.43760E-004	-1.11910E-003	1.91364E-002	-1.24205E-003
	42	42	1.10097E+000	2.89218E-002	0.00000E+000	3.18420E-002	2.88629E-001	3.72049E-002	4.31069E+001	11	...........	6.21060E-002	-4.08167E-003	5.74104E-001	6.31398E-001	-2.93407E-002	-3.88203E-002	6.64082E-001	-4.31297E-002	1.79621E-003	-1.18049E-004	1.66041E-002	1.82612E-002	-8.48585E-004	-1.12275E-003	1.92064E-002	-1.24739E-003
	43	43	1.10103E+000	2.87759E-002	0.00000E+000	3.16830E-002	2.87180E-001	3.75876E-002	4.51581E+001	11	...........	6.27489E-002	-4.05903E-003	5.74038E-001	6.31539E-001	-2.93096E-002	-3.88333E-002	6.64080E-001	-4.30251E-002	1.80565E-003	-1.16802E-004	1.65184E-002	1.81731E-002	-8.43408E-004	-1.11746E-003	1.91095E-002	-1.23808E-003
	44	44	1.10097E+000	2.85948E-002	0.00000E+000	3.14819E-002	2.85380E-001	3.74402E-002	4.32159E+001	11	...........	6.24956E-002	-3.99597E-003	5.74011E-001	6.31629E-001	-2.93387E-002	-3.88676E-002	6.63928E-001	-4.29300E-002	1.78705E-003	-1.14264E-004	1.64137E-002	1.80613E-002	-8.38936E-004	-1.11141E-003	1.89849E-002	-1.22757E-003
	45	45	1.10097E+000	2.87136E-002	0.00000E+000	3.16128E-002	2.86560E-001	3.73997E-002	4.45094E+001	11	...........	6.24454E-002	-3.96708E-003	5.74113E-001	6.31633E-001	-2.93631E-002	-3.88756E-002	6.63861E-001	-4.30464E-002	1.79303E-003	-1.13909E-004	1.64849E-002	1.81365E-002	-8.43120E-004	-1.11626E-003	1.90618E-002	-1.23602E-003
	46	46	1.10103E+000	2.85781E-002	0.00000E+000	3.14653E-002	2.85212E-001	3.74733E-002	4.35968E+001	11	...........	6.25542E-002	-4.03778E-003	5.74250E-001	6.31592E-001	-2.93126E-002	-3.88760E-002	6.64024E-001	-4.30275E-002	1.78768E-003	-1.15392E-004	1.64110E-002	1.80497E-002	-8.37700E-004	-1.11100E-003	1.89766E-002	-1.22964E-003
	47	47	1.10097E+000	2.83907E-002	0.00000E+000	3.12572E-002	2.83344E-001	3.70619E-002	4.22171E+001	11	...........	6.18703E-002	-4.00639E-003	5.74332E-001	6.31443E-001	-2.93329E-002	-3.88529E-002	6.64024E-001	-4.30840E-002	1.75654E-003	-1.13744E-004	1.63057E-002	1.79271E-002	-8.32781E-004	-1.10306E-003	1.88521E-002	-1.22318E-003
	48	48	1.10097E+000	2.85357E-002	0.00000E+000	3.14169E-002	2.84789E-001	3.76975E-002	4.45924E+001	11	...........	6.29247E-002	-4.06597E-003	5.74446E-001	6.31403E-001	-2.93197E-002	-3.88224E-002	6.64090E-001	-4.29774E-002	1.79560E-003	-1.16025E-004	1.63922E-002	1.80175E-002	-8.36658E-004	-1.10782E-003	1.89503E-002	-1.22639E-003
	49	49	1.10103E+000	2.83992E-002	0.00000E+000	3.12683E-002	2.83430E-001	3.72761E-002	4.38285E+001	11	...........	6.22042E-002	-4.13750E-003	5.74376E-001	6.31385E-001	-2.93867E-002	-3.88082E-002	6.64238E-001	-4.29358E-002	1.76655E-003	-1.17502E-004	1.63118E-002	1.79308E-002	-8.34557E-004	-1.10212E-003	1.88638E-002	-1.21934E-003
	50	50	1.10097E+000	2.82027E-002	0.00000E+000	3.10503E-002	2.81475E-001	3.73103E-002	4.34719E+001	11	...........	6.22847E-002	-3.99542E-003	5.74255E-001	6.31400E-001	-2.93953E-002	-3.87946E-002	6.64295E-001	-4.29429E-002	1.75660E-003	-1.12682E-004	1.61956E-002	1.78072E-002	-8.29027E-004	-1.09411E-003	1.87349E-002	-1.21111E-003
	51	51	1.10097E+000	2.83217E-002	0.00000E+000	3.11813E-002	2.82663E-001	3.74749E-002	4.33761E+001	11	...........	6.25469E-002	-3.98528E-003	5.74245E-001	6.31307E-001	-2.93656E-002	-3.87967E-002	6.64277E-001	-4.29549E-002	1.77144E-003	-1.12870E-004	1.62636E-002	1.78797E-002	-8.31683E-004	-1.09879E-003	1.88135E-002	-1.21656E-003
	52	52	1.10103E+000	2.81940E-002	0.00000E+000	3.10423E-002	2.81386E-001	3.71133E-002	4.35812E+001	11	...........	6.19672E-002	-4.12556E-003	5.74004E-001	6.31242E-001	-2.93756E-002	-3.88003E-002	6.64298E-001	-4.29514E-002	1.74710E-003	-1.16316E-004	1.61835E-002	1.77972E-002	-8.28214E-004	-1.09393E-003	1.87292E-002	-1.21097E-003
	53	53	1.10097E+000	2.80270E-002	0.00000E+000	3.08569E-002	2.79730E-001	3.74036E-002	4.46203E+001	11	...........	6.24239E-002	-4.27958E-003	5.73929E-001	6.31330E-001	-2.93267E-002	-3.88408E-002	6.64261E-001	-4.29908E-002	1.74955E-003	-1.19944E-004	1.60855E-002	1.76943E-002	-8.21937E-004	-1.08859E-003	1.86172E-002	-1.20490E-003
	54	54	1.10097E+000	2.81263E-002	0.00000E+000	3.09662E-002	2.80719E-001	3.72663E-002	4.39023E+001	11	...........	6.22250E-002	-4.17028E-003	5.73917E-001	6.31274E-001	-2.93576E-002	-3.88574E-002	6.64124E-001	-4.30843E-002	1.75016E-003	-1.17295E-004	1.61422E-002	1.77554E-002	-8.25723E-004	-1.09292E-003	1.86794E-002	-1.21180E-003
	55	54.835	1.10105E+000	2.79739E-002	0.00000E+000	3.08007E-002	2.79201E-001	3.73758E-002	4.38593E+001	11	...........	6.24085E-002	-4.09564E-003	5.73647E-001	6.31226E-001	-2.93648E-002	-3.88536E-002	6.64078E-001	-4.31919E-002	1.74581E-003	-1.14571E-004	1.60472E-002	1.76579E-002	-8.21449E-004	-1.08689E-003	1.85769E-002	-1.20825E-003
STARTTIMEOFFSET	QUANT	842503.1	Start Time Offset (s)
