EXPLAIN
TAG	PWR800_CHARGE
TITLE	LABEL	PWR Charge	Test Identifier
DATE	LABEL	10/11/2022	Date
TIME	LABEL	5:22:13	Time
NOTES	NOTES	1	Notes...
	
PSTAT	PSTAT	REF3000-21114	Potentiostat
CAPACITY	QUANT	5.30000E-002	Capacity (A-hr)
CELLTYPE	SELECTOR	1	Cell Type
WORKINGCONNECTION	SELECTOR	0	Working Connection
MAXCHARGETIME	VARIABLEANDUNITS	7.20000E+003	s	2.00000E+000	hour(s)	Max Charge Time
CHARGEMODE	MULTIPARAM	0	1.00000E-001	Charge Mode	Constant Current	Amp(s)
CHARGECURRENT	QUANT	0.1	Charge Current (A)
VOLTAGEFINISH	TWOPARAM	T	2.50000E-002	7.20000E+003	Voltage Finish	I (A) <	Max Time(s)
SAMPLETIME	QUANT	1.00000E+000	Sample Period (s)
CHARGESTOPAT1	MULTIPARAM	2	1.10000E+000	Stop At 1	|Voltage| > Limit	V
CHARGESTOPAT2	MULTIPARAM	0	0.00000E+000	Stop At 2	None	N/A
AESELECTOR	AESELECTOR	0x1	T	Set Limits	AE Channels
AESBHCSELECTOR	TOGGLE	F	Save Both Half Cells
IRCOMP	TOGGLE	F	IR Measure
EOC	QUANT	0.3340647	Open Circuit (V)
SEQUENCER	TOGGLE	TRUE	Run as Sequence
PSTATMODEL	IQUANT	5	Pstat Model
PSTATSECTION	LABEL	REF3000-21114	Pstat Section
PSTATSERIALNO	LABEL	21114	Pstat Serial Number
CTRLMODE	IQUANT	0	Control Mode
ELECTROMETER	IQUANT	0	RE=0 or CS=1
IESTAB	IQUANT	0	I/E Stability
CASPEED	IQUANT	4	Control Amp Speed
CONVENTION	IQUANT	1	Current Convention
ICHRANGE	IQUANT	2	Ich Range
ICHRANGEMODE	TOGGLE	T	Ich Auto Range
ICHOFFSETENABLE	TOGGLE	F	Ich Offset Enable
ICHOFFSET	QUANT	0	Ich Offset (V)
ICHFILTER	IQUANT	1	Ich Filter
VCHRANGE	IQUANT	3	Vch Range
VCHRANGEMODE	TOGGLE	T	Vch Auto Range
VCHOFFSETENABLE	TOGGLE	F	Vch Offset Enable
VCHOFFSET	QUANT	0	Vch Offset (V)
VCHFILTER	IQUANT	1	Vch Filter
ACHRANGE	IQUANT	2	Ach Range
ACHOFFSETENABLE	TOGGLE	F	Ach Offset Enable
ACHOFFSET	QUANT	0	Ach Offset (V)
ACHFILTER	IQUANT	1	Ach Filter
IERANGELOWERLIMIT	IQUANT	9	I/E Range Lower Limit
IERANGEMODE	TOGGLE	F	I/E AutoRange
IERANGE	IQUANT	9	I/E Range
POSFEEDENABLE	TOGGLE	F	Positive Feedback IR Comp
POSFEEDRESISTANCE	QUANT	0	Positive Feedback Resistance (ohm)
ACHSELECT	IQUANT	1	Ach Select
SENSECABLEID	IQUANT	13	Sense Cable ID
PWRCABLEID	IQUANT	13	Power Cable ID
DCCALDATE	LABEL		DC Calibration Date
ACCALDATE	LABEL		AC Calibration Date
THERMOSELECT	IQUANT	1	Thermo Select
FRAMEWORKVERSION	LABEL	7.8.6	Framework Version
INSTRUMENTVERSION	LABEL	4.50	Instrument Version
COMPLIANCEVOLTAGE	IQUANT	0	Compliance Voltage
CURVE	TABLE	263
	Pt	T	Vf	Im	Vu	Pwr	Sig	Ach	Temp	IERange	Over	Vf1	Vf2	Vf3	Vf4	Vf5	Vf6	Vf7	Vf8	Pwr1	Pwr2	Pwr3	Pwr4	Pwr5	Pwr6	Pwr7	Pwr8
	#	s	V	A	V	W	V	V	deg C	#	bits	V	V	V	V	V	V	V	V	W	W	W	W	W	W	W	W
	0	1	5.69123E-001	9.98414E-002	0.00000E+000	5.68221E-002	9.94000E-001	3.79547E-002	3.41372E+001	11	...........	6.30296E-002	-3.91292E-003	5.62752E-001	6.72089E-001	-3.05624E-002	-3.93857E-002	6.52799E-001	-4.28281E-002	6.29296E-003	-3.90671E-004	5.61860E-002	6.71023E-002	-3.05139E-003	-3.93232E-003	6.51764E-002	-4.27601E-003
	1	2	6.97505E-001	9.98419E-002	0.00000E+000	6.96402E-002	9.94000E-001	3.75015E-002	3.47266E+001	11	...........	6.22682E-002	-3.88708E-003	5.62506E-001	6.72113E-001	-3.05658E-002	-3.93999E-002	6.52681E-001	-4.29015E-002	6.21697E-003	-3.88094E-004	5.61616E-002	6.71050E-002	-3.05175E-003	-3.93376E-003	6.51649E-002	-4.28337E-003
	2	3	8.28251E-001	9.98423E-002	0.00000E+000	8.26944E-002	9.94000E-001	3.79267E-002	3.72150E+001	11	...........	6.29535E-002	-3.93361E-003	5.62588E-001	6.72078E-001	-3.05647E-002	-3.94079E-002	6.52701E-001	-4.29008E-002	6.28542E-003	-3.92741E-004	5.61701E-002	6.71018E-002	-3.05165E-003	-3.93458E-003	6.51672E-002	-4.28332E-003
	3	3.72667	9.97152E-001	9.98429E-002	0.00000E+000	9.95586E-002	9.94000E-001	3.85460E-002	3.88795E+001	11	...........	6.39845E-002	-3.99637E-003	5.62832E-001	6.72108E-001	-3.06101E-002	-3.94218E-002	6.52584E-001	-4.28156E-002	6.38840E-003	-3.99009E-004	5.61948E-002	6.71052E-002	-3.05620E-003	-3.93599E-003	6.51559E-002	-4.27483E-003
	4	4	1.10061E+000	8.97839E-002	0.00000E+000	9.88175E-002	8.93963E-001	3.80817E-002	3.86306E+001	11	...........	6.32307E-002	-4.08689E-003	5.62756E-001	6.72120E-001	-3.04670E-002	-3.94604E-002	6.52644E-001	-4.28750E-002	5.67710E-003	-3.66937E-004	5.05265E-002	6.03456E-002	-2.73544E-003	-3.54291E-003	5.85970E-002	-3.84949E-003
	5	5	1.10024E+000	7.35056E-002	0.00000E+000	8.08740E-002	7.32097E-001	3.79540E-002	3.98632E+001	11	...........	6.29932E-002	-4.02097E-003	5.62675E-001	6.72077E-001	-3.05535E-002	-3.94153E-002	6.52617E-001	-4.28583E-002	4.63035E-003	-2.95564E-004	4.13598E-002	4.94014E-002	-2.24585E-003	-2.89724E-003	4.79710E-002	-3.15033E-003
	6	6	1.10010E+000	6.61557E-002	0.00000E+000	7.27777E-002	6.59012E-001	3.80237E-002	4.02308E+001	11	...........	6.31261E-002	-3.95361E-003	5.62635E-001	6.72099E-001	-3.05418E-002	-3.94128E-002	6.52629E-001	-4.28774E-002	4.17615E-003	-2.61554E-004	3.72215E-002	4.44632E-002	-2.02051E-003	-2.60738E-003	4.31751E-002	-2.83658E-003
	7	7	1.09997E+000	6.39651E-002	0.00000E+000	7.03595E-002	6.37227E-001	3.80858E-002	3.84783E+001	11	...........	6.32344E-002	-3.86333E-003	5.62649E-001	6.72117E-001	-3.05310E-002	-3.93933E-002	6.52696E-001	-4.28464E-002	4.04480E-003	-2.47119E-004	3.59899E-002	4.29920E-002	-1.95292E-003	-2.51980E-003	4.17498E-002	-2.74067E-003
	8	8	1.10008E+000	6.27802E-002	0.00000E+000	6.90634E-002	6.25443E-001	3.78300E-002	3.95082E+001	11	...........	6.27826E-002	-3.93222E-003	5.62763E-001	6.72317E-001	-3.04960E-002	-3.93775E-002	6.52771E-001	-4.28257E-002	3.94151E-003	-2.46866E-004	3.53304E-002	4.22082E-002	-1.91454E-003	-2.47213E-003	4.09811E-002	-2.68861E-003
	9	9	1.10007E+000	6.12266E-002	0.00000E+000	6.73534E-002	6.09989E-001	3.78021E-002	3.91737E+001	11	...........	6.27562E-002	-3.91903E-003	5.62810E-001	6.72307E-001	-3.04735E-002	-3.94060E-002	6.52680E-001	-4.28382E-002	3.84235E-003	-2.39949E-004	3.44590E-002	4.11631E-002	-1.86579E-003	-2.41269E-003	3.99614E-002	-2.62284E-003
	10	10	1.09995E+000	6.10371E-002	0.00000E+000	6.71379E-002	6.08105E-001	3.77997E-002	3.91750E+001	11	...........	6.27136E-002	-3.79278E-003	5.62873E-001	6.72109E-001	-3.04593E-002	-3.94351E-002	6.52797E-001	-4.27708E-002	3.82786E-003	-2.31500E-004	3.43561E-002	4.10236E-002	-1.85915E-003	-2.40701E-003	3.98449E-002	-2.61061E-003
	11	11	1.10007E+000	6.07864E-002	0.00000E+000	6.68695E-002	6.05611E-001	3.79507E-002	3.99016E+001	11	...........	6.29653E-002	-3.81597E-003	5.62858E-001	6.72180E-001	-3.04690E-002	-3.94287E-002	6.52801E-001	-4.27271E-002	3.82743E-003	-2.31959E-004	3.42141E-002	4.08594E-002	-1.85210E-003	-2.39673E-003	3.96814E-002	-2.59722E-003
	12	12	1.10007E+000	5.97363E-002	0.00000E+000	6.57142E-002	5.95163E-001	3.75748E-002	3.82241E+001	11	...........	6.23383E-002	-3.90472E-003	5.62850E-001	6.72062E-001	-3.04786E-002	-3.93881E-002	6.52707E-001	-4.27501E-002	3.72386E-003	-2.33253E-004	3.36225E-002	4.01465E-002	-1.82068E-003	-2.35289E-003	3.89903E-002	-2.55373E-003
	13	13	1.09994E+000	5.97448E-002	0.00000E+000	6.57159E-002	5.95249E-001	3.72818E-002	3.86808E+001	11	...........	6.18593E-002	-3.85000E-003	5.62741E-001	6.71949E-001	-3.05194E-002	-3.93764E-002	6.52613E-001	-4.28343E-002	3.69577E-003	-2.30017E-004	3.36208E-002	4.01454E-002	-1.82338E-003	-2.35253E-003	3.89902E-002	-2.55913E-003
	14	14	1.10007E+000	5.97056E-002	0.00000E+000	6.56802E-002	5.94859E-001	3.77749E-002	3.95729E+001	11	...........	6.27015E-002	-4.06806E-003	5.62771E-001	6.71993E-001	-3.05289E-002	-3.93875E-002	6.52613E-001	-4.28718E-002	3.74363E-003	-2.42886E-004	3.36006E-002	4.01218E-002	-1.82275E-003	-2.35166E-003	3.89647E-002	-2.55969E-003
	15	15	1.10007E+000	5.88540E-002	0.00000E+000	6.47438E-002	5.86391E-001	3.77008E-002	3.92855E+001	11	...........	6.25746E-002	-3.97236E-003	5.62806E-001	6.71984E-001	-3.05383E-002	-3.93960E-002	6.52709E-001	-4.29254E-002	3.68277E-003	-2.33789E-004	3.31234E-002	3.95490E-002	-1.79730E-003	-2.31861E-003	3.84146E-002	-2.52633E-003
	16	16	1.09994E+000	5.89030E-002	0.00000E+000	6.47897E-002	5.86880E-001	3.70377E-002	3.94488E+001	11	...........	6.14714E-002	-3.90681E-003	5.62798E-001	6.72065E-001	-3.05625E-002	-3.93957E-002	6.52647E-001	-4.27825E-002	3.62085E-003	-2.30122E-004	3.31505E-002	3.95866E-002	-1.80022E-003	-2.32052E-003	3.84428E-002	-2.52002E-003
	17	17	1.10006E+000	5.89685E-002	0.00000E+000	6.48691E-002	5.87529E-001	3.78400E-002	3.84336E+001	11	...........	6.27969E-002	-3.79986E-003	5.63033E-001	6.72126E-001	-3.05728E-002	-3.94161E-002	6.52567E-001	-4.27724E-002	3.70304E-003	-2.24072E-004	3.32012E-002	3.96342E-002	-1.80283E-003	-2.32431E-003	3.84809E-002	-2.52222E-003
	18	18	1.10009E+000	5.81827E-002	0.00000E+000	6.40062E-002	5.79714E-001	3.73989E-002	4.02076E+001	11	...........	6.20506E-002	-3.63403E-003	5.62958E-001	6.72292E-001	-3.05717E-002	-3.93997E-002	6.52787E-001	-4.27801E-002	3.61027E-003	-2.11438E-004	3.27544E-002	3.91158E-002	-1.77874E-003	-2.29238E-003	3.79809E-002	-2.48907E-003
	19	19	1.09994E+000	5.82032E-002	0.00000E+000	6.40198E-002	5.79919E-001	3.72622E-002	3.94402E+001	11	...........	6.18511E-002	-3.69819E-003	5.62940E-001	6.72313E-001	-3.05643E-002	-3.93785E-002	6.52716E-001	-4.27915E-002	3.59993E-003	-2.15247E-004	3.27649E-002	3.91308E-002	-1.77894E-003	-2.29195E-003	3.79902E-002	-2.49060E-003
	20	20	1.10005E+000	5.82609E-002	0.00000E+000	6.40898E-002	5.80494E-001	3.71040E-002	3.90358E+001	11	...........	6.17874E-002	-3.72514E-003	5.62968E-001	6.72275E-001	-3.05568E-002	-3.93675E-002	6.52647E-001	-4.29371E-002	3.59978E-003	-2.17030E-004	3.27990E-002	3.91673E-002	-1.78027E-003	-2.29358E-003	3.80238E-002	-2.50155E-003
	21	21	1.10010E+000	5.76128E-002	0.00000E+000	6.33796E-002	5.74052E-001	3.71978E-002	4.03765E+001	11	...........	6.20765E-002	-3.70833E-003	5.62958E-001	6.72373E-001	-3.05711E-002	-3.93632E-002	6.52788E-001	-4.28829E-002	3.57640E-003	-2.13647E-004	3.24336E-002	3.87373E-002	-1.76129E-003	-2.26782E-003	3.76089E-002	-2.47060E-003
	22	22	1.09994E+000	5.75441E-002	0.00000E+000	6.32949E-002	5.73374E-001	3.69167E-002	3.90336E+001	11	...........	6.16117E-002	-3.79931E-003	5.62838E-001	6.72298E-001	-3.05674E-002	-3.93581E-002	6.52908E-001	-4.29565E-002	3.54539E-003	-2.18628E-004	3.23880E-002	3.86868E-002	-1.75897E-003	-2.26482E-003	3.75710E-002	-2.47189E-003
	23	23	1.10005E+000	5.76743E-002	0.00000E+000	6.34444E-002	5.74667E-001	3.71325E-002	3.90961E+001	11	...........	6.19603E-002	-3.83444E-003	5.62834E-001	6.72298E-001	-3.06040E-002	-3.93431E-002	6.52923E-001	-4.27957E-002	3.57352E-003	-2.21149E-004	3.24610E-002	3.87743E-002	-1.76507E-003	-2.26908E-003	3.76569E-002	-2.46821E-003
	24	24	1.10010E+000	5.69420E-002	0.00000E+000	6.26421E-002	5.67382E-001	3.69079E-002	3.97718E+001	11	...........	6.15760E-002	-3.91611E-003	5.62841E-001	6.72318E-001	-3.06183E-002	-3.93439E-002	6.52890E-001	-4.27787E-002	3.50626E-003	-2.22991E-004	3.20493E-002	3.82831E-002	-1.74347E-003	-2.24032E-003	3.71769E-002	-2.43591E-003
	25	25	1.09993E+000	5.70272E-002	0.00000E+000	6.27261E-002	5.68233E-001	3.70498E-002	3.95745E+001	11	...........	6.18300E-002	-3.85542E-003	5.62923E-001	6.72349E-001	-3.06458E-002	-3.93517E-002	6.52847E-001	-4.28387E-002	3.52599E-003	-2.19864E-004	3.21019E-002	3.83422E-002	-1.74765E-003	-2.24412E-003	3.72300E-002	-2.44297E-003
	26	26	1.10004E+000	5.70648E-002	0.00000E+000	6.27736E-002	5.68605E-001	3.69072E-002	3.89054E+001	11	...........	6.16026E-002	-3.91597E-003	5.63029E-001	6.72473E-001	-3.06381E-002	-3.93749E-002	6.52859E-001	-4.28532E-002	3.51534E-003	-2.23464E-004	3.21291E-002	3.83745E-002	-1.74835E-003	-2.24692E-003	3.72553E-002	-2.44541E-003
	27	27	1.10011E+000	5.63512E-002	0.00000E+000	6.19923E-002	5.61511E-001	3.70077E-002	3.93091E+001	11	...........	6.17506E-002	-3.88097E-003	5.63058E-001	6.72421E-001	-3.06550E-002	-3.93767E-002	6.52831E-001	-4.28867E-002	3.47972E-003	-2.18697E-004	3.17290E-002	3.78917E-002	-1.72745E-003	-2.21892E-003	3.67878E-002	-2.41672E-003
	28	28	1.09994E+000	5.64213E-002	0.00000E+000	6.20601E-002	5.62207E-001	3.67221E-002	3.93709E+001	11	...........	6.12776E-002	-3.81736E-003	5.62840E-001	6.72398E-001	-3.06699E-002	-3.93858E-002	6.52778E-001	-4.29149E-002	3.45737E-003	-2.15381E-004	3.17562E-002	3.79376E-002	-1.73043E-003	-2.22220E-003	3.68306E-002	-2.42131E-003
	29	29	1.10004E+000	5.64138E-002	0.00000E+000	6.20572E-002	5.62135E-001	3.71173E-002	3.79089E+001	11	...........	6.19315E-002	-3.74556E-003	5.62616E-001	6.72452E-001	-3.06851E-002	-3.94049E-002	6.52844E-001	-4.27471E-002	3.49379E-003	-2.11301E-004	3.17393E-002	3.79356E-002	-1.73106E-003	-2.22298E-003	3.68294E-002	-2.41152E-003
	30	30	1.10011E+000	5.57039E-002	0.00000E+000	6.12804E-002	5.55070E-001	3.65182E-002	3.97047E+001	11	...........	6.09561E-002	-3.72361E-003	5.62491E-001	6.72553E-001	-3.06687E-002	-3.93876E-002	6.52591E-001	-4.27956E-002	3.39549E-003	-2.07420E-004	3.13330E-002	3.74638E-002	-1.70837E-003	-2.19404E-003	3.63519E-002	-2.38388E-003
	31	31	1.09993E+000	5.58444E-002	0.00000E+000	6.14251E-002	5.56469E-001	3.70306E-002	3.92897E+001	11	...........	6.18022E-002	-3.77222E-003	5.62555E-001	6.72592E-001	-3.06725E-002	-3.94178E-002	6.52640E-001	-4.28987E-002	3.45131E-003	-2.10657E-004	3.14155E-002	3.75605E-002	-1.71289E-003	-2.20126E-003	3.64463E-002	-2.39565E-003
	32	32	1.10003E+000	5.59199E-002	0.00000E+000	6.15137E-002	5.57218E-001	3.66124E-002	3.85389E+001	11	...........	6.10919E-002	-3.68194E-003	5.62355E-001	6.72533E-001	-3.06693E-002	-3.94394E-002	6.52721E-001	-4.28261E-002	3.41626E-003	-2.05894E-004	3.14468E-002	3.76080E-002	-1.71503E-003	-2.20545E-003	3.65001E-002	-2.39483E-003
	33	33	1.10012E+000	5.52545E-002	0.00000E+000	6.07864E-002	5.50605E-001	3.67567E-002	3.89605E+001	11	...........	6.13257E-002	-3.68889E-003	5.62300E-001	6.72456E-001	-3.06796E-002	-3.94374E-002	6.52813E-001	-4.29337E-002	3.38852E-003	-2.03828E-004	3.10696E-002	3.71563E-002	-1.69519E-003	-2.17909E-003	3.60709E-002	-2.37228E-003
	34	34	1.09993E+000	5.53052E-002	0.00000E+000	6.08319E-002	5.51105E-001	3.65741E-002	3.92093E+001	11	...........	6.10290E-002	-3.61694E-003	5.62286E-001	6.72470E-001	-3.07001E-002	-3.94587E-002	6.52908E-001	-4.28678E-002	3.37522E-003	-2.00036E-004	3.10973E-002	3.71911E-002	-1.69788E-003	-2.18227E-003	3.61092E-002	-2.37081E-003
	35	35	1.10003E+000	5.54945E-002	0.00000E+000	6.10457E-002	5.52990E-001	3.67964E-002	3.90660E+001	11	...........	6.14078E-002	-3.76319E-003	5.62431E-001	6.72354E-001	-3.07058E-002	-3.94343E-002	6.52819E-001	-4.29121E-002	3.40779E-003	-2.08836E-004	3.12118E-002	3.73119E-002	-1.70400E-003	-2.18839E-003	3.62279E-002	-2.38138E-003
	36	36	1.10012E+000	5.47408E-002	0.00000E+000	6.02214E-002	5.45494E-001	3.68682E-002	3.93500E+001	11	...........	6.15361E-002	-3.81042E-003	5.62372E-001	6.72319E-001	-3.06958E-002	-3.94371E-002	6.52735E-001	-4.28840E-002	3.36854E-003	-2.08585E-004	3.07847E-002	3.68033E-002	-1.68031E-003	-2.15882E-003	3.57312E-002	-2.34751E-003
	37	37	1.09993E+000	5.47990E-002	0.00000E+000	6.02751E-002	5.46072E-001	3.65906E-002	3.92423E+001	11	...........	6.10547E-002	-3.75736E-003	5.62304E-001	6.72394E-001	-3.07004E-002	-3.94242E-002	6.52706E-001	-4.28436E-002	3.34574E-003	-2.05900E-004	3.08137E-002	3.68465E-002	-1.68235E-003	-2.16041E-003	3.57676E-002	-2.34779E-003
	38	38	1.10003E+000	5.49539E-002	0.00000E+000	6.04507E-002	5.47614E-001	3.66243E-002	3.85103E+001	11	...........	6.11269E-002	-3.66931E-003	5.62317E-001	6.72403E-001	-3.06872E-002	-3.94244E-002	6.52763E-001	-4.29364E-002	3.35917E-003	-2.01643E-004	3.09015E-002	3.69512E-002	-1.68638E-003	-2.16653E-003	3.58719E-002	-2.35952E-003
	39	39	1.10013E+000	5.42723E-002	0.00000E+000	5.97065E-002	5.40835E-001	3.66570E-002	3.93910E+001	11	...........	6.11832E-002	-3.60347E-003	5.62453E-001	6.72510E-001	-3.06876E-002	-3.94250E-002	6.52776E-001	-4.30583E-002	3.32055E-003	-1.95569E-004	3.05256E-002	3.64986E-002	-1.66549E-003	-2.13968E-003	3.54277E-002	-2.33687E-003
	40	40	1.09993E+000	5.42941E-002	0.00000E+000	5.97197E-002	5.41051E-001	3.65252E-002	3.95439E+001	11	...........	6.09561E-002	-3.74306E-003	5.62553E-001	6.72614E-001	-3.06876E-002	-3.94268E-002	6.52905E-001	-4.29886E-002	3.30956E-003	-2.03226E-004	3.05433E-002	3.65190E-002	-1.66616E-003	-2.14064E-003	3.54489E-002	-2.33403E-003
	41	41	1.10002E+000	5.43803E-002	0.00000E+000	5.98195E-002	5.41911E-001	3.64037E-002	3.78544E+001	11	...........	6.07408E-002	-3.80389E-003	5.62515E-001	6.72479E-001	-3.06682E-002	-3.94274E-002	6.52939E-001	-4.29069E-002	3.30310E-003	-2.06856E-004	3.05897E-002	3.65696E-002	-1.66774E-003	-2.14407E-003	3.55070E-002	-2.33329E-003
	42	42	1.10013E+000	5.37708E-002	0.00000E+000	5.91549E-002	5.35854E-001	3.68208E-002	4.00377E+001	11	...........	6.14440E-002	-3.77250E-003	5.62533E-001	6.72392E-001	-3.06504E-002	-3.94271E-002	6.52991E-001	-4.28264E-002	3.30389E-003	-2.02850E-004	3.02479E-002	3.61551E-002	-1.64810E-003	-2.12003E-003	3.51119E-002	-2.30281E-003
	43	43	1.09993E+000	5.38028E-002	0.00000E+000	5.91791E-002	5.36169E-001	3.65915E-002	3.90083E+001	11	...........	6.10683E-002	-3.85597E-003	5.62527E-001	6.72371E-001	-3.06375E-002	-3.94243E-002	6.53040E-001	-4.28242E-002	3.28564E-003	-2.07462E-004	3.02655E-002	3.61754E-002	-1.64838E-003	-2.12114E-003	3.51354E-002	-2.30406E-003
	44	44	1.10002E+000	5.39043E-002	0.00000E+000	5.92959E-002	5.37175E-001	3.62980E-002	3.90532E+001	11	...........	6.05736E-002	-3.80000E-003	5.62296E-001	6.72407E-001	-3.06510E-002	-3.94114E-002	6.53136E-001	-4.29074E-002	3.26518E-003	-2.04836E-004	3.03102E-002	3.62456E-002	-1.65222E-003	-2.12444E-003	3.52068E-002	-2.31289E-003
	45	45	1.10013E+000	5.32619E-002	0.00000E+000	5.85952E-002	5.30790E-001	3.67127E-002	3.91512E+001	11	...........	6.12639E-002	-3.73403E-003	5.62304E-001	6.72448E-001	-3.06481E-002	-3.94219E-002	6.52944E-001	-4.29029E-002	3.26303E-003	-1.98882E-004	2.99494E-002	3.58159E-002	-1.63237E-003	-2.09969E-003	3.47771E-002	-2.28509E-003
	46	46	1.09993E+000	5.32346E-002	0.00000E+000	5.85543E-002	5.30517E-001	3.64356E-002	3.91253E+001	11	...........	6.08033E-002	-3.71931E-003	5.62121E-001	6.72321E-001	-3.06733E-002	-3.94190E-002	6.52888E-001	-4.29367E-002	3.23684E-003	-1.97996E-004	2.99243E-002	3.57908E-002	-1.63288E-003	-2.09846E-003	3.47563E-002	-2.28572E-003
	47	47	1.10001E+000	5.34399E-002	0.00000E+000	5.87846E-002	5.32557E-001	3.65318E-002	3.93320E+001	11	...........	6.09643E-002	-3.75528E-003	5.62233E-001	6.72361E-001	-3.06614E-002	-3.94271E-002	6.52984E-001	-4.28569E-002	3.25793E-003	-2.00682E-004	3.00457E-002	3.59309E-002	-1.63854E-003	-2.10698E-003	3.48954E-002	-2.29027E-003
	48	48	1.10014E+000	5.28349E-002	0.00000E+000	5.81256E-002	5.26541E-001	3.65872E-002	3.93208E+001	11	...........	6.10629E-002	-3.70875E-003	5.62226E-001	6.72298E-001	-3.06646E-002	-3.94014E-002	6.52917E-001	-4.27544E-002	3.22625E-003	-1.95951E-004	2.97052E-002	3.55208E-002	-1.62016E-003	-2.08177E-003	3.44968E-002	-2.25893E-003
	49	49	1.09993E+000	5.28275E-002	0.00000E+000	5.81066E-002	5.26465E-001	3.63972E-002	3.79144E+001	11	...........	6.07426E-002	-3.72931E-003	5.62201E-001	6.72462E-001	-3.06657E-002	-3.93608E-002	6.52910E-001	-4.28326E-002	3.20888E-003	-1.97010E-004	2.96997E-002	3.55245E-002	-1.61999E-003	-2.07934E-003	3.44916E-002	-2.26274E-003
	50	50	1.10002E+000	5.29329E-002	0.00000E+000	5.82270E-002	5.27513E-001	3.62917E-002	3.86997E+001	11	...........	6.05526E-002	-3.68569E-003	5.62136E-001	6.72412E-001	-3.06550E-002	-3.93610E-002	6.52870E-001	-4.29210E-002	3.20523E-003	-1.95094E-004	2.97555E-002	3.55927E-002	-1.62266E-003	-2.08349E-003	3.45583E-002	-2.27193E-003
	51	51	1.10013E+000	5.22944E-002	0.00000E+000	5.75308E-002	5.21163E-001	3.63420E-002	3.84785E+001	11	...........	6.06675E-002	-3.77611E-003	5.62147E-001	6.72336E-001	-3.06850E-002	-3.93547E-002	6.53085E-001	-4.28475E-002	3.17257E-003	-1.97469E-004	2.93972E-002	3.51594E-002	-1.60465E-003	-2.05803E-003	3.41527E-002	-2.24068E-003
	52	52	1.09993E+000	5.23145E-002	0.00000E+000	5.75425E-002	5.21365E-001	3.64615E-002	3.80729E+001	11	...........	6.08583E-002	-3.86333E-003	5.62278E-001	6.72371E-001	-3.07035E-002	-3.93493E-002	6.53025E-001	-4.27175E-002	3.18377E-003	-2.02108E-004	2.94153E-002	3.51748E-002	-1.60624E-003	-2.05854E-003	3.41627E-002	-2.23475E-003
	53	53	1.10001E+000	5.25645E-002	0.00000E+000	5.78214E-002	5.23851E-001	3.63551E-002	3.94415E+001	11	...........	6.06824E-002	-3.86069E-003	5.62199E-001	6.72352E-001	-3.06928E-002	-3.93364E-002	6.53070E-001	-4.28171E-002	3.18974E-003	-2.02935E-004	2.95517E-002	3.53419E-002	-1.61335E-003	-2.06770E-003	3.43283E-002	-2.25066E-003
	54	54	1.10014E+000	5.18774E-002	0.00000E+000	5.70724E-002	5.17019E-001	3.62609E-002	3.88836E+001	11	...........	6.05236E-002	-3.92472E-003	5.62374E-001	6.72241E-001	-3.06856E-002	-3.93554E-002	6.53016E-001	-4.27556E-002	3.13981E-003	-2.03604E-004	2.91745E-002	3.48741E-002	-1.59189E-003	-2.04166E-003	3.38767E-002	-2.21805E-003
	55	55	1.09993E+000	5.19243E-002	0.00000E+000	5.71133E-002	5.17480E-001	3.61481E-002	3.85961E+001	11	...........	6.03217E-002	-4.01625E-003	5.62260E-001	6.72160E-001	-3.06949E-002	-3.93915E-002	6.52979E-001	-4.27665E-002	3.13216E-003	-2.08541E-004	2.91950E-002	3.49015E-002	-1.59381E-003	-2.04538E-003	3.39055E-002	-2.22062E-003
	56	56	1.10001E+000	5.20459E-002	0.00000E+000	5.72507E-002	5.18688E-001	3.65015E-002	3.91837E+001	11	...........	6.09018E-002	-3.88236E-003	5.62552E-001	6.72184E-001	-3.07196E-002	-3.93782E-002	6.52987E-001	-4.28344E-002	3.16969E-003	-2.02061E-004	2.92785E-002	3.49844E-002	-1.59883E-003	-2.04947E-003	3.39852E-002	-2.22936E-003
	57	57	1.10014E+000	5.15039E-002	0.00000E+000	5.66614E-002	5.13301E-001	3.61672E-002	3.98498E+001	11	...........	6.06969E-002	-3.82528E-003	5.62656E-001	6.72079E-001	-3.06883E-002	-3.93726E-002	6.52999E-001	-4.27993E-002	3.12613E-003	-1.97017E-004	2.89790E-002	3.46147E-002	-1.58057E-003	-2.02784E-003	3.36320E-002	-2.20433E-003
	58	58	1.09993E+000	5.13717E-002	0.00000E+000	5.65054E-002	5.11986E-001	3.59756E-002	3.83112E+001	11	...........	6.00354E-002	-3.74375E-003	5.62569E-001	6.72066E-001	-3.06957E-002	-3.93467E-002	6.53071E-001	-4.27568E-002	3.08412E-003	-1.92323E-004	2.89001E-002	3.45252E-002	-1.57689E-003	-2.02131E-003	3.35494E-002	-2.19649E-003
	59	59	1.10001E+000	5.15892E-002	0.00000E+000	5.67486E-002	5.14149E-001	3.62865E-002	3.89849E+001	11	...........	6.05547E-002	-3.70903E-003	5.62666E-001	6.71962E-001	-3.06951E-002	-3.93254E-002	6.53173E-001	-4.28186E-002	3.12397E-003	-1.91346E-004	2.90275E-002	3.46660E-002	-1.58354E-003	-2.02877E-003	3.36967E-002	-2.20898E-003
	60	60	1.10014E+000	5.10225E-002	0.00000E+000	5.61319E-002	5.08515E-001	3.63131E-002	3.89592E+001	11	...........	6.06171E-002	-3.74931E-003	5.62583E-001	6.71956E-001	-3.06906E-002	-3.93219E-002	6.53039E-001	-4.28753E-002	3.09283E-003	-1.91299E-004	2.87044E-002	3.42849E-002	-1.56591E-003	-2.00630E-003	3.33196E-002	-2.18760E-003
	61	61	1.09994E+000	5.09566E-002	0.00000E+000	5.60491E-002	5.07858E-001	3.62642E-002	3.85540E+001	11	...........	6.05125E-002	-3.84375E-003	5.62513E-001	6.71890E-001	-3.06801E-002	-3.93069E-002	6.52901E-001	-4.29297E-002	3.08351E-003	-1.95864E-004	2.86637E-002	3.42373E-002	-1.56336E-003	-2.00295E-003	3.32696E-002	-2.18755E-003
	62	62	1.10000E+000	5.11076E-002	0.00000E+000	5.62183E-002	5.09359E-001	3.61466E-002	3.91684E+001	11	...........	6.02982E-002	-3.89042E-003	5.62559E-001	6.71879E-001	-3.06840E-002	-3.93404E-002	6.52835E-001	-4.28442E-002	3.08170E-003	-1.98830E-004	2.87510E-002	3.43381E-002	-1.56819E-003	-2.01059E-003	3.33648E-002	-2.18966E-003
	63	63	1.10015E+000	5.06371E-002	0.00000E+000	5.57083E-002	5.04681E-001	3.61795E-002	3.87159E+001	11	...........	6.03657E-002	-3.78847E-003	5.62666E-001	6.71918E-001	-3.07054E-002	-3.93089E-002	6.52901E-001	-4.27710E-002	3.05674E-003	-1.91837E-004	2.84918E-002	3.40240E-002	-1.55483E-003	-1.99049E-003	3.30610E-002	-2.16580E-003
	64	64	1.09993E+000	5.04255E-002	0.00000E+000	5.54647E-002	5.02575E-001	3.62107E-002	3.89406E+001	11	...........	6.04351E-002	-3.82069E-003	5.62743E-001	6.72140E-001	-3.06811E-002	-3.93357E-002	6.52962E-001	-4.27890E-002	3.04747E-003	-1.92660E-004	2.83766E-002	3.38930E-002	-1.54711E-003	-1.98352E-003	3.29259E-002	-2.15766E-003
	65	65	1.10000E+000	5.06245E-002	0.00000E+000	5.56870E-002	5.04552E-001	3.60382E-002	3.88887E+001	11	...........	6.01210E-002	-3.83306E-003	5.62810E-001	6.72184E-001	-3.06583E-002	-3.93450E-002	6.52934E-001	-4.26078E-002	3.04360E-003	-1.94047E-004	2.84920E-002	3.40290E-002	-1.55206E-003	-1.99182E-003	3.30544E-002	-2.15700E-003
	66	66	1.10014E+000	5.01289E-002	0.00000E+000	5.51490E-002	4.99623E-001	3.59282E-002	3.69087E+001	11	...........	5.99457E-002	-3.91167E-003	5.62893E-001	6.72134E-001	-3.06732E-002	-3.93451E-002	6.52810E-001	-4.28007E-002	3.00501E-003	-1.96088E-004	2.82172E-002	3.36934E-002	-1.53761E-003	-1.97233E-003	3.27247E-002	-2.14555E-003
	67	67	1.09994E+000	5.00024E-002	0.00000E+000	5.49994E-002	4.98364E-001	3.62287E-002	3.90804E+001	11	...........	6.04501E-002	-3.93597E-003	5.62954E-001	6.72140E-001	-3.06706E-002	-3.93715E-002	6.52863E-001	-4.27890E-002	3.02265E-003	-1.96808E-004	2.81490E-002	3.36086E-002	-1.53360E-003	-1.96867E-003	3.26447E-002	-2.13955E-003
	68	68	1.10000E+000	5.02662E-002	0.00000E+000	5.52927E-002	5.00989E-001	3.61172E-002	4.00646E+001	11	...........	6.02829E-002	-3.91375E-003	5.63031E-001	6.72167E-001	-3.06529E-002	-3.93726E-002	6.52871E-001	-4.27136E-002	3.03019E-003	-1.96729E-004	2.83014E-002	3.37873E-002	-1.54081E-003	-1.97911E-003	3.28173E-002	-2.14705E-003
	69	69	1.10014E+000	4.96532E-002	0.00000E+000	5.46256E-002	4.94897E-001	3.57936E-002	3.68369E+001	11	...........	5.97378E-002	-3.91153E-003	5.62940E-001	6.72038E-001	-3.06712E-002	-3.94043E-002	6.52914E-001	-4.26407E-002	2.96617E-003	-1.94220E-004	2.79517E-002	3.33688E-002	-1.52293E-003	-1.95655E-003	3.24193E-002	-2.11725E-003
	70	70	1.09994E+000	4.95848E-002	0.00000E+000	5.45403E-002	4.94217E-001	3.59758E-002	3.91402E+001	11	...........	6.00468E-002	-3.78917E-003	5.62974E-001	6.71886E-001	-3.06687E-002	-3.94115E-002	6.52845E-001	-4.27236E-002	2.97741E-003	-1.87885E-004	2.79150E-002	3.33153E-002	-1.52070E-003	-1.95421E-003	3.23712E-002	-2.11844E-003
	71	71	1.10000E+000	4.97888E-002	0.00000E+000	5.47677E-002	4.96243E-001	3.62066E-002	4.00470E+001	11	...........	6.04165E-002	-3.86972E-003	5.63092E-001	6.71841E-001	-3.06646E-002	-3.94411E-002	6.52916E-001	-4.28090E-002	3.00807E-003	-1.92669E-004	2.80357E-002	3.34502E-002	-1.52675E-003	-1.96373E-003	3.25079E-002	-2.13141E-003
	72	72	1.10014E+000	4.93266E-002	0.00000E+000	5.42662E-002	4.91646E-001	3.60212E-002	3.89769E+001	11	...........	6.00933E-002	-3.90347E-003	5.63057E-001	6.72104E-001	-3.06665E-002	-3.94685E-002	6.52928E-001	-4.28206E-002	2.96420E-003	-1.92545E-004	2.77737E-002	3.31526E-002	-1.51267E-003	-1.94684E-003	3.22067E-002	-2.11219E-003
	73	73	1.09994E+000	4.91110E-002	0.00000E+000	5.40193E-002	4.89507E-001	3.60648E-002	3.80846E+001	11	...........	6.01842E-002	-3.78722E-003	5.63031E-001	6.72194E-001	-3.06496E-002	-3.94735E-002	6.52786E-001	-4.28167E-002	2.95571E-003	-1.85994E-004	2.76510E-002	3.30121E-002	-1.50523E-003	-1.93858E-003	3.20590E-002	-2.10277E-003
	74	74	1.09999E+000	4.92868E-002	0.00000E+000	5.42152E-002	4.91253E-001	3.58782E-002	3.94252E+001	11	...........	5.98678E-002	-3.71958E-003	5.63175E-001	6.72274E-001	-3.06421E-002	-3.94810E-002	6.52815E-001	-4.27981E-002	2.95069E-003	-1.83326E-004	2.77571E-002	3.31343E-002	-1.51025E-003	-1.94589E-003	3.21752E-002	-2.10938E-003
	75	75	1.10014E+000	4.89575E-002	0.00000E+000	5.38602E-002	4.87982E-001	3.59993E-002	3.94428E+001	11	...........	6.00671E-002	-3.99694E-003	5.63313E-001	6.72339E-001	-3.06461E-002	-3.94803E-002	6.52695E-001	-4.28242E-002	2.94073E-003	-1.95680E-004	2.75784E-002	3.29161E-002	-1.50036E-003	-1.93286E-003	3.19543E-002	-2.09656E-003
	76	76	1.09995E+000	4.85964E-002	0.00000E+000	5.34537E-002	4.84391E-001	3.58996E-002	3.87335E+001	11	...........	5.99042E-002	-4.05125E-003	5.63180E-001	6.72331E-001	-3.06424E-002	-3.94731E-002	6.52594E-001	-4.28612E-002	2.91113E-003	-1.96876E-004	2.73685E-002	3.26729E-002	-1.48911E-003	-1.91825E-003	3.17137E-002	-2.08290E-003
	77	77	1.09999E+000	4.89532E-002	0.00000E+000	5.38481E-002	4.87938E-001	3.59123E-002	3.82076E+001	11	...........	5.99342E-002	-3.87444E-003	5.63178E-001	6.72301E-001	-3.06304E-002	-3.94643E-002	6.52595E-001	-4.28897E-002	2.93397E-003	-1.89667E-004	2.75694E-002	3.29113E-002	-1.49946E-003	-1.93191E-003	3.19467E-002	-2.09959E-003
	78	78	1.10014E+000	4.84645E-002	0.00000E+000	5.33178E-002	4.83077E-001	3.59953E-002	3.95968E+001	11	...........	6.00782E-002	-3.80458E-003	5.63095E-001	6.72153E-001	-3.06364E-002	-3.94537E-002	6.52575E-001	-4.28872E-002	2.91166E-003	-1.84387E-004	2.72901E-002	3.25756E-002	-1.48478E-003	-1.91211E-003	3.16267E-002	-2.07851E-003
	79	79	1.09994E+000	4.82440E-002	0.00000E+000	5.30657E-002	4.80883E-001	3.57577E-002	3.87640E+001	11	...........	5.96531E-002	-3.85806E-003	5.62937E-001	6.72208E-001	-3.06462E-002	-3.94461E-002	6.52691E-001	-4.29640E-002	2.87790E-003	-1.86128E-004	2.71583E-002	3.24300E-002	-1.47850E-003	-1.90304E-003	3.14884E-002	-2.07276E-003
	80	80	1.09999E+000	4.84972E-002	0.00000E+000	5.33466E-002	4.83404E-001	3.57901E-002	3.88155E+001	11	...........	5.97379E-002	-3.86236E-003	5.63009E-001	6.72085E-001	-3.06571E-002	-3.94514E-002	6.52734E-001	-4.29367E-002	2.89712E-003	-1.87314E-004	2.73044E-002	3.25943E-002	-1.48678E-003	-1.91328E-003	3.16558E-002	-2.08231E-003
	81	81	1.10014E+000	4.79330E-002	0.00000E+000	5.27331E-002	4.77795E-001	3.58292E-002	3.86113E+001	11	...........	5.97943E-002	-3.72167E-003	5.63013E-001	6.71867E-001	-3.06187E-002	-3.94675E-002	6.52696E-001	-4.28510E-002	2.86612E-003	-1.78391E-004	2.69869E-002	3.22046E-002	-1.46765E-003	-1.89180E-003	3.12857E-002	-2.05398E-003
	82	82	1.09995E+000	4.77656E-002	0.00000E+000	5.25397E-002	4.76128E-001	3.57180E-002	3.84018E+001	11	...........	5.96099E-002	-3.67500E-003	5.62988E-001	6.71769E-001	-3.06351E-002	-3.94682E-002	6.52702E-001	-4.28344E-002	2.84730E-003	-1.75539E-004	2.68914E-002	3.20875E-002	-1.46331E-003	-1.88522E-003	3.11767E-002	-2.04601E-003
	83	83	1.09999E+000	4.81052E-002	0.00000E+000	5.29153E-002	4.79504E-001	3.60448E-002	4.00044E+001	11	...........	6.01471E-002	-3.69403E-003	5.63171E-001	6.71827E-001	-3.06157E-002	-3.94540E-002	6.52556E-001	-4.26337E-002	2.89339E-003	-1.77702E-004	2.70914E-002	3.23184E-002	-1.47277E-003	-1.89794E-003	3.13913E-002	-2.05090E-003
	84	84	1.10014E+000	4.76244E-002	0.00000E+000	5.23933E-002	4.74724E-001	3.57983E-002	3.75025E+001	11	...........	5.97211E-002	-3.70153E-003	5.63186E-001	6.71736E-001	-3.05900E-002	-3.94390E-002	6.52509E-001	-4.26503E-002	2.84418E-003	-1.76283E-004	2.68214E-002	3.19910E-002	-1.45683E-003	-1.87826E-003	3.10754E-002	-2.03119E-003
	85	85	1.09996E+000	4.73375E-002	0.00000E+000	5.20692E-002	4.71873E-001	3.56861E-002	3.89740E+001	11	...........	5.95307E-002	-3.71542E-003	5.63167E-001	6.71604E-001	-3.05644E-002	-3.94382E-002	6.52493E-001	-4.28179E-002	2.81803E-003	-1.75879E-004	2.66589E-002	3.17920E-002	-1.44684E-003	-1.86691E-003	3.08874E-002	-2.02689E-003
	86	86	1.09999E+000	4.76567E-002	0.00000E+000	5.24219E-002	4.75047E-001	3.58212E-002	3.91656E+001	11	...........	5.97603E-002	-3.81611E-003	5.63116E-001	6.71501E-001	-3.05417E-002	-3.94261E-002	6.52657E-001	-4.28382E-002	2.84798E-003	-1.81863E-004	2.68363E-002	3.20015E-002	-1.45552E-003	-1.87892E-003	3.11035E-002	-2.04153E-003
	87	87	1.10013E+000	4.71940E-002	0.00000E+000	5.19197E-002	4.70449E-001	3.55488E-002	3.85494E+001	11	...........	5.93269E-002	-3.75153E-003	5.63049E-001	6.71662E-001	-3.05447E-002	-3.94075E-002	6.52784E-001	-4.27092E-002	2.79988E-003	-1.77050E-004	2.65725E-002	3.16984E-002	-1.44153E-003	-1.85980E-003	3.08075E-002	-2.01562E-003
	88	88	1.09996E+000	4.69360E-002	0.00000E+000	5.16277E-002	4.67881E-001	3.59882E-002	3.75942E+001	11	...........	6.00544E-002	-3.80361E-003	5.63113E-001	6.71702E-001	-3.05535E-002	-3.93979E-002	6.52735E-001	-4.26410E-002	2.81871E-003	-1.78526E-004	2.64302E-002	3.15270E-002	-1.43406E-003	-1.84918E-003	3.06368E-002	-2.00139E-003
	89	89	1.09999E+000	4.71333E-002	0.00000E+000	5.18460E-002	4.69845E-001	3.55341E-002	3.82715E+001	11	...........	5.92986E-002	-3.72667E-003	5.63169E-001	6.71780E-001	-3.05454E-002	-3.93932E-002	6.52786E-001	-4.27821E-002	2.79494E-003	-1.75650E-004	2.65440E-002	3.16632E-002	-1.43971E-003	-1.85673E-003	3.07680E-002	-2.01646E-003
	90	90	1.10013E+000	4.68656E-002	0.00000E+000	5.15581E-002	4.67184E-001	3.58354E-002	3.82315E+001	11	...........	5.97929E-002	-3.73556E-003	5.63276E-001	6.71950E-001	-3.05556E-002	-3.93697E-002	6.52684E-001	-4.28112E-002	2.80223E-003	-1.75069E-004	2.63983E-002	3.14914E-002	-1.43201E-003	-1.84509E-003	3.05884E-002	-2.00638E-003
	91	91	1.09996E+000	4.65170E-002	0.00000E+000	5.11670E-002	4.63715E-001	3.54994E-002	3.80291E+001	11	...........	5.92337E-002	-3.83708E-003	5.63443E-001	6.71910E-001	-3.05482E-002	-3.93915E-002	6.52753E-001	-4.28240E-002	2.75538E-003	-1.78490E-004	2.62097E-002	3.12552E-002	-1.42101E-003	-1.83238E-003	3.03641E-002	-1.99205E-003
	92	92	1.09999E+000	4.67432E-002	0.00000E+000	5.14169E-002	4.65968E-001	3.54033E-002	3.86088E+001	11	...........	5.90954E-002	-3.93736E-003	5.63240E-001	6.71972E-001	-3.05640E-002	-3.93994E-002	6.52778E-001	-4.29754E-002	2.76231E-003	-1.84045E-004	2.63277E-002	3.14101E-002	-1.42866E-003	-1.84166E-003	3.05130E-002	-2.00881E-003
	93	93	1.10013E+000	4.64644E-002	0.00000E+000	5.11169E-002	4.63195E-001	3.60603E-002	3.90991E+001	11	...........	6.01686E-002	-3.88875E-003	5.63270E-001	6.71951E-001	-3.05800E-002	-3.94229E-002	6.52810E-001	-4.28889E-002	2.79570E-003	-1.80688E-004	2.61720E-002	3.12218E-002	-1.42088E-003	-1.83176E-003	3.03324E-002	-1.99281E-003
	94	94	1.09997E+000	4.61016E-002	0.00000E+000	5.07103E-002	4.59587E-001	3.56013E-002	3.93285E+001	11	...........	5.94140E-002	-3.86431E-003	5.63235E-001	6.72067E-001	-3.05764E-002	-3.94383E-002	6.52710E-001	-4.28193E-002	2.73908E-003	-1.78151E-004	2.59661E-002	3.09834E-002	-1.40962E-003	-1.81817E-003	3.00910E-002	-1.97404E-003
	95	95	1.09999E+000	4.63709E-002	0.00000E+000	5.10073E-002	4.62265E-001	3.56638E-002	3.85239E+001	11	...........	5.95328E-002	-3.89597E-003	5.63344E-001	6.72252E-001	-3.05828E-002	-3.94211E-002	6.52656E-001	-4.28421E-002	2.76059E-003	-1.80660E-004	2.61228E-002	3.11729E-002	-1.41815E-003	-1.82799E-003	3.02642E-002	-1.98663E-003
	96	96	1.10012E+000	4.60900E-002	0.00000E+000	5.07045E-002	4.59471E-001	3.54557E-002	3.83220E+001	11	...........	5.91846E-002	-3.84333E-003	5.63394E-001	6.72294E-001	-3.05926E-002	-3.94157E-002	6.52508E-001	-4.28486E-002	2.72782E-003	-1.77139E-004	2.59668E-002	3.09860E-002	-1.41001E-003	-1.81667E-003	3.00741E-002	-1.97489E-003
	97	97	1.09997E+000	4.57162E-002	0.00000E+000	5.02866E-002	4.55757E-001	3.56212E-002	3.91493E+001	11	...........	5.94424E-002	-3.75944E-003	5.63511E-001	6.72383E-001	-3.05810E-002	-3.94258E-002	6.52588E-001	-4.28650E-002	2.71748E-003	-1.71868E-004	2.57616E-002	3.07388E-002	-1.39805E-003	-1.80240E-003	2.98339E-002	-1.95963E-003
	98	98	1.09999E+000	4.59705E-002	0.00000E+000	5.05670E-002	4.58282E-001	3.57768E-002	3.90560E+001	11	...........	5.96926E-002	-3.75000E-003	5.63376E-001	6.72425E-001	-3.05724E-002	-3.94218E-002	6.52613E-001	-4.28761E-002	2.74410E-003	-1.72389E-004	2.58987E-002	3.09117E-002	-1.40543E-003	-1.81224E-003	3.00009E-002	-1.97104E-003
	99	99	1.10012E+000	4.56922E-002	0.00000E+000	5.02670E-002	4.55514E-001	3.53122E-002	3.87276E+001	11	...........	5.89483E-002	-3.75167E-003	5.63279E-001	6.72454E-001	-3.05317E-002	-3.94087E-002	6.52753E-001	-4.29397E-002	2.69348E-003	-1.71422E-004	2.57375E-002	3.07259E-002	-1.39506E-003	-1.80067E-003	2.98258E-002	-1.96201E-003
	100	100	1.09998E+000	4.52560E-002	0.00000E+000	4.97805E-002	4.51179E-001	3.56072E-002	3.87081E+001	11	...........	5.94289E-002	-3.77972E-003	5.63414E-001	6.72422E-001	-3.05289E-002	-3.94143E-002	6.52695E-001	-4.29515E-002	2.68951E-003	-1.71055E-004	2.54978E-002	3.04311E-002	-1.38161E-003	-1.78373E-003	2.95384E-002	-1.94381E-003
	101	101	1.09998E+000	4.55074E-002	0.00000E+000	5.00573E-002	4.53673E-001	3.54782E-002	3.91878E+001	11	...........	5.92121E-002	-3.72389E-003	5.63335E-001	6.72352E-001	-3.05100E-002	-3.94068E-002	6.52607E-001	-4.29215E-002	2.69459E-003	-1.69464E-004	2.56359E-002	3.05970E-002	-1.38843E-003	-1.79330E-003	2.96984E-002	-1.95325E-003
	102	102	1.10012E+000	4.52663E-002	0.00000E+000	4.97982E-002	4.51279E-001	3.55244E-002	3.83267E+001	11	...........	5.92779E-002	-3.72319E-003	5.63135E-001	6.72449E-001	-3.05378E-002	-3.93790E-002	6.52635E-001	-4.27583E-002	2.68329E-003	-1.68535E-004	2.54910E-002	3.04393E-002	-1.38233E-003	-1.78254E-003	2.95424E-002	-1.93551E-003
	103	103	1.09998E+000	4.48545E-002	0.00000E+000	4.93392E-002	4.47181E-001	3.53647E-002	3.88877E+001	11	...........	5.90168E-002	-3.67944E-003	5.63243E-001	6.72406E-001	-3.05392E-002	-3.93629E-002	6.52630E-001	-4.27356E-002	2.64717E-003	-1.65040E-004	2.52640E-002	3.01604E-002	-1.36982E-003	-1.76560E-003	2.92734E-002	-1.91688E-003
	104	104	1.09998E+000	4.51243E-002	0.00000E+000	4.96360E-002	4.49864E-001	3.56840E-002	3.96327E+001	11	...........	5.95417E-002	-3.63333E-003	5.63335E-001	6.72192E-001	-3.05271E-002	-3.93732E-002	6.52581E-001	-4.28558E-002	2.68678E-003	-1.63952E-004	2.54201E-002	3.03322E-002	-1.37751E-003	-1.77669E-003	2.94473E-002	-1.93384E-003
	105	105	1.10011E+000	4.48667E-002	0.00000E+000	4.93583E-002	4.47305E-001	3.53328E-002	3.92891E+001	11	...........	5.89625E-002	-3.63472E-003	5.63376E-001	6.72107E-001	-3.05531E-002	-3.93728E-002	6.52604E-001	-4.29104E-002	2.64545E-003	-1.63078E-004	2.52768E-002	3.01552E-002	-1.37081E-003	-1.76653E-003	2.92802E-002	-1.92525E-003
	106	106	1.09998E+000	4.44583E-002	0.00000E+000	4.89034E-002	4.43247E-001	3.52912E-002	3.85282E+001	11	...........	5.88911E-002	-3.73819E-003	5.63468E-001	6.72087E-001	-3.05837E-002	-3.93681E-002	6.52579E-001	-4.30075E-002	2.61820E-003	-1.66194E-004	2.50509E-002	2.98799E-002	-1.35970E-003	-1.75024E-003	2.90126E-002	-1.91204E-003
	107	107	1.09998E+000	4.47916E-002	0.00000E+000	4.92699E-002	4.46553E-001	3.56169E-002	4.07516E+001	11	...........	5.94382E-002	-3.70042E-003	5.63455E-001	6.71889E-001	-3.05808E-002	-3.93544E-002	6.52618E-001	-4.29599E-002	2.66233E-003	-1.65748E-004	2.52381E-002	3.00950E-002	-1.36976E-003	-1.76275E-003	2.92318E-002	-1.92424E-003
	108	108	1.10011E+000	4.44553E-002	0.00000E+000	4.89058E-002	4.43213E-001	3.52256E-002	3.83919E+001	11	...........	5.87971E-002	-3.66944E-003	5.63481E-001	6.71812E-001	-3.05617E-002	-3.93664E-002	6.52728E-001	-4.29910E-002	2.61384E-003	-1.63126E-004	2.50497E-002	2.98656E-002	-1.35863E-003	-1.75004E-003	2.90172E-002	-1.91118E-003
	109	109	1.09999E+000	4.40796E-002	0.00000E+000	4.84871E-002	4.39479E-001	3.54297E-002	3.91692E+001	11	...........	5.91407E-002	-3.66250E-003	5.63389E-001	6.71851E-001	-3.05693E-002	-3.93718E-002	6.52683E-001	-4.29749E-002	2.60690E-003	-1.61442E-004	2.48340E-002	2.96149E-002	-1.34748E-003	-1.73549E-003	2.87700E-002	-1.89431E-003
	110	110	1.09998E+000	4.43580E-002	0.00000E+000	4.87930E-002	4.42246E-001	3.53621E-002	3.96051E+001	11	...........	5.90142E-002	-3.76194E-003	5.63465E-001	6.71890E-001	-3.05683E-002	-3.94015E-002	6.52689E-001	-4.29256E-002	2.61775E-003	-1.66872E-004	2.49942E-002	2.98037E-002	-1.35595E-003	-1.74777E-003	2.89520E-002	-1.90409E-003
	111	111	1.10011E+000	4.40995E-002	0.00000E+000	4.85141E-002	4.39673E-001	3.53778E-002	3.89670E+001	11	...........	5.90251E-002	-3.85042E-003	5.63348E-001	6.71865E-001	-3.06008E-002	-3.93847E-002	6.52675E-001	-4.29458E-002	2.60298E-003	-1.69801E-004	2.48433E-002	2.96289E-002	-1.34948E-003	-1.73685E-003	2.87826E-002	-1.89389E-003
	112	112	1.09999E+000	4.37324E-002	0.00000E+000	4.81053E-002	4.36023E-001	3.52709E-002	3.81582E+001	11	...........	5.88546E-002	-3.76917E-003	5.63168E-001	6.71934E-001	-3.06156E-002	-3.94007E-002	6.52682E-001	-4.29550E-002	2.57385E-003	-1.64835E-004	2.46287E-002	2.93853E-002	-1.33889E-003	-1.72309E-003	2.85434E-002	-1.87853E-003
	113	113	1.09998E+000	4.39056E-002	0.00000E+000	4.82955E-002	4.37749E-001	3.51604E-002	3.76761E+001	11	...........	5.86799E-002	-3.66542E-003	5.63038E-001	6.71753E-001	-3.06372E-002	-3.94012E-002	6.52540E-001	-4.29461E-002	2.57637E-003	-1.60932E-004	2.47205E-002	2.94937E-002	-1.34515E-003	-1.72994E-003	2.86502E-002	-1.88557E-003
	114	114	1.10010E+000	4.37268E-002	0.00000E+000	4.81037E-002	4.35967E-001	3.50056E-002	3.95965E+001	11	...........	5.84281E-002	-3.68250E-003	5.62994E-001	6.71676E-001	-3.06222E-002	-3.93704E-002	6.52448E-001	-4.29253E-002	2.55487E-003	-1.61024E-004	2.46179E-002	2.93702E-002	-1.33901E-003	-1.72154E-003	2.85295E-002	-1.87698E-003
	115	115	1.10000E+000	4.33365E-002	0.00000E+000	4.76701E-002	4.32088E-001	3.55842E-002	3.88388E+001	11	...........	5.93796E-002	-3.71569E-003	5.62939E-001	6.71594E-001	-3.06181E-002	-3.93603E-002	6.52440E-001	-4.29114E-002	2.57330E-003	-1.61025E-004	2.43958E-002	2.91045E-002	-1.32688E-003	-1.70574E-003	2.82745E-002	-1.85963E-003
	116	116	1.09998E+000	4.34544E-002	0.00000E+000	4.77989E-002	4.33263E-001	3.50627E-002	3.78862E+001	11	...........	5.85107E-002	-3.70125E-003	5.62691E-001	6.71493E-001	-3.06449E-002	-3.93633E-002	6.52437E-001	-4.28214E-002	2.54255E-003	-1.60836E-004	2.44514E-002	2.91793E-002	-1.33165E-003	-1.71051E-003	2.83513E-002	-1.86078E-003
	117	117	1.10010E+000	4.34175E-002	0.00000E+000	4.77635E-002	4.32895E-001	3.52449E-002	3.93206E+001	11	...........	5.88187E-002	-3.71597E-003	5.62844E-001	6.71423E-001	-3.06578E-002	-3.93551E-002	6.52662E-001	-4.27571E-002	2.55376E-003	-1.61338E-004	2.44373E-002	2.91515E-002	-1.33108E-003	-1.70870E-003	2.83369E-002	-1.85640E-003
	118	118	1.10001E+000	4.30044E-002	0.00000E+000	4.73052E-002	4.28788E-001	3.53632E-002	3.72616E+001	11	...........	5.90137E-002	-3.77264E-003	5.62752E-001	6.71534E-001	-3.06429E-002	-3.93371E-002	6.52830E-001	-4.27436E-002	2.53785E-003	-1.62240E-004	2.42008E-002	2.88789E-002	-1.31778E-003	-1.69167E-003	2.80746E-002	-1.83816E-003
	119	119	1.09997E+000	4.32301E-002	0.00000E+000	4.75520E-002	4.31032E-001	3.50309E-002	3.87512E+001	11	...........	5.84550E-002	-3.72889E-003	5.62695E-001	6.71668E-001	-3.06419E-002	-3.93444E-002	6.52861E-001	-4.28225E-002	2.52702E-003	-1.61200E-004	2.43254E-002	2.90363E-002	-1.32465E-003	-1.70086E-003	2.82233E-002	-1.85122E-003
	120	120	1.10010E+000	4.30638E-002	0.00000E+000	4.73744E-002	4.29378E-001	3.53640E-002	3.92438E+001	11	...........	5.90162E-002	-3.67917E-003	5.62858E-001	6.71803E-001	-3.06460E-002	-3.93726E-002	6.52825E-001	-4.27401E-002	2.54146E-003	-1.58439E-004	2.42388E-002	2.89304E-002	-1.31973E-003	-1.69554E-003	2.81131E-002	-1.84055E-003
	121	121	1.10001E+000	4.25520E-002	0.00000E+000	4.68075E-002	4.24287E-001	3.49713E-002	3.81881E+001	11	...........	5.83393E-002	-3.65417E-003	5.62880E-001	6.71823E-001	-3.06365E-002	-3.93737E-002	6.52735E-001	-4.28106E-002	2.48246E-003	-1.55492E-004	2.39517E-002	2.85874E-002	-1.30365E-003	-1.67543E-003	2.77752E-002	-1.82168E-003
	122	122	1.09998E+000	4.28566E-002	0.00000E+000	4.71412E-002	4.27315E-001	3.52574E-002	3.87829E+001	11	...........	5.88279E-002	-3.69111E-003	5.62987E-001	6.71914E-001	-3.06276E-002	-3.93481E-002	6.52786E-001	-4.28778E-002	2.52117E-003	-1.58189E-004	2.41277E-002	2.87960E-002	-1.31260E-003	-1.68633E-003	2.79762E-002	-1.83760E-003
	123	123	1.10009E+000	4.26706E-002	0.00000E+000	4.69417E-002	4.25467E-001	3.47453E-002	3.89608E+001	11	...........	5.79953E-002	-3.76681E-003	5.62942E-001	6.72029E-001	-3.06292E-002	-3.93387E-002	6.52813E-001	-4.28861E-002	2.47470E-003	-1.60732E-004	2.40211E-002	2.86759E-002	-1.30697E-003	-1.67861E-003	2.78560E-002	-1.82998E-003
	124	124	1.10001E+000	4.22051E-002	0.00000E+000	4.64261E-002	4.20835E-001	3.54053E-002	3.79533E+001	11	...........	5.90792E-002	-3.78153E-003	5.63169E-001	6.71961E-001	-3.06110E-002	-3.93324E-002	6.52844E-001	-4.29042E-002	2.49344E-003	-1.59600E-004	2.37686E-002	2.83602E-002	-1.29194E-003	-1.66002E-003	2.75533E-002	-1.81077E-003
	125	125	1.09998E+000	4.25443E-002	0.00000E+000	4.67978E-002	4.24205E-001	3.49713E-002	3.81833E+001	11	...........	5.83731E-002	-3.67681E-003	5.63064E-001	6.72144E-001	-3.06117E-002	-3.93250E-002	6.52867E-001	-4.27686E-002	2.48344E-003	-1.56427E-004	2.39552E-002	2.85959E-002	-1.30235E-003	-1.67305E-003	2.77758E-002	-1.81956E-003
	126	126	1.10009E+000	4.23540E-002	0.00000E+000	4.65930E-002	4.22315E-001	3.52145E-002	3.86378E+001	11	...........	5.87664E-002	-3.68250E-003	5.63086E-001	6.72081E-001	-3.06097E-002	-3.93351E-002	6.52848E-001	-4.27593E-002	2.48899E-003	-1.55969E-004	2.38489E-002	2.84653E-002	-1.29644E-003	-1.66600E-003	2.76507E-002	-1.81103E-003
	127	127	1.10002E+000	4.18431E-002	0.00000E+000	4.60283E-002	4.17235E-001	3.50027E-002	3.83391E+001	11	...........	5.83933E-002	-3.72611E-003	5.63066E-001	6.72163E-001	-3.06099E-002	-3.93286E-002	6.52893E-001	-4.27800E-002	2.44336E-003	-1.55912E-004	2.35604E-002	2.81254E-002	-1.28081E-003	-1.64563E-003	2.73190E-002	-1.79005E-003
	128	128	1.09997E+000	4.20899E-002	0.00000E+000	4.62977E-002	4.19685E-001	3.50537E-002	3.80506E+001	11	...........	5.84924E-002	-3.75389E-003	5.63016E-001	6.72169E-001	-3.06217E-002	-3.93250E-002	6.52877E-001	-4.28443E-002	2.46194E-003	-1.58001E-004	2.36973E-002	2.82915E-002	-1.28886E-003	-1.65519E-003	2.74796E-002	-1.80331E-003
	129	129	1.10008E+000	4.20104E-002	0.00000E+000	4.62150E-002	4.18897E-001	3.51842E-002	3.92978E+001	11	...........	5.87147E-002	-3.72361E-003	5.63112E-001	6.72205E-001	-3.06101E-002	-3.93065E-002	6.52818E-001	-4.29176E-002	2.46663E-003	-1.56431E-004	2.36566E-002	2.82396E-002	-1.28595E-003	-1.65128E-003	2.74252E-002	-1.80299E-003
	130	130	1.10003E+000	4.14977E-002	0.00000E+000	4.56486E-002	4.13802E-001	3.48060E-002	3.96745E+001	11	...........	5.81046E-002	-3.72014E-003	5.62993E-001	6.72322E-001	-3.06247E-002	-3.93299E-002	6.52710E-001	-4.29337E-002	2.41121E-003	-1.54377E-004	2.33629E-002	2.78998E-002	-1.27086E-003	-1.63210E-003	2.70860E-002	-1.78165E-003
	131	131	1.09997E+000	4.17678E-002	0.00000E+000	4.59434E-002	4.16484E-001	3.52161E-002	3.82437E+001	11	...........	5.87664E-002	-3.84514E-003	5.63113E-001	6.72589E-001	-3.06154E-002	-3.93272E-002	6.52537E-001	-4.28997E-002	2.45454E-003	-1.60603E-004	2.35200E-002	2.80926E-002	-1.27874E-003	-1.64261E-003	2.72550E-002	-1.79183E-003
	132	132	1.10008E+000	4.16803E-002	0.00000E+000	4.58517E-002	4.15615E-001	3.48117E-002	3.89424E+001	11	...........	5.80908E-002	-3.80792E-003	5.63081E-001	6.72660E-001	-3.06219E-002	-3.93218E-002	6.52436E-001	-4.29353E-002	2.42124E-003	-1.58715E-004	2.34694E-002	2.80366E-002	-1.27633E-003	-1.63894E-003	2.71937E-002	-1.78955E-003
	133	133	1.10003E+000	4.11503E-002	0.00000E+000	4.52665E-002	4.10342E-001	3.51332E-002	3.90234E+001	11	...........	5.86210E-002	-3.91764E-003	5.63065E-001	6.72679E-001	-3.06224E-002	-3.93258E-002	6.52588E-001	-4.29092E-002	2.41227E-003	-1.61212E-004	2.31703E-002	2.76809E-002	-1.26012E-003	-1.61827E-003	2.68541E-002	-1.76572E-003
	134	134	1.09997E+000	4.13696E-002	0.00000E+000	4.55053E-002	4.12525E-001	3.48261E-002	3.85751E+001	11	...........	5.81028E-002	-4.08194E-003	5.63071E-001	6.72723E-001	-3.06449E-002	-3.93399E-002	6.52680E-001	-4.28083E-002	2.40369E-003	-1.68868E-004	2.32940E-002	2.78303E-002	-1.26776E-003	-1.62747E-003	2.70011E-002	-1.77096E-003
	135	135	1.10008E+000	4.12992E-002	0.00000E+000	4.54324E-002	4.11825E-001	3.49542E-002	3.82612E+001	11	...........	5.83425E-002	-3.96736E-003	5.63025E-001	6.72685E-001	-3.06386E-002	-3.93531E-002	6.52700E-001	-4.28461E-002	2.40950E-003	-1.63849E-004	2.32525E-002	2.77814E-002	-1.26535E-003	-1.62525E-003	2.69560E-002	-1.76951E-003
	136	136	1.10003E+000	4.08066E-002	0.00000E+000	4.48885E-002	4.06926E-001	3.49564E-002	3.93986E+001	11	...........	5.83383E-002	-3.83250E-003	5.63017E-001	6.72547E-001	-3.06424E-002	-3.93643E-002	6.52826E-001	-4.27696E-002	2.38059E-003	-1.56391E-004	2.29748E-002	2.74444E-002	-1.25041E-003	-1.60632E-003	2.66396E-002	-1.74528E-003
	137	137	1.09997E+000	4.10412E-002	0.00000E+000	4.51440E-002	4.09260E-001	3.49210E-002	3.73071E+001	11	...........	5.82822E-002	-3.77722E-003	5.63239E-001	6.72480E-001	-3.06544E-002	-3.93537E-002	6.52787E-001	-4.28942E-002	2.39197E-003	-1.55022E-004	2.31160E-002	2.75994E-002	-1.25809E-003	-1.61512E-003	2.67911E-002	-1.76043E-003
	138	138	1.10007E+000	4.09066E-002	0.00000E+000	4.50004E-002	4.07921E-001	3.45438E-002	3.73919E+001	11	...........	5.76608E-002	-3.71806E-003	5.63275E-001	6.72490E-001	-3.06768E-002	-3.93261E-002	6.52708E-001	-4.28203E-002	2.35871E-003	-1.52093E-004	2.30417E-002	2.75093E-002	-1.25489E-003	-1.60870E-003	2.67001E-002	-1.75163E-003
	139	139	1.10004E+000	4.04879E-002	0.00000E+000	4.45382E-002	4.03761E-001	3.50090E-002	3.81227E+001	11	...........	5.84271E-002	-3.82931E-003	5.63399E-001	6.72530E-001	-3.06625E-002	-3.93047E-002	6.52570E-001	-4.27392E-002	2.36559E-003	-1.55040E-004	2.28108E-002	2.72293E-002	-1.24146E-003	-1.59136E-003	2.64211E-002	-1.73042E-003
	140	140	1.09997E+000	4.06742E-002	0.00000E+000	4.47404E-002	4.05613E-001	3.50151E-002	3.91942E+001	11	...........	5.84310E-002	-3.74500E-003	5.63257E-001	6.72591E-001	-3.06399E-002	-3.93046E-002	6.52565E-001	-4.27889E-002	2.37663E-003	-1.52325E-004	2.29100E-002	2.73571E-002	-1.24625E-003	-1.59868E-003	2.65426E-002	-1.74040E-003
	141	141	1.10007E+000	4.06146E-002	0.00000E+000	4.46788E-002	4.05017E-001	3.49111E-002	3.78485E+001	11	...........	5.82462E-002	-3.84917E-003	5.63188E-001	6.72593E-001	-3.06426E-002	-3.93225E-002	6.52621E-001	-4.28979E-002	2.36565E-003	-1.56332E-004	2.28736E-002	2.73171E-002	-1.24454E-003	-1.59707E-003	2.65059E-002	-1.74228E-003
	142	142	1.10004E+000	4.01069E-002	0.00000E+000	4.41193E-002	3.99971E-001	3.47452E-002	3.87324E+001	11	...........	5.79862E-002	-3.88431E-003	5.62990E-001	6.72669E-001	-3.06258E-002	-3.93179E-002	6.52601E-001	-4.29760E-002	2.32565E-003	-1.55788E-004	2.25798E-002	2.69787E-002	-1.22831E-003	-1.57692E-003	2.61738E-002	-1.72363E-003
	143	143	1.09997E+000	4.03081E-002	0.00000E+000	4.43377E-002	4.01967E-001	3.48337E-002	3.77451E+001	11	...........	5.81269E-002	-3.79792E-003	5.62888E-001	6.72565E-001	-3.06414E-002	-3.93064E-002	6.52583E-001	-4.28450E-002	2.34299E-003	-1.53087E-004	2.26890E-002	2.71098E-002	-1.23510E-003	-1.58437E-003	2.63044E-002	-1.72700E-003
	144	144	1.10006E+000	4.02806E-002	0.00000E+000	4.43113E-002	4.01697E-001	3.46662E-002	3.92094E+001	11	...........	5.78750E-002	-3.76083E-003	5.62975E-001	6.72468E-001	-3.06703E-002	-3.93061E-002	6.52534E-001	-4.28525E-002	2.33124E-003	-1.51489E-004	2.26770E-002	2.70874E-002	-1.23542E-003	-1.58327E-003	2.62845E-002	-1.72612E-003
	145	145	1.10005E+000	3.97749E-002	0.00000E+000	4.37543E-002	3.96669E-001	3.49527E-002	3.95588E+001	11	...........	5.83429E-002	-3.86931E-003	5.63088E-001	6.72441E-001	-3.06690E-002	-3.93043E-002	6.52652E-001	-4.28757E-002	2.32058E-003	-1.53901E-004	2.23967E-002	2.67463E-002	-1.21986E-003	-1.56332E-003	2.59592E-002	-1.70537E-003
	146	146	1.09997E+000	3.99694E-002	0.00000E+000	4.39649E-002	3.98602E-001	3.47781E-002	3.86978E+001	11	...........	5.80350E-002	-3.78181E-003	5.63108E-001	6.72362E-001	-3.06597E-002	-3.93085E-002	6.52669E-001	-4.28946E-002	2.31962E-003	-1.51156E-004	2.25071E-002	2.68739E-002	-1.22545E-003	-1.57114E-003	2.60868E-002	-1.71447E-003
	147	147	1.10006E+000	3.98687E-002	0.00000E+000	4.38581E-002	3.97603E-001	3.45777E-002	3.83569E+001	11	...........	5.77154E-002	-3.61667E-003	5.63093E-001	6.72198E-001	-3.06801E-002	-3.92961E-002	6.52758E-001	-4.27644E-002	2.30104E-003	-1.44192E-004	2.24498E-002	2.67997E-002	-1.22318E-003	-1.56669E-003	2.60246E-002	-1.70496E-003
	148	148	1.10005E+000	3.94276E-002	0.00000E+000	4.33725E-002	3.93219E-001	3.49266E-002	3.84072E+001	11	...........	5.82907E-002	-3.63764E-003	5.63211E-001	6.72211E-001	-3.06767E-002	-3.93328E-002	6.52694E-001	-4.28171E-002	2.29826E-003	-1.43424E-004	2.22061E-002	2.65037E-002	-1.20951E-003	-1.55080E-003	2.57342E-002	-1.68818E-003
	149	149	1.09997E+000	3.95823E-002	0.00000E+000	4.35392E-002	3.94755E-001	3.47835E-002	3.68845E+001	11	...........	5.80526E-002	-3.67347E-003	5.63100E-001	6.72159E-001	-3.06799E-002	-3.93329E-002	6.52611E-001	-4.28725E-002	2.29785E-003	-1.45404E-004	2.22888E-002	2.66056E-002	-1.21438E-003	-1.55689E-003	2.58318E-002	-1.69699E-003
	150	150	1.10005E+000	3.96200E-002	0.00000E+000	4.35842E-002	3.95133E-001	3.45516E-002	3.86850E+001	11	...........	5.76689E-002	-3.76028E-003	5.63086E-001	6.72194E-001	-3.06740E-002	-3.93406E-002	6.52519E-001	-4.29435E-002	2.28484E-003	-1.48982E-004	2.23095E-002	2.66323E-002	-1.21531E-003	-1.55867E-003	2.58528E-002	-1.70142E-003
	151	151	1.10006E+000	3.90630E-002	0.00000E+000	4.29716E-002	3.89593E-001	3.49621E-002	3.80891E+001	11	...........	5.83458E-002	-3.81431E-003	5.63147E-001	6.72087E-001	-3.06665E-002	-3.93542E-002	6.52552E-001	-4.29479E-002	2.27917E-003	-1.48998E-004	2.19982E-002	2.62538E-002	-1.19793E-003	-1.53729E-003	2.54907E-002	-1.67768E-003
	152	152	1.09996E+000	3.92439E-002	0.00000E+000	4.31669E-002	3.91392E-001	3.43932E-002	3.72615E+001	11	...........	5.74001E-002	-3.70986E-003	5.63061E-001	6.72004E-001	-3.06724E-002	-3.93703E-002	6.52516E-001	-4.29260E-002	2.25261E-003	-1.45589E-004	2.20967E-002	2.63721E-002	-1.20370E-003	-1.54504E-003	2.56073E-002	-1.68458E-003
	153	153	1.10005E+000	3.92825E-002	0.00000E+000	4.32129E-002	3.91773E-001	3.47641E-002	3.83307E+001	11	...........	5.80122E-002	-3.70597E-003	5.62950E-001	6.71914E-001	-3.06640E-002	-3.93943E-002	6.52626E-001	-4.28807E-002	2.27886E-003	-1.45580E-004	2.21140E-002	2.63944E-002	-1.20456E-003	-1.54750E-003	2.56367E-002	-1.68446E-003
	154	154	1.10007E+000	3.88109E-002	0.00000E+000	4.26945E-002	3.87087E-001	3.48550E-002	3.78871E+001	11	...........	5.81842E-002	-3.92917E-003	5.62883E-001	6.71928E-001	-3.06621E-002	-3.93847E-002	6.52567E-001	-4.27910E-002	2.25818E-003	-1.52495E-004	2.18460E-002	2.60781E-002	-1.19002E-003	-1.52856E-003	2.53267E-002	-1.66076E-003
	155	155	1.09996E+000	3.89550E-002	0.00000E+000	4.28490E-002	3.88519E-001	3.44354E-002	3.84647E+001	11	...........	5.74851E-002	-3.89208E-003	5.62817E-001	6.71915E-001	-3.06617E-002	-3.94037E-002	6.52555E-001	-4.28381E-002	2.23934E-003	-1.51616E-004	2.19246E-002	2.61745E-002	-1.19443E-003	-1.53497E-003	2.54203E-002	-1.66876E-003
	156	156	1.10005E+000	3.88942E-002	0.00000E+000	4.27856E-002	3.87918E-001	3.47678E-002	3.78431E+001	11	...........	5.80299E-002	-3.85194E-003	5.63090E-001	6.71898E-001	-3.06656E-002	-3.93981E-002	6.52546E-001	-4.28550E-002	2.25702E-003	-1.49818E-004	2.19009E-002	2.61329E-002	-1.19271E-003	-1.53235E-003	2.53802E-002	-1.66681E-003
	157	157	1.10007E+000	3.84241E-002	0.00000E+000	4.22691E-002	3.83239E-001	3.46542E-002	3.81018E+001	11	...........	5.78303E-002	-3.83847E-003	5.62944E-001	6.71835E-001	-3.06818E-002	-3.93979E-002	6.52551E-001	-4.28883E-002	2.22208E-003	-1.47490E-004	2.16306E-002	2.58146E-002	-1.17892E-003	-1.51383E-003	2.50737E-002	-1.64795E-003
	158	158	1.09996E+000	3.86617E-002	0.00000E+000	4.25263E-002	3.85603E-001	3.44974E-002	3.86625E+001	11	...........	5.75542E-002	-3.85056E-003	5.63115E-001	6.71878E-001	-3.06732E-002	-3.94174E-002	6.52597E-001	-4.28085E-002	2.22514E-003	-1.48869E-004	2.17710E-002	2.59759E-002	-1.18588E-003	-1.52394E-003	2.52305E-002	-1.65505E-003
	159	159	1.10005E+000	3.86137E-002	0.00000E+000	4.24768E-002	3.85129E-001	3.44178E-002	3.87609E+001	11	...........	5.74294E-002	-3.89139E-003	5.63147E-001	6.71928E-001	-3.06660E-002	-3.94103E-002	6.52684E-001	-4.30075E-002	2.21756E-003	-1.50261E-004	2.17452E-002	2.59456E-002	-1.18413E-003	-1.52178E-003	2.52025E-002	-1.66068E-003
	160	160	1.10007E+000	3.80980E-002	0.00000E+000	4.19106E-002	3.80000E-001	3.45126E-002	3.84626E+001	11	...........	5.76014E-002	-3.88944E-003	5.63099E-001	6.71966E-001	-3.06664E-002	-3.94104E-002	6.52830E-001	-4.29661E-002	2.19450E-003	-1.48180E-004	2.14529E-002	2.56005E-002	-1.16833E-003	-1.50146E-003	2.48715E-002	-1.63692E-003
	161	161	1.09996E+000	3.82514E-002	0.00000E+000	4.20752E-002	3.81519E-001	3.48005E-002	3.83758E+001	11	...........	5.80804E-002	-3.82917E-003	5.63048E-001	6.71953E-001	-3.06389E-002	-3.94254E-002	6.53020E-001	-4.29110E-002	2.22166E-003	-1.46471E-004	2.15374E-002	2.57032E-002	-1.17198E-003	-1.50808E-003	2.49790E-002	-1.64141E-003
	162	162	1.10004E+000	3.82949E-002	0.00000E+000	4.21258E-002	3.81954E-001	3.44805E-002	3.82830E+001	11	...........	5.75371E-002	-3.87333E-003	5.62887E-001	6.72004E-001	-3.06525E-002	-3.94462E-002	6.53037E-001	-4.29186E-002	2.20337E-003	-1.48329E-004	2.15557E-002	2.57343E-002	-1.17383E-003	-1.51059E-003	2.50080E-002	-1.64356E-003
	163	163	1.10008E+000	3.77855E-002	0.00000E+000	4.15670E-002	3.76889E-001	3.45122E-002	3.78755E+001	11	...........	5.76076E-002	-3.81097E-003	5.62778E-001	6.71952E-001	-3.06600E-002	-3.94435E-002	6.53049E-001	-4.28600E-002	2.17673E-003	-1.43999E-004	2.12648E-002	2.53900E-002	-1.15850E-003	-1.49039E-003	2.46757E-002	-1.61948E-003
	164	164	1.09996E+000	3.79503E-002	0.00000E+000	4.17438E-002	3.78534E-001	3.45490E-002	3.83611E+001	11	...........	5.76549E-002	-3.80319E-003	5.62634E-001	6.72158E-001	-3.06650E-002	-3.94535E-002	6.52917E-001	-4.28104E-002	2.18802E-003	-1.44332E-004	2.13521E-002	2.55086E-002	-1.16375E-003	-1.49727E-003	2.47784E-002	-1.62467E-003
	165	165	1.10004E+000	3.79650E-002	0.00000E+000	4.17629E-002	3.78675E-001	3.43930E-002	3.75253E+001	11	...........	5.73924E-002	-3.77292E-003	5.62559E-001	6.72204E-001	-3.06574E-002	-3.94693E-002	6.52979E-001	-4.28386E-002	2.17890E-003	-1.43239E-004	2.13575E-002	2.55202E-002	-1.16391E-003	-1.49845E-003	2.47903E-002	-1.62637E-003
	166	166	1.10008E+000	3.74430E-002	0.00000E+000	4.11904E-002	3.73486E-001	3.43430E-002	3.79038E+001	11	...........	5.73240E-002	-3.82931E-003	5.62476E-001	6.72211E-001	-3.06636E-002	-3.94947E-002	6.52982E-001	-4.28147E-002	2.14638E-003	-1.43381E-004	2.10608E-002	2.51696E-002	-1.14814E-003	-1.47880E-003	2.44496E-002	-1.60311E-003
	167	167	1.09996E+000	3.76496E-002	0.00000E+000	4.14129E-002	3.75543E-001	3.45497E-002	3.80868E+001	11	...........	5.76621E-002	-3.89250E-003	5.62520E-001	6.72303E-001	-3.06701E-002	-3.94900E-002	6.53040E-001	-4.29469E-002	2.17095E-003	-1.46551E-004	2.11786E-002	2.53119E-002	-1.15472E-003	-1.48678E-003	2.45867E-002	-1.61693E-003
	168	168	1.10004E+000	3.76236E-002	0.00000E+000	4.13873E-002	3.75286E-001	3.45182E-002	3.90259E+001	11	...........	5.76165E-002	-4.02819E-003	5.62495E-001	6.72381E-001	-3.06789E-002	-3.94786E-002	6.53033E-001	-4.29983E-002	2.16774E-003	-1.51555E-004	2.11631E-002	2.52974E-002	-1.15425E-003	-1.48533E-003	2.45695E-002	-1.61775E-003
	169	169	1.10009E+000	3.71321E-002	0.00000E+000	4.08486E-002	3.70395E-001	3.45142E-002	3.79396E+001	11	...........	5.76047E-002	-3.92042E-003	5.62478E-001	6.72526E-001	-3.06672E-002	-3.94797E-002	6.53107E-001	-4.29572E-002	2.13898E-003	-1.45573E-004	2.08860E-002	2.49723E-002	-1.13874E-003	-1.46596E-003	2.42512E-002	-1.59509E-003
	170	170	1.09996E+000	3.73434E-002	0.00000E+000	4.10761E-002	3.72495E-001	3.44938E-002	3.84844E+001	11	...........	5.75629E-002	-3.90139E-003	5.62477E-001	6.72633E-001	-3.06850E-002	-3.94774E-002	6.53222E-001	-4.29443E-002	2.14959E-003	-1.45691E-004	2.10048E-002	2.51184E-002	-1.14588E-003	-1.47422E-003	2.43935E-002	-1.60369E-003
	171	171	1.10003E+000	3.73563E-002	0.00000E+000	4.10932E-002	3.72623E-001	3.43588E-002	3.73924E+001	11	...........	5.73347E-002	-3.68292E-003	5.62336E-001	6.72632E-001	-3.06724E-002	-3.94885E-002	6.53282E-001	-4.29233E-002	2.14182E-003	-1.37580E-004	2.10068E-002	2.51271E-002	-1.14581E-003	-1.47514E-003	2.44042E-002	-1.60346E-003
	172	172	1.10009E+000	3.68783E-002	0.00000E+000	4.05694E-002	3.67871E-001	3.42952E-002	3.89430E+001	11	...........	5.72347E-002	-3.68361E-003	5.62371E-001	6.72579E-001	-3.06779E-002	-3.94925E-002	6.53220E-001	-4.29183E-002	2.11072E-003	-1.35845E-004	2.07393E-002	2.48036E-002	-1.13135E-003	-1.45642E-003	2.40897E-002	-1.58275E-003
	173	173	1.09996E+000	3.69787E-002	0.00000E+000	4.06750E-002	3.68869E-001	3.44522E-002	3.88241E+001	11	...........	5.75031E-002	-3.72917E-003	5.62511E-001	6.72599E-001	-3.07040E-002	-3.95017E-002	6.53201E-001	-4.28776E-002	2.12639E-003	-1.37900E-004	2.08009E-002	2.48718E-002	-1.13539E-003	-1.46072E-003	2.41545E-002	-1.58556E-003
	174	174	1.10003E+000	3.70337E-002	0.00000E+000	4.07381E-002	3.69415E-001	3.43000E-002	3.78771E+001	11	...........	5.72385E-002	-3.59889E-003	5.62295E-001	6.72598E-001	-3.06964E-002	-3.94919E-002	6.53057E-001	-4.29781E-002	2.11975E-003	-1.33280E-004	2.08239E-002	2.49088E-002	-1.13680E-003	-1.46253E-003	2.41851E-002	-1.59164E-003
	175	175	1.10009E+000	3.65567E-002	0.00000E+000	4.02156E-002	3.64669E-001	3.42722E-002	3.89916E+001	11	...........	5.73185E-002	-3.64139E-003	5.62186E-001	6.72669E-001	-3.06812E-002	-3.94728E-002	6.53140E-001	-4.29700E-002	2.09537E-003	-1.33117E-004	2.05517E-002	2.45905E-002	-1.12160E-003	-1.44299E-003	2.38766E-002	-1.57084E-003
	176	176	1.09996E+000	3.66418E-002	0.00000E+000	4.03044E-002	3.65518E-001	3.43301E-002	3.83341E+001	11	...........	5.72946E-002	-3.71681E-003	5.62241E-001	6.72678E-001	-3.06853E-002	-3.94526E-002	6.53050E-001	-4.29571E-002	2.09937E-003	-1.36190E-004	2.06015E-002	2.46481E-002	-1.12436E-003	-1.44561E-003	2.39289E-002	-1.57402E-003
	177	177	1.10003E+000	3.67659E-002	0.00000E+000	4.04435E-002	3.66754E-001	3.38432E-002	3.85554E+001	11	...........	5.64776E-002	-3.72583E-003	5.62126E-001	6.72635E-001	-3.06662E-002	-3.94626E-002	6.52932E-001	-4.29350E-002	2.07645E-003	-1.36984E-004	2.06671E-002	2.47300E-002	-1.12747E-003	-1.45088E-003	2.40057E-002	-1.57854E-003
	178	178	1.10010E+000	3.62994E-002	0.00000E+000	3.99329E-002	3.62114E-001	3.48935E-002	3.94691E+001	11	...........	5.82299E-002	-3.91167E-003	5.62226E-001	6.72630E-001	-3.06525E-002	-3.94712E-002	6.53026E-001	-4.28782E-002	2.11371E-003	-1.41991E-004	2.04085E-002	2.44161E-002	-1.11267E-003	-1.43278E-003	2.37045E-002	-1.55645E-003
	179	179	1.09996E+000	3.62377E-002	0.00000E+000	3.98599E-002	3.61502E-001	3.40812E-002	3.78651E+001	11	...........	5.68828E-002	-3.76347E-003	5.62344E-001	6.72617E-001	-3.06728E-002	-3.94668E-002	6.52919E-001	-4.29017E-002	2.06130E-003	-1.36379E-004	2.03780E-002	2.43741E-002	-1.11151E-003	-1.43018E-003	2.36602E-002	-1.55466E-003
	180	180	1.10002E+000	3.64503E-002	0.00000E+000	4.00961E-002	3.63617E-001	3.43184E-002	3.74365E+001	11	...........	5.72599E-002	-3.71222E-003	5.62408E-001	6.72555E-001	-3.06992E-002	-3.94579E-002	6.52894E-001	-4.29892E-002	2.08714E-003	-1.35312E-004	2.04999E-002	2.45148E-002	-1.11899E-003	-1.43825E-003	2.37982E-002	-1.56697E-003
	181	181	1.10010E+000	3.60385E-002	0.00000E+000	3.96460E-002	3.59524E-001	3.44839E-002	3.90225E+001	11	...........	5.75474E-002	-3.80444E-003	5.62423E-001	6.72576E-001	-3.06703E-002	-3.94664E-002	6.52908E-001	-4.29565E-002	2.07392E-003	-1.37107E-004	2.02689E-002	2.42387E-002	-1.10531E-003	-1.42231E-003	2.35298E-002	-1.54809E-003
	182	182	1.09996E+000	3.60172E-002	0.00000E+000	3.96174E-002	3.59307E-001	3.40184E-002	3.83922E+001	11	...........	5.67794E-002	-3.92208E-003	5.62481E-001	6.72735E-001	-3.06957E-002	-3.94954E-002	6.53001E-001	-4.28601E-002	2.04504E-003	-1.41263E-004	2.02590E-002	2.42300E-002	-1.10557E-003	-1.42252E-003	2.35193E-002	-1.54370E-003
	183	183	1.10002E+000	3.61739E-002	0.00000E+000	3.97919E-002	3.60867E-001	3.44538E-002	3.90722E+001	11	...........	5.75025E-002	-3.96569E-003	5.62616E-001	6.72843E-001	-3.07060E-002	-3.95101E-002	6.53056E-001	-4.30207E-002	2.08009E-003	-1.43454E-004	2.03520E-002	2.43393E-002	-1.11075E-003	-1.42923E-003	2.36236E-002	-1.55622E-003
	184	184	1.10011E+000	3.56511E-002	0.00000E+000	3.92200E-002	3.55667E-001	3.41368E-002	3.80594E+001	11	...........	5.69533E-002	-3.92125E-003	5.62544E-001	6.72985E-001	-3.07079E-002	-3.95097E-002	6.52861E-001	-4.29935E-002	2.03045E-003	-1.39797E-004	2.00553E-002	2.39927E-002	-1.09477E-003	-1.40856E-003	2.32752E-002	-1.53276E-003
	185	185	1.09995E+000	3.56335E-002	0.00000E+000	3.91952E-002	3.55489E-001	3.40962E-002	3.65269E+001	11	...........	5.68971E-002	-3.79014E-003	5.62439E-001	6.73018E-001	-3.07179E-002	-3.95207E-002	6.52912E-001	-4.29031E-002	2.02744E-003	-1.35056E-004	2.00417E-002	2.39820E-002	-1.09459E-003	-1.40826E-003	2.32655E-002	-1.52879E-003
	186	186	1.10002E+000	3.58861E-002	0.00000E+000	3.94754E-002	3.58004E-001	3.44787E-002	3.97085E+001	11	...........	5.75536E-002	-3.79028E-003	5.62347E-001	6.73061E-001	-3.07256E-002	-3.95185E-002	6.52994E-001	-4.28640E-002	2.06538E-003	-1.36018E-004	2.01805E-002	2.41536E-002	-1.10262E-003	-1.41816E-003	2.34334E-002	-1.53822E-003
	187	187	1.10010E+000	3.53326E-002	0.00000E+000	3.88695E-002	3.52499E-001	3.40340E-002	3.74717E+001	11	...........	5.68056E-002	-3.79222E-003	5.62276E-001	6.73107E-001	-3.07160E-002	-3.95050E-002	6.52900E-001	-4.29365E-002	2.00709E-003	-1.33989E-004	1.98667E-002	2.37826E-002	-1.08528E-003	-1.39581E-003	2.30686E-002	-1.51706E-003
	188	188	1.09996E+000	3.54109E-002	0.00000E+000	3.89505E-002	3.53279E-001	3.40561E-002	3.77020E+001	11	...........	5.68365E-002	-3.65861E-003	5.62336E-001	6.73083E-001	-3.07114E-002	-3.94961E-002	6.52872E-001	-4.29281E-002	2.01263E-003	-1.29555E-004	1.99129E-002	2.38345E-002	-1.08752E-003	-1.39859E-003	2.31188E-002	-1.52012E-003
	189	189	1.10002E+000	3.54941E-002	0.00000E+000	3.90441E-002	3.54107E-001	3.44508E-002	3.85834E+001	11	...........	5.74939E-002	-3.70681E-003	5.62209E-001	6.72975E-001	-3.07076E-002	-3.95147E-002	6.52826E-001	-4.28868E-002	2.04069E-003	-1.31570E-004	1.99551E-002	2.38866E-002	-1.08994E-003	-1.40254E-003	2.31714E-002	-1.52223E-003
	190	190	1.10011E+000	3.50704E-002	0.00000E+000	3.85811E-002	3.49894E-001	3.42342E-002	3.86729E+001	11	...........	5.71231E-002	-3.61764E-003	5.62248E-001	6.73006E-001	-3.07121E-002	-3.94994E-002	6.52885E-001	-4.29454E-002	2.00333E-003	-1.26872E-004	1.97183E-002	2.36026E-002	-1.07708E-003	-1.38526E-003	2.28969E-002	-1.50611E-003
	191	191	1.09996E+000	3.51519E-002	0.00000E+000	3.86655E-002	3.50704E-001	3.40386E-002	3.81825E+001	11	...........	5.67958E-002	-3.55181E-003	5.62152E-001	6.72854E-001	-3.07247E-002	-3.94706E-002	6.52963E-001	-4.28922E-002	1.99648E-003	-1.24853E-004	1.97607E-002	2.36521E-002	-1.08003E-003	-1.38746E-003	2.29528E-002	-1.50774E-003
	192	192	1.10001E+000	3.51986E-002	0.00000E+000	3.87188E-002	3.51168E-001	3.41401E-002	3.71482E+001	11	...........	5.69639E-002	-3.60514E-003	5.62156E-001	6.72890E-001	-3.07279E-002	-3.94256E-002	6.53022E-001	-4.28429E-002	2.00505E-003	-1.26896E-004	1.97871E-002	2.36848E-002	-1.08158E-003	-1.38772E-003	2.29854E-002	-1.50801E-003
	193	193	1.10011E+000	3.48053E-002	0.00000E+000	3.82896E-002	3.47259E-001	3.38480E-002	3.84420E+001	11	...........	5.64956E-002	-3.62208E-003	5.62231E-001	6.72848E-001	-3.07093E-002	-3.94167E-002	6.53141E-001	-4.28068E-002	1.96635E-003	-1.26068E-004	1.95686E-002	2.34187E-002	-1.06885E-003	-1.37191E-003	2.27328E-002	-1.48990E-003
	194	194	1.09996E+000	3.48726E-002	0.00000E+000	3.83584E-002	3.47929E-001	3.44463E-002	3.95734E+001	11	...........	5.74837E-002	-3.78097E-003	5.62171E-001	6.72806E-001	-3.07153E-002	-3.94349E-002	6.53100E-001	-4.29274E-002	2.00461E-003	-1.31852E-004	1.96044E-002	2.34625E-002	-1.07112E-003	-1.37520E-003	2.27753E-002	-1.49699E-003
	195	195	1.10001E+000	3.48683E-002	0.00000E+000	3.83556E-002	3.47885E-001	3.39379E-002	3.66338E+001	11	...........	5.66475E-002	-3.88264E-003	5.62178E-001	6.72770E-001	-3.07022E-002	-3.94432E-002	6.53053E-001	-4.29993E-002	1.97520E-003	-1.35381E-004	1.96022E-002	2.34584E-002	-1.07054E-003	-1.37532E-003	2.27709E-002	-1.49931E-003
	196	196	1.10011E+000	3.45400E-002	0.00000E+000	3.79977E-002	3.44618E-001	3.39318E-002	3.93803E+001	11	...........	5.66436E-002	-3.83028E-003	5.62058E-001	6.72783E-001	-3.06899E-002	-3.94378E-002	6.52869E-001	-4.28712E-002	1.95647E-003	-1.32298E-004	1.94135E-002	2.32379E-002	-1.06003E-003	-1.36218E-003	2.25501E-002	-1.48077E-003
	197	197	1.09996E+000	3.45024E-002	0.00000E+000	3.79513E-002	3.44247E-001	3.42549E-002	3.85374E+001	11	...........	5.71774E-002	-3.81361E-003	5.62052E-001	6.72767E-001	-3.06799E-002	-3.94525E-002	6.52952E-001	-4.29190E-002	1.97276E-003	-1.31579E-004	1.93922E-002	2.32121E-002	-1.05853E-003	-1.36121E-003	2.25284E-002	-1.48081E-003
	198	198	1.10001E+000	3.45951E-002	0.00000E+000	3.80549E-002	3.45167E-001	3.41597E-002	3.81053E+001	11	...........	5.69957E-002	-3.77694E-003	5.61919E-001	6.72758E-001	-3.06937E-002	-3.94328E-002	6.52921E-001	-4.28997E-002	1.97177E-003	-1.30664E-004	1.94396E-002	2.32741E-002	-1.06185E-003	-1.36418E-003	2.25878E-002	-1.48412E-003
	199	199	1.10011E+000	3.42049E-002	0.00000E+000	3.76292E-002	3.41289E-001	3.39551E-002	3.70520E+001	11	...........	5.66722E-002	-3.73528E-003	5.62002E-001	6.72788E-001	-3.07283E-002	-3.94378E-002	6.52867E-001	-4.28828E-002	1.93847E-003	-1.27765E-004	1.92233E-002	2.30127E-002	-1.05106E-003	-1.34897E-003	2.23313E-002	-1.46680E-003
	200	200	1.09996E+000	3.42493E-002	0.00000E+000	3.76728E-002	3.41730E-001	3.39869E-002	3.87377E+001	11	...........	5.67267E-002	-3.71333E-003	5.61724E-001	6.72694E-001	-3.07157E-002	-3.94289E-002	6.52767E-001	-4.28569E-002	1.94285E-003	-1.27179E-004	1.92387E-002	2.30393E-002	-1.05199E-003	-1.35041E-003	2.23568E-002	-1.46782E-003
	201	201	1.10001E+000	3.43229E-002	0.00000E+000	3.77555E-002	3.42461E-001	3.39868E-002	3.79058E+001	11	...........	5.67128E-002	-3.83667E-003	5.61718E-001	6.72585E-001	-3.07422E-002	-3.94236E-002	6.52709E-001	-4.28985E-002	1.94655E-003	-1.31685E-004	1.92798E-002	2.30851E-002	-1.05516E-003	-1.35313E-003	2.24029E-002	-1.47240E-003
	202	202	1.10011E+000	3.39082E-002	0.00000E+000	3.73028E-002	3.38336E-001	3.40859E-002	3.74926E+001	11	...........	5.68718E-002	-3.94250E-003	5.61910E-001	6.72568E-001	-3.07314E-002	-3.94264E-002	6.52748E-001	-4.29207E-002	1.92842E-003	-1.33683E-004	1.90534E-002	2.28056E-002	-1.04205E-003	-1.33688E-003	2.21335E-002	-1.45537E-003
	203	203	1.09996E+000	3.39531E-002	0.00000E+000	3.73471E-002	3.38784E-001	3.40149E-002	3.84672E+001	11	...........	5.67646E-002	-3.86778E-003	5.62006E-001	6.72514E-001	-3.07315E-002	-3.94332E-002	6.52625E-001	-4.28964E-002	1.92734E-003	-1.31323E-004	1.90819E-002	2.28340E-002	-1.04343E-003	-1.33888E-003	2.21587E-002	-1.45647E-003
	204	204	1.10001E+000	3.40253E-002	0.00000E+000	3.74280E-002	3.39502E-001	3.40853E-002	3.89082E+001	11	...........	5.68792E-002	-3.90431E-003	5.62180E-001	6.72598E-001	-3.07360E-002	-3.94354E-002	6.52672E-001	-4.28137E-002	1.93533E-003	-1.32845E-004	1.91283E-002	2.28853E-002	-1.04580E-003	-1.34180E-003	2.22073E-002	-1.45675E-003
	205	205	1.10011E+000	3.36961E-002	0.00000E+000	3.70694E-002	3.36233E-001	3.39073E-002	3.87512E+001	11	...........	5.65946E-002	-3.79375E-003	5.62199E-001	6.72628E-001	-3.07171E-002	-3.94408E-002	6.52701E-001	-4.28072E-002	1.90702E-003	-1.27835E-004	1.89439E-002	2.26649E-002	-1.03505E-003	-1.32900E-003	2.19935E-002	-1.44244E-003
	206	206	1.09996E+000	3.36968E-002	0.00000E+000	3.70651E-002	3.36241E-001	3.39582E-002	3.92705E+001	11	...........	5.66724E-002	-3.70569E-003	5.62106E-001	6.72832E-001	-3.07226E-002	-3.94546E-002	6.52690E-001	-4.29010E-002	1.90968E-003	-1.24870E-004	1.89412E-002	2.26723E-002	-1.03525E-003	-1.32949E-003	2.19936E-002	-1.44563E-003
	207	207	1.10001E+000	3.37097E-002	0.00000E+000	3.70810E-002	3.36366E-001	3.38860E-002	3.85171E+001	11	...........	5.65358E-002	-3.79153E-003	5.61968E-001	6.72771E-001	-3.07347E-002	-3.94474E-002	6.52572E-001	-4.28558E-002	1.90581E-003	-1.27811E-004	1.89438E-002	2.26789E-002	-1.03606E-003	-1.32976E-003	2.19980E-002	-1.44466E-003
	208	208	1.10011E+000	3.34310E-002	0.00000E+000	3.67778E-002	3.33595E-001	3.41336E-002	3.60345E+001	11	...........	5.69406E-002	-3.79361E-003	5.61867E-001	6.72686E-001	-3.07300E-002	-3.94489E-002	6.52715E-001	-4.28189E-002	1.90358E-003	-1.26824E-004	1.87838E-002	2.24886E-002	-1.02734E-003	-1.31882E-003	2.18209E-002	-1.43148E-003
	209	209	1.09996E+000	3.33860E-002	0.00000E+000	3.67233E-002	3.33145E-001	3.39458E-002	3.92545E+001	11	...........	5.66717E-002	-3.71167E-003	5.61780E-001	6.72651E-001	-3.06979E-002	-3.94526E-002	6.52608E-001	-4.28469E-002	1.89204E-003	-1.23918E-004	1.87556E-002	2.24571E-002	-1.02488E-003	-1.31717E-003	2.17880E-002	-1.43049E-003
	210	210	1.10001E+000	3.35266E-002	0.00000E+000	3.68795E-002	3.34547E-001	3.39011E-002	3.79498E+001	11	...........	5.65767E-002	-3.73653E-003	5.61862E-001	6.72581E-001	-3.06872E-002	-3.94714E-002	6.52584E-001	-4.28490E-002	1.89682E-003	-1.25273E-004	1.88373E-002	2.25494E-002	-1.02884E-003	-1.32334E-003	2.18789E-002	-1.43658E-003
	211	211	1.10011E+000	3.31714E-002	0.00000E+000	3.64921E-002	3.31016E-001	3.35323E-002	3.77835E+001	11	...........	5.59660E-002	-3.75389E-003	5.61859E-001	6.72537E-001	-3.06728E-002	-3.94854E-002	6.52587E-001	-4.27433E-002	1.85647E-003	-1.24522E-004	1.86376E-002	2.23090E-002	-1.01746E-003	-1.30979E-003	2.16472E-002	-1.41786E-003
	212	212	1.09997E+000	3.31383E-002	0.00000E+000	3.64510E-002	3.30685E-001	3.42230E-002	3.88055E+001	11	...........	5.71290E-002	-3.79847E-003	5.61797E-001	6.72421E-001	-3.06704E-002	-3.95081E-002	6.52533E-001	-4.27501E-002	1.89316E-003	-1.25875E-004	1.86170E-002	2.22829E-002	-1.01637E-003	-1.30923E-003	2.16239E-002	-1.41667E-003
	213	213	1.10001E+000	3.32127E-002	0.00000E+000	3.65341E-002	3.31428E-001	3.38600E-002	3.77213E+001	11	...........	5.65028E-002	-3.90167E-003	5.61884E-001	6.72285E-001	-3.06579E-002	-3.95229E-002	6.52591E-001	-4.27739E-002	1.87661E-003	-1.29585E-004	1.86617E-002	2.23284E-002	-1.01823E-003	-1.31266E-003	2.16743E-002	-1.42063E-003
	214	214	1.10011E+000	3.29079E-002	0.00000E+000	3.62021E-002	3.28399E-001	3.38047E-002	3.75589E+001	11	...........	5.64081E-002	-3.82708E-003	5.61785E-001	6.72211E-001	-3.06685E-002	-3.94922E-002	6.52605E-001	-4.27688E-002	1.85627E-003	-1.25941E-004	1.84872E-002	2.21210E-002	-1.00923E-003	-1.29961E-003	2.14758E-002	-1.40743E-003
	215	215	1.09997E+000	3.28405E-002	0.00000E+000	3.61235E-002	3.27725E-001	3.39257E-002	3.92209E+001	11	...........	5.66176E-002	-3.77528E-003	5.61930E-001	6.72260E-001	-3.06728E-002	-3.94911E-002	6.52605E-001	-4.28753E-002	1.85935E-003	-1.23982E-004	1.84540E-002	2.20773E-002	-1.00731E-003	-1.29691E-003	2.14319E-002	-1.40804E-003
	216	216	1.10000E+000	3.28945E-002	0.00000E+000	3.61841E-002	3.28261E-001	3.34757E-002	3.78340E+001	11	...........	5.58624E-002	-3.65014E-003	5.61901E-001	6.72206E-001	-3.06706E-002	-3.94864E-002	6.52469E-001	-4.29012E-002	1.83756E-003	-1.20069E-004	1.84834E-002	2.21119E-002	-1.00889E-003	-1.29888E-003	2.14626E-002	-1.41121E-003
	217	217	1.10010E+000	3.26157E-002	0.00000E+000	3.58807E-002	3.25489E-001	3.40642E-002	3.76780E+001	11	...........	5.68500E-002	-3.71611E-003	5.61766E-001	6.72198E-001	-3.06506E-002	-3.94647E-002	6.52505E-001	-4.28422E-002	1.85420E-003	-1.21204E-004	1.83224E-002	2.19242E-002	-9.99691E-004	-1.28717E-003	2.12819E-002	-1.39733E-003
	218	218	1.09997E+000	3.26035E-002	0.00000E+000	3.58629E-002	3.25366E-001	3.39066E-002	3.85030E+001	11	...........	5.65783E-002	-3.78500E-003	5.61723E-001	6.71983E-001	-3.06744E-002	-3.94514E-002	6.52560E-001	-4.29408E-002	1.84465E-003	-1.23404E-004	1.83141E-002	2.19090E-002	-1.00009E-003	-1.28625E-003	2.12757E-002	-1.40002E-003
	219	219	1.10000E+000	3.26817E-002	0.00000E+000	3.59498E-002	3.26141E-001	3.36921E-002	3.84013E+001	11	...........	5.62247E-002	-3.85069E-003	5.61832E-001	6.71869E-001	-3.06826E-002	-3.94275E-002	6.52580E-001	-4.29125E-002	1.83752E-003	-1.25847E-004	1.83616E-002	2.19578E-002	-1.00276E-003	-1.28856E-003	2.13274E-002	-1.40245E-003
	220	220	1.10011E+000	3.23440E-002	0.00000E+000	3.55819E-002	3.22785E-001	3.37735E-002	3.76503E+001	11	...........	5.63665E-002	-3.80236E-003	5.61909E-001	6.71755E-001	-3.06736E-002	-3.94206E-002	6.52498E-001	-4.28743E-002	1.82312E-003	-1.22984E-004	1.81744E-002	2.17272E-002	-9.92108E-004	-1.27502E-003	2.11044E-002	-1.38673E-003
	221	221	1.09997E+000	3.22653E-002	0.00000E+000	3.54910E-002	3.22005E-001	3.38251E-002	3.79760E+001	11	...........	5.64589E-002	-3.80917E-003	5.61941E-001	6.71760E-001	-3.06801E-002	-3.93883E-002	6.52407E-001	-4.29414E-002	1.82166E-003	-1.22904E-004	1.81312E-002	2.16745E-002	-9.89903E-004	-1.27088E-003	2.10501E-002	-1.38552E-003
	222	222	1.10000E+000	3.24175E-002	0.00000E+000	3.56592E-002	3.23514E-001	3.36835E-002	3.71269E+001	11	...........	5.62165E-002	-3.88069E-003	5.62056E-001	6.71755E-001	-3.06600E-002	-3.93633E-002	6.52478E-001	-4.29200E-002	1.82240E-003	-1.25802E-004	1.82204E-002	2.17766E-002	-9.93920E-004	-1.27606E-003	2.11517E-002	-1.39136E-003
	223	223	1.10010E+000	3.21361E-002	0.00000E+000	3.53529E-002	3.20719E-001	3.38654E-002	3.85413E+001	11	...........	5.65237E-002	-3.83181E-003	5.61959E-001	6.71916E-001	-3.06637E-002	-3.93600E-002	6.52677E-001	-4.28917E-002	1.81645E-003	-1.23139E-004	1.80591E-002	2.15927E-002	-9.85412E-004	-1.26488E-003	2.09745E-002	-1.37837E-003
	224	224	1.09998E+000	3.19975E-002	0.00000E+000	3.51966E-002	3.19341E-001	3.36714E-002	3.86402E+001	11	...........	5.62036E-002	-3.79556E-003	5.61974E-001	6.72071E-001	-3.06656E-002	-3.93367E-002	6.52707E-001	-4.30092E-002	1.79838E-003	-1.21448E-004	1.79818E-002	2.15046E-002	-9.81222E-004	-1.25868E-003	2.08850E-002	-1.37619E-003
	225	225	1.10000E+000	3.21293E-002	0.00000E+000	3.53423E-002	3.20649E-001	3.36412E-002	3.85881E+001	11	...........	5.61407E-002	-3.71292E-003	5.62083E-001	6.72011E-001	-3.06686E-002	-3.93514E-002	6.52592E-001	-4.29100E-002	1.80376E-003	-1.19293E-004	1.80593E-002	2.15912E-002	-9.85361E-004	-1.26433E-003	2.09673E-002	-1.37867E-003
	226	226	1.10010E+000	3.19093E-002	0.00000E+000	3.51033E-002	3.18464E-001	3.38002E-002	3.89058E+001	11	...........	5.64022E-002	-3.67667E-003	5.61969E-001	6.71843E-001	-3.06779E-002	-3.93692E-002	6.52566E-001	-4.28615E-002	1.79975E-003	-1.17320E-004	1.79320E-002	2.14380E-002	-9.78910E-004	-1.25624E-003	2.08229E-002	-1.36768E-003
	227	227	1.09998E+000	3.17359E-002	0.00000E+000	3.49088E-002	3.16740E-001	3.36843E-002	3.86217E+001	11	...........	5.62300E-002	-3.69875E-003	5.61916E-001	6.71826E-001	-3.06668E-002	-3.93572E-002	6.52527E-001	-4.28782E-002	1.78451E-003	-1.17383E-004	1.78329E-002	2.13210E-002	-9.73238E-004	-1.24904E-003	2.07085E-002	-1.36078E-003
	228	228	1.10000E+000	3.18673E-002	0.00000E+000	3.50540E-002	3.18046E-001	3.36443E-002	3.88383E+001	11	...........	5.61528E-002	-3.76861E-003	5.62032E-001	6.71900E-001	-3.06749E-002	-3.93314E-002	6.52443E-001	-4.29303E-002	1.78944E-003	-1.20095E-004	1.79105E-002	2.14116E-002	-9.77525E-004	-1.25339E-003	2.07916E-002	-1.36807E-003
	229	229	1.10010E+000	3.16428E-002	0.00000E+000	3.48101E-002	3.15817E-001	3.38875E-002	3.68311E+001	11	...........	5.65576E-002	-3.77083E-003	5.61966E-001	6.71907E-001	-3.06781E-002	-3.93347E-002	6.52359E-001	-4.27751E-002	1.78964E-003	-1.19320E-004	1.77821E-002	2.12610E-002	-9.70739E-004	-1.24466E-003	2.06425E-002	-1.35352E-003
	230	230	1.09998E+000	3.14260E-002	0.00000E+000	3.45680E-002	3.13659E-001	3.30276E-002	3.79717E+001	11	...........	5.51228E-002	-3.65597E-003	5.61816E-001	6.71919E-001	-3.06844E-002	-3.93361E-002	6.52347E-001	-4.28004E-002	1.73229E-003	-1.14893E-004	1.76556E-002	2.11157E-002	-9.64289E-004	-1.23618E-003	2.05006E-002	-1.34504E-003
	231	231	1.10000E+000	3.16491E-002	0.00000E+000	3.48141E-002	3.15877E-001	3.42306E-002	3.84897E+001	11	...........	5.71389E-002	-3.72028E-003	5.62028E-001	6.71944E-001	-3.06800E-002	-3.93296E-002	6.52428E-001	-4.27819E-002	1.80839E-003	-1.17743E-004	1.77877E-002	2.12664E-002	-9.70994E-004	-1.24474E-003	2.06488E-002	-1.35401E-003
	232	232	1.10009E+000	3.14389E-002	0.00000E+000	3.45857E-002	3.13788E-001	3.35361E-002	3.77626E+001	11	...........	5.59724E-002	-3.59306E-003	5.61949E-001	6.71942E-001	-3.06912E-002	-3.93449E-002	6.52525E-001	-4.28222E-002	1.75971E-003	-1.12962E-004	1.76670E-002	2.11251E-002	-9.64898E-004	-1.23696E-003	2.05146E-002	-1.34628E-003
	233	233	1.09998E+000	3.12000E-002	0.00000E+000	3.43195E-002	3.11411E-001	3.36159E-002	3.78574E+001	11	...........	5.60885E-002	-3.74611E-003	5.61900E-001	6.71842E-001	-3.06824E-002	-3.93490E-002	6.52684E-001	-4.30165E-002	1.74996E-003	-1.16879E-004	1.75313E-002	2.09615E-002	-9.57291E-004	-1.22769E-003	2.03638E-002	-1.34212E-003
	234	234	1.10000E+000	3.13280E-002	0.00000E+000	3.44608E-002	3.12683E-001	3.34026E-002	3.80043E+001	11	...........	5.57471E-002	-3.78000E-003	5.61857E-001	6.71753E-001	-3.06749E-002	-3.93407E-002	6.52741E-001	-4.30290E-002	1.74644E-003	-1.18420E-004	1.76019E-002	2.10447E-002	-9.60982E-004	-1.23247E-003	2.04491E-002	-1.34801E-003
	235	235	1.10009E+000	3.11543E-002	0.00000E+000	3.42726E-002	3.10954E-001	3.37882E-002	3.83134E+001	11	...........	5.63919E-002	-3.80722E-003	5.61722E-001	6.71734E-001	-3.06725E-002	-3.93407E-002	6.52679E-001	-4.29235E-002	1.75685E-003	-1.18611E-004	1.75001E-002	2.09274E-002	-9.55580E-004	-1.22563E-003	2.03337E-002	-1.33725E-003
	236	236	1.09999E+000	3.09332E-002	0.00000E+000	3.40262E-002	3.08761E-001	3.35675E-002	3.87852E+001	11	...........	5.60200E-002	-3.81319E-003	5.61545E-001	6.71592E-001	-3.06671E-002	-3.93265E-002	6.52616E-001	-4.28397E-002	1.73288E-003	-1.17954E-004	1.73704E-002	2.07745E-002	-9.48632E-004	-1.21650E-003	2.01875E-002	-1.32517E-003
	237	237	1.10000E+000	3.11052E-002	0.00000E+000	3.42156E-002	3.10467E-001	3.36449E-002	3.75819E+001	11	...........	5.61535E-002	-3.82361E-003	5.61448E-001	6.71555E-001	-3.06704E-002	-3.93444E-002	6.52627E-001	-4.28550E-002	1.74666E-003	-1.18934E-004	1.74639E-002	2.08888E-002	-9.54008E-004	-1.22382E-003	2.03001E-002	-1.33301E-003
	238	238	1.10009E+000	3.09289E-002	0.00000E+000	3.40246E-002	3.08714E-001	3.35823E-002	3.90799E+001	11	...........	5.60435E-002	-3.84611E-003	5.61395E-001	6.71626E-001	-3.06675E-002	-3.93607E-002	6.52517E-001	-4.28204E-002	1.73336E-003	-1.18956E-004	1.73633E-002	2.07727E-002	-9.48512E-004	-1.21738E-003	2.01816E-002	-1.32439E-003
	239	239	1.09999E+000	3.06670E-002	0.00000E+000	3.37335E-002	3.06113E-001	3.36000E-002	3.86176E+001	11	...........	5.60706E-002	-3.75222E-003	5.61394E-001	6.71655E-001	-3.06765E-002	-3.93614E-002	6.52531E-001	-4.28736E-002	1.71952E-003	-1.15069E-004	1.72163E-002	2.05977E-002	-9.40758E-004	-1.20710E-003	2.00112E-002	-1.31481E-003
	240	240	1.10000E+000	3.08560E-002	0.00000E+000	3.39415E-002	3.07989E-001	3.34004E-002	3.64135E+001	11	...........	5.57367E-002	-3.70806E-003	5.61401E-001	6.71629E-001	-3.06868E-002	-3.93692E-002	6.52601E-001	-4.28535E-002	1.71981E-003	-1.14416E-004	1.73226E-002	2.07238E-002	-9.46873E-004	-1.21478E-003	2.01367E-002	-1.32229E-003
	241	241	1.10009E+000	3.06410E-002	0.00000E+000	3.37077E-002	3.05853E-001	3.31887E-002	3.83949E+001	11	...........	5.53808E-002	-3.68472E-003	5.61338E-001	6.71572E-001	-3.06976E-002	-3.93668E-002	6.52609E-001	-4.28789E-002	1.69692E-003	-1.12903E-004	1.71999E-002	2.05776E-002	-9.40605E-004	-1.20624E-003	1.99966E-002	-1.31385E-003
	242	242	1.09999E+000	3.04123E-002	0.00000E+000	3.34534E-002	3.03579E-001	3.36994E-002	3.77054E+001	11	...........	5.62189E-002	-3.71819E-003	5.61456E-001	6.71510E-001	-3.06949E-002	-3.93924E-002	6.52644E-001	-4.29543E-002	1.70975E-003	-1.13079E-004	1.70752E-002	2.04222E-002	-9.33503E-004	-1.19801E-003	1.98484E-002	-1.30634E-003
	243	243	1.10000E+000	3.06131E-002	0.00000E+000	3.36743E-002	3.05574E-001	3.34963E-002	3.74690E+001	11	...........	5.59025E-002	-3.69194E-003	5.61387E-001	6.71448E-001	-3.06846E-002	-3.94128E-002	6.52643E-001	-4.29272E-002	1.71135E-003	-1.13022E-004	1.71858E-002	2.05551E-002	-9.39349E-004	-1.20655E-003	1.99794E-002	-1.31413E-003
	244	244	1.10008E+000	3.04436E-002	0.00000E+000	3.34905E-002	3.03895E-001	3.36943E-002	3.92387E+001	11	...........	5.62424E-002	-3.66319E-003	5.61342E-001	6.71466E-001	-3.06743E-002	-3.94178E-002	6.52764E-001	-4.28549E-002	1.71222E-003	-1.11521E-004	1.70893E-002	2.04418E-002	-9.33836E-004	-1.20002E-003	1.98725E-002	-1.30466E-003
	245	245	1.10000E+000	3.01032E-002	0.00000E+000	3.31134E-002	3.00509E-001	3.31175E-002	3.88347E+001	11	...........	5.52743E-002	-3.64431E-003	5.61498E-001	6.71573E-001	-3.06744E-002	-3.94226E-002	6.52674E-001	-4.29054E-002	1.66394E-003	-1.09705E-004	1.69029E-002	2.02165E-002	-9.23400E-004	-1.18675E-003	1.96476E-002	-1.29159E-003
	246	246	1.10000E+000	3.03258E-002	0.00000E+000	3.33583E-002	3.02721E-001	3.38619E-002	3.83236E+001	11	...........	5.65186E-002	-3.75583E-003	5.61498E-001	6.71651E-001	-3.06708E-002	-3.94264E-002	6.52768E-001	-4.27272E-002	1.71397E-003	-1.13899E-004	1.70279E-002	2.03684E-002	-9.30118E-004	-1.19564E-003	1.97957E-002	-1.29574E-003
	247	247	1.10008E+000	3.02172E-002	0.00000E+000	3.32414E-002	3.01643E-001	3.36876E-002	3.89814E+001	11	...........	5.62190E-002	-3.74069E-003	5.61376E-001	6.71910E-001	-3.06592E-002	-3.94117E-002	6.52690E-001	-4.27613E-002	1.69878E-003	-1.13033E-004	1.69632E-002	2.03032E-002	-9.26433E-004	-1.19091E-003	1.97224E-002	-1.29212E-003
	248	248	1.10000E+000	2.98560E-002	0.00000E+000	3.28416E-002	2.98046E-001	3.28108E-002	3.78418E+001	11	...........	5.47582E-002	-3.64722E-003	5.61338E-001	6.72134E-001	-3.06828E-002	-3.93994E-002	6.52719E-001	-4.27856E-002	1.63486E-003	-1.08891E-004	1.67593E-002	2.00672E-002	-9.16064E-004	-1.17631E-003	1.94876E-002	-1.27740E-003
	249	249	1.09999E+000	3.01177E-002	0.00000E+000	3.31293E-002	3.00649E-001	3.37910E-002	3.87705E+001	11	...........	5.63819E-002	-3.71736E-003	5.61341E-001	6.72038E-001	-3.07026E-002	-3.93958E-002	6.52820E-001	-4.28286E-002	1.69809E-003	-1.11958E-004	1.69063E-002	2.02402E-002	-9.24692E-004	-1.18651E-003	1.96614E-002	-1.28990E-003
	250	250	1.10008E+000	2.99457E-002	0.00000E+000	3.29428E-002	2.98941E-001	3.35763E-002	3.96967E+001	11	...........	5.60528E-002	-3.75236E-003	5.61353E-001	6.72051E-001	-3.06949E-002	-3.94003E-002	6.52813E-001	-4.29267E-002	1.67854E-003	-1.12367E-004	1.68101E-002	2.01250E-002	-9.19179E-004	-1.17987E-003	1.95490E-002	-1.28547E-003
	251	251	1.10000E+000	2.97044E-002	0.00000E+000	3.26749E-002	2.96544E-001	3.33993E-002	3.85197E+001	11	...........	5.57324E-002	-3.68181E-003	5.61347E-001	6.72032E-001	-3.07078E-002	-3.93901E-002	6.52805E-001	-4.29735E-002	1.65550E-003	-1.09366E-004	1.66745E-002	1.99623E-002	-9.12156E-004	-1.17006E-003	1.93912E-002	-1.27650E-003
	252	252	1.10000E+000	2.98222E-002	0.00000E+000	3.28042E-002	2.97712E-001	3.32507E-002	3.84853E+001	11	...........	5.55022E-002	-3.67792E-003	5.61333E-001	6.71939E-001	-3.07436E-002	-3.93757E-002	6.52734E-001	-4.28562E-002	1.65520E-003	-1.09683E-004	1.67401E-002	2.00387E-002	-9.16841E-004	-1.17427E-003	1.94659E-002	-1.27807E-003
	253	253	1.10008E+000	2.96904E-002	0.00000E+000	3.26617E-002	2.96403E-001	3.33928E-002	3.88548E+001	11	...........	5.57285E-002	-3.73208E-003	5.61364E-001	6.71776E-001	-3.07497E-002	-3.93775E-002	6.52749E-001	-4.28733E-002	1.65460E-003	-1.10807E-004	1.66671E-002	1.99453E-002	-9.12971E-004	-1.16913E-003	1.93804E-002	-1.27293E-003
	254	254	1.10001E+000	2.94254E-002	0.00000E+000	3.23681E-002	2.93765E-001	3.34938E-002	3.81343E+001	11	...........	5.58893E-002	-3.86278E-003	5.61378E-001	6.71857E-001	-3.07132E-002	-3.93840E-002	6.52741E-001	-4.28443E-002	1.64456E-003	-1.13664E-004	1.65187E-002	1.97696E-002	-9.03747E-004	-1.15889E-003	1.92071E-002	-1.26071E-003
	255	255	1.09999E+000	2.95497E-002	0.00000E+000	3.25045E-002	2.95006E-001	3.33067E-002	3.70523E+001	11	...........	5.55844E-002	-3.89347E-003	5.61390E-001	6.71852E-001	-3.06958E-002	-3.93749E-002	6.52767E-001	-4.28560E-002	1.64250E-003	-1.15051E-004	1.65889E-002	1.98530E-002	-9.07052E-004	-1.16351E-003	1.92890E-002	-1.26638E-003
	256	256	1.10007E+000	2.93985E-002	0.00000E+000	3.23405E-002	2.93504E-001	3.31201E-002	3.74831E+001	11	...........	5.52642E-002	-3.88611E-003	5.61375E-001	6.71927E-001	-3.06785E-002	-3.93843E-002	6.52758E-001	-4.28506E-002	1.62468E-003	-1.14246E-004	1.65036E-002	1.97536E-002	-9.01901E-004	-1.15784E-003	1.91901E-002	-1.25974E-003
	257	257	1.10001E+000	2.92127E-002	0.00000E+000	3.21342E-002	2.91662E-001	3.38223E-002	3.82754E+001	11	...........	5.64407E-002	-3.88694E-003	5.61318E-001	6.71909E-001	-3.06999E-002	-3.93793E-002	6.52856E-001	-4.29408E-002	1.64878E-003	-1.13548E-004	1.63976E-002	1.96283E-002	-8.96825E-004	-1.15037E-003	1.90717E-002	-1.25442E-003
	258	258	1.09999E+000	2.93477E-002	0.00000E+000	3.22823E-002	2.93001E-001	3.32262E-002	3.82990E+001	11	...........	5.54583E-002	-3.77792E-003	5.61278E-001	6.71969E-001	-3.06942E-002	-3.93733E-002	6.52755E-001	-4.29093E-002	1.62757E-003	-1.10873E-004	1.64722E-002	1.97207E-002	-9.00803E-004	-1.15552E-003	1.91569E-002	-1.25929E-003
	259	259	1.10007E+000	2.92472E-002	0.00000E+000	3.21740E-002	2.92003E-001	3.33945E-002	3.77180E+001	11	...........	5.57289E-002	-3.72083E-003	5.61250E-001	6.72035E-001	-3.06678E-002	-3.93596E-002	6.52683E-001	-4.30200E-002	1.62991E-003	-1.08824E-004	1.64150E-002	1.96551E-002	-8.96946E-004	-1.15116E-003	1.90891E-002	-1.25821E-003
	260	260	1.10002E+000	2.89511E-002	0.00000E+000	3.18467E-002	2.89060E-001	3.33149E-002	3.90968E+001	11	...........	5.56182E-002	-3.78208E-003	5.61175E-001	6.71999E-001	-3.06751E-002	-3.93411E-002	6.52667E-001	-4.28561E-002	1.61021E-003	-1.09496E-004	1.62466E-002	1.94551E-002	-8.88079E-004	-1.13897E-003	1.88954E-002	-1.24073E-003
	261	261	1.09999E+000	2.90853E-002	0.00000E+000	3.19935E-002	2.90393E-001	3.32122E-002	3.79231E+001	11	...........	5.54449E-002	-3.75819E-003	5.61082E-001	6.71838E-001	-3.06793E-002	-3.93471E-002	6.52647E-001	-4.27790E-002	1.61263E-003	-1.09308E-004	1.63193E-002	1.95406E-002	-8.92318E-004	-1.14442E-003	1.89825E-002	-1.24424E-003
	262	261.648	1.10014E+000	2.89694E-002	0.00000E+000	3.18702E-002	2.89239E-001	3.33904E-002	3.76033E+001	11	...........	5.57132E-002	-3.70116E-003	5.61294E-001	6.71737E-001	-3.06577E-002	-3.93443E-002	6.52582E-001	-4.26827E-002	1.61397E-003	-1.07220E-004	1.62603E-002	1.94598E-002	-8.88133E-004	-1.13978E-003	1.89049E-002	-1.23649E-003
STARTTIMEOFFSET	QUANT	378783.3	Start Time Offset (s)
