EXPLAIN
TAG	PWR800_CHARGE
TITLE	LABEL	PWR Charge	Test Identifier
DATE	LABEL	10/15/2022	Date
TIME	LABEL	15:00:46	Time
NOTES	NOTES	1	Notes...
	
PSTAT	PSTAT	REF3000-21114	Potentiostat
CAPACITY	QUANT	5.30000E-002	Capacity (A-hr)
CELLTYPE	SELECTOR	1	Cell Type
WORKINGCONNECTION	SELECTOR	0	Working Connection
MAXCHARGETIME	VARIABLEANDUNITS	7.20000E+003	s	2.00000E+000	hour(s)	Max Charge Time
CHARGEMODE	MULTIPARAM	0	1.00000E-001	Charge Mode	Constant Current	Amp(s)
CHARGECURRENT	QUANT	0.1	Charge Current (A)
VOLTAGEFINISH	TWOPARAM	T	2.50000E-002	7.20000E+003	Voltage Finish	I (A) <	Max Time(s)
SAMPLETIME	QUANT	1.00000E+000	Sample Period (s)
CHARGESTOPAT1	MULTIPARAM	2	1.10000E+000	Stop At 1	|Voltage| > Limit	V
CHARGESTOPAT2	MULTIPARAM	0	0.00000E+000	Stop At 2	None	N/A
AESELECTOR	AESELECTOR	0x1	T	Set Limits	AE Channels
AESBHCSELECTOR	TOGGLE	F	Save Both Half Cells
IRCOMP	TOGGLE	F	IR Measure
EOC	QUANT	0.2797307	Open Circuit (V)
SEQUENCER	TOGGLE	TRUE	Run as Sequence
PSTATMODEL	IQUANT	5	Pstat Model
PSTATSECTION	LABEL	REF3000-21114	Pstat Section
PSTATSERIALNO	LABEL	21114	Pstat Serial Number
CTRLMODE	IQUANT	0	Control Mode
ELECTROMETER	IQUANT	0	RE=0 or CS=1
IESTAB	IQUANT	0	I/E Stability
CASPEED	IQUANT	4	Control Amp Speed
CONVENTION	IQUANT	1	Current Convention
ICHRANGE	IQUANT	2	Ich Range
ICHRANGEMODE	TOGGLE	T	Ich Auto Range
ICHOFFSETENABLE	TOGGLE	F	Ich Offset Enable
ICHOFFSET	QUANT	0	Ich Offset (V)
ICHFILTER	IQUANT	1	Ich Filter
VCHRANGE	IQUANT	3	Vch Range
VCHRANGEMODE	TOGGLE	T	Vch Auto Range
VCHOFFSETENABLE	TOGGLE	F	Vch Offset Enable
VCHOFFSET	QUANT	0	Vch Offset (V)
VCHFILTER	IQUANT	1	Vch Filter
ACHRANGE	IQUANT	2	Ach Range
ACHOFFSETENABLE	TOGGLE	F	Ach Offset Enable
ACHOFFSET	QUANT	0	Ach Offset (V)
ACHFILTER	IQUANT	1	Ach Filter
IERANGELOWERLIMIT	IQUANT	9	I/E Range Lower Limit
IERANGEMODE	TOGGLE	F	I/E AutoRange
IERANGE	IQUANT	9	I/E Range
POSFEEDENABLE	TOGGLE	F	Positive Feedback IR Comp
POSFEEDRESISTANCE	QUANT	0	Positive Feedback Resistance (ohm)
ACHSELECT	IQUANT	1	Ach Select
SENSECABLEID	IQUANT	13	Sense Cable ID
PWRCABLEID	IQUANT	13	Power Cable ID
DCCALDATE	LABEL		DC Calibration Date
ACCALDATE	LABEL		AC Calibration Date
THERMOSELECT	IQUANT	1	Thermo Select
FRAMEWORKVERSION	LABEL	7.8.6	Framework Version
INSTRUMENTVERSION	LABEL	4.50	Instrument Version
COMPLIANCEVOLTAGE	IQUANT	0	Compliance Voltage
CURVE	TABLE	118
	Pt	T	Vf	Im	Vu	Pwr	Sig	Ach	Temp	IERange	Over	Vf1	Vf2	Vf3	Vf4	Vf5	Vf6	Vf7	Vf8	Pwr1	Pwr2	Pwr3	Pwr4	Pwr5	Pwr6	Pwr7	Pwr8
	#	s	V	A	V	W	V	V	deg C	#	bits	V	V	V	V	V	V	V	V	W	W	W	W	W	W	W	W
	0	1	5.66800E-001	9.98583E-002	0.00000E+000	5.65997E-002	9.94000E-001	3.91190E-002	4.01503E+001	11	...........	6.49667E-002	-3.21611E-003	5.63216E-001	6.78276E-001	-2.98587E-002	-3.84708E-002	6.39393E-001	-4.24587E-002	6.48746E-003	-3.21155E-004	5.62418E-002	6.77314E-002	-2.98164E-003	-3.84163E-003	6.38486E-002	-4.23986E-003
	1	2	7.63524E-001	9.98587E-002	0.00000E+000	7.62446E-002	9.94000E-001	3.97767E-002	4.32242E+001	11	...........	6.60712E-002	-3.08764E-003	5.63335E-001	6.78179E-001	-3.00167E-002	-3.84639E-002	6.39373E-001	-4.24032E-002	6.59779E-003	-3.08328E-004	5.62539E-002	6.77221E-002	-2.99743E-003	-3.84095E-003	6.38470E-002	-4.23433E-003
	2	2.315	1.02215E+000	9.98581E-002	0.00000E+000	1.02070E-001	9.94000E-001	4.01569E-002	4.74046E+001	11	...........	6.67147E-002	-3.27513E-003	5.63443E-001	6.78162E-001	-3.00639E-002	-3.84819E-002	6.39350E-001	-4.22628E-002	6.66201E-003	-3.27049E-004	5.62643E-002	6.77200E-002	-3.00213E-003	-3.84273E-003	6.38442E-002	-4.22028E-003
	3	3	1.10163E+000	6.89748E-002	0.00000E+000	7.59847E-002	6.86895E-001	4.00162E-002	4.76112E+001	11	...........	6.64716E-002	-3.19647E-003	5.63388E-001	6.78142E-001	-3.00661E-002	-3.84826E-002	6.39419E-001	-4.23579E-002	4.58487E-003	-2.20476E-004	3.88596E-002	4.67747E-002	-2.07380E-003	-2.65433E-003	4.41038E-002	-2.92163E-003
	4	4	1.10106E+000	5.14310E-002	0.00000E+000	5.66288E-002	5.12440E-001	3.94989E-002	4.60788E+001	11	...........	6.56062E-002	-2.95472E-003	5.63332E-001	6.78133E-001	-3.00593E-002	-3.84569E-002	6.39416E-001	-4.24443E-002	3.37419E-003	-1.51964E-004	2.89727E-002	3.48770E-002	-1.54598E-003	-1.97788E-003	3.28858E-002	-2.18295E-003
	5	5	1.10105E+000	4.52210E-002	0.00000E+000	4.97903E-002	4.50696E-001	3.96396E-002	4.74128E+001	11	...........	6.58337E-002	-2.92444E-003	5.63352E-001	6.78019E-001	-2.99990E-002	-3.84583E-002	6.39436E-001	-4.24885E-002	2.97707E-003	-1.32246E-004	2.54753E-002	3.06607E-002	-1.35658E-003	-1.73912E-003	2.89159E-002	-1.92137E-003
	6	6	1.10092E+000	4.24975E-002	0.00000E+000	4.67863E-002	4.23612E-001	3.96873E-002	4.72260E+001	11	...........	6.58939E-002	-2.90222E-003	5.63284E-001	6.77966E-001	-2.98579E-002	-3.84614E-002	6.39254E-001	-4.23717E-002	2.80033E-003	-1.23337E-004	2.39381E-002	2.88119E-002	-1.26889E-003	-1.63451E-003	2.71667E-002	-1.80069E-003
	7	7	1.10097E+000	4.08254E-002	0.00000E+000	4.49473E-002	4.06983E-001	3.99147E-002	4.77139E+001	11	...........	6.62914E-002	-2.99472E-003	5.63285E-001	6.78003E-001	-2.97342E-002	-3.84624E-002	6.39354E-001	-4.24599E-002	2.70637E-003	-1.22261E-004	2.29963E-002	2.76797E-002	-1.21391E-003	-1.57024E-003	2.61019E-002	-1.73344E-003
	8	8	1.10102E+000	3.93393E-002	0.00000E+000	4.33133E-002	3.92209E-001	3.95958E-002	4.44893E+001	11	...........	6.57522E-002	-3.29250E-003	5.63241E-001	6.77956E-001	-2.97246E-002	-3.84614E-002	6.39301E-001	-4.24374E-002	2.58664E-003	-1.29525E-004	2.21575E-002	2.66703E-002	-1.16934E-003	-1.51304E-003	2.51496E-002	-1.66945E-003
	9	9	1.10090E+000	3.86503E-002	0.00000E+000	4.25502E-002	3.85351E-001	3.93979E-002	4.45937E+001	11	...........	6.54358E-002	-3.26056E-003	5.63190E-001	6.77901E-001	-2.98699E-002	-3.84312E-002	6.39314E-001	-4.23689E-002	2.52911E-003	-1.26021E-004	2.17675E-002	2.62010E-002	-1.15448E-003	-1.48538E-003	2.47097E-002	-1.63757E-003
	10	10	1.10095E+000	3.82027E-002	0.00000E+000	4.20593E-002	3.80908E-001	3.98187E-002	4.62032E+001	11	...........	6.61589E-002	-3.38083E-003	5.63157E-001	6.77827E-001	-2.99896E-002	-3.84024E-002	6.39531E-001	-4.23531E-002	2.52745E-003	-1.29157E-004	2.15141E-002	2.58948E-002	-1.14568E-003	-1.46707E-003	2.44318E-002	-1.61800E-003
	11	11	1.10102E+000	3.74810E-002	0.00000E+000	4.12671E-002	3.73734E-001	3.98067E-002	4.69669E+001	11	...........	6.61093E-002	-3.42611E-003	5.63117E-001	6.77801E-001	-3.00339E-002	-3.84153E-002	6.39515E-001	-4.23360E-002	2.47784E-003	-1.28414E-004	2.11062E-002	2.54046E-002	-1.12570E-003	-1.43984E-003	2.39696E-002	-1.58679E-003
	12	12	1.10090E+000	3.72249E-002	0.00000E+000	4.09808E-002	3.71187E-001	3.95033E-002	4.61226E+001	11	...........	6.55860E-002	-3.04472E-003	5.63107E-001	6.77987E-001	-3.00344E-002	-3.84344E-002	6.39332E-001	-4.22356E-002	2.44143E-003	-1.13339E-004	2.09616E-002	2.52380E-002	-1.11803E-003	-1.43072E-003	2.37991E-002	-1.57221E-003
	13	13	1.10095E+000	3.70367E-002	0.00000E+000	4.07755E-002	3.69319E-001	3.94263E-002	4.35094E+001	11	...........	6.54696E-002	-3.10514E-003	5.63000E-001	6.78028E-001	-2.99451E-002	-3.84340E-002	6.39351E-001	-4.22283E-002	2.42478E-003	-1.15004E-004	2.08517E-002	2.51119E-002	-1.10907E-003	-1.42347E-003	2.36795E-002	-1.56400E-003
	14	14	1.10101E+000	3.65932E-002	0.00000E+000	4.02896E-002	3.64911E-001	3.95727E-002	4.57214E+001	11	...........	6.57161E-002	-3.05861E-003	5.62860E-001	6.77926E-001	-2.97778E-002	-3.84331E-002	6.39396E-001	-4.23357E-002	2.40477E-003	-1.11924E-004	2.05969E-002	2.48075E-002	-1.08967E-003	-1.40639E-003	2.33976E-002	-1.54920E-003
	15	15	1.10090E+000	3.65144E-002	0.00000E+000	4.01987E-002	3.64126E-001	3.96599E-002	4.53820E+001	11	...........	6.58869E-002	-3.08958E-003	5.62988E-001	6.77764E-001	-2.98071E-002	-3.84453E-002	6.39484E-001	-4.21733E-002	2.40582E-003	-1.12814E-004	2.05572E-002	2.47481E-002	-1.08839E-003	-1.40381E-003	2.33504E-002	-1.53993E-003
	16	16	1.10095E+000	3.64482E-002	0.00000E+000	4.01275E-002	3.63466E-001	3.94711E-002	4.63766E+001	11	...........	6.55761E-002	-2.86944E-003	5.62888E-001	6.77713E-001	-3.00076E-002	-3.84260E-002	6.39437E-001	-4.22683E-002	2.39013E-003	-1.04586E-004	2.05163E-002	2.47014E-002	-1.09372E-003	-1.40056E-003	2.33063E-002	-1.54060E-003
	17	17	1.10101E+000	3.60530E-002	0.00000E+000	3.96948E-002	3.59532E-001	3.96027E-002	4.62667E+001	11	...........	6.57619E-002	-3.07931E-003	5.62896E-001	6.77716E-001	-3.01139E-002	-3.84178E-002	6.39545E-001	-4.23778E-002	2.37092E-003	-1.11018E-004	2.02941E-002	2.44337E-002	-1.08570E-003	-1.38508E-003	2.30575E-002	-1.52785E-003
	18	18	1.10090E+000	3.59717E-002	0.00000E+000	3.96012E-002	3.58726E-001	3.94521E-002	4.54156E+001	11	...........	6.55210E-002	-3.05389E-003	5.62925E-001	6.77837E-001	-3.01347E-002	-3.84131E-002	6.39551E-001	-4.22356E-002	2.35690E-003	-1.09854E-004	2.02494E-002	2.43829E-002	-1.08400E-003	-1.38178E-003	2.30057E-002	-1.51928E-003
	19	19	1.10094E+000	3.59625E-002	0.00000E+000	3.95927E-002	3.58633E-001	3.92875E-002	4.53977E+001	11	...........	6.52492E-002	-2.93236E-003	5.62918E-001	6.77776E-001	-3.01254E-002	-3.84056E-002	6.39569E-001	-4.21392E-002	2.34652E-003	-1.05455E-004	2.02439E-002	2.43745E-002	-1.08339E-003	-1.38116E-003	2.30005E-002	-1.51543E-003
	20	20	1.10101E+000	3.56378E-002	0.00000E+000	3.92376E-002	3.55409E-001	3.95049E-002	4.56533E+001	11	...........	6.58085E-002	-3.14917E-003	5.62922E-001	6.77774E-001	-3.00892E-002	-3.84282E-002	6.39774E-001	-4.22332E-002	2.34527E-003	-1.12229E-004	2.00613E-002	2.41544E-002	-1.07231E-003	-1.36949E-003	2.28001E-002	-1.50510E-003
	21	21	1.10090E+000	3.55755E-002	0.00000E+000	3.91651E-002	3.54792E-001	3.91086E-002	4.70515E+001	11	...........	6.53007E-002	-3.19139E-003	5.62843E-001	6.77893E-001	-2.99589E-002	-3.84199E-002	6.39771E-001	-4.23069E-002	2.32311E-003	-1.13535E-004	2.00235E-002	2.41164E-002	-1.06580E-003	-1.36681E-003	2.27602E-002	-1.50509E-003
	22	22	1.10094E+000	3.55977E-002	0.00000E+000	3.91910E-002	3.55013E-001	3.92381E-002	4.42187E+001	11	...........	6.55025E-002	-3.10667E-003	5.63000E-001	6.77777E-001	-2.98928E-002	-3.84147E-002	6.39711E-001	-4.22156E-002	2.33174E-003	-1.10590E-004	2.00415E-002	2.41273E-002	-1.06411E-003	-1.36748E-003	2.27722E-002	-1.50278E-003
	23	23	1.10101E+000	3.52801E-002	0.00000E+000	3.88438E-002	3.51852E-001	3.91467E-002	4.60137E+001	11	...........	6.53574E-002	-3.12139E-003	5.62967E-001	6.77719E-001	-2.98744E-002	-3.83936E-002	6.39774E-001	-4.22618E-002	2.30581E-003	-1.10123E-004	1.98615E-002	2.39100E-002	-1.05397E-003	-1.35453E-003	2.25713E-002	-1.49100E-003
	24	24	1.10090E+000	3.52315E-002	0.00000E+000	3.87865E-002	3.51370E-001	3.90845E-002	4.53388E+001	11	...........	6.52396E-002	-3.16681E-003	5.62971E-001	6.77698E-001	-2.99489E-002	-3.83711E-002	6.39674E-001	-4.23619E-002	2.29849E-003	-1.11571E-004	1.98343E-002	2.38763E-002	-1.05514E-003	-1.35187E-003	2.25367E-002	-1.49248E-003
	25	25	1.10094E+000	3.52602E-002	0.00000E+000	3.88193E-002	3.51657E-001	3.91149E-002	4.57617E+001	11	...........	6.52990E-002	-2.95319E-003	5.62921E-001	6.77791E-001	-3.00815E-002	-3.83693E-002	6.39533E-001	-4.24160E-002	2.30246E-003	-1.04130E-004	1.98487E-002	2.38990E-002	-1.06068E-003	-1.35291E-003	2.25501E-002	-1.49560E-003
	26	26	1.10101E+000	3.49544E-002	0.00000E+000	3.84853E-002	3.48614E-001	3.90387E-002	4.47985E+001	11	...........	6.51642E-002	-2.99000E-003	5.62975E-001	6.77957E-001	-3.01329E-002	-3.83575E-002	6.39534E-001	-4.23374E-002	2.27778E-003	-1.04514E-004	1.96785E-002	2.36976E-002	-1.05328E-003	-1.34076E-003	2.23546E-002	-1.47988E-003
	27	27	1.10090E+000	3.49398E-002	0.00000E+000	3.84652E-002	3.48470E-001	3.91811E-002	4.66054E+001	11	...........	6.54262E-002	-3.02569E-003	5.62931E-001	6.78096E-001	-3.01739E-002	-3.83758E-002	6.39538E-001	-4.23489E-002	2.28598E-003	-1.05717E-004	1.96687E-002	2.36926E-002	-1.05427E-003	-1.34085E-003	2.23454E-002	-1.47966E-003
	28	28	1.10094E+000	3.49920E-002	0.00000E+000	3.85241E-002	3.48990E-001	3.89386E-002	4.55332E+001	11	...........	6.49975E-002	-3.19375E-003	5.62846E-001	6.78030E-001	-3.01704E-002	-3.83692E-002	6.39410E-001	-4.22453E-002	2.27440E-003	-1.11756E-004	1.96951E-002	2.37257E-002	-1.05572E-003	-1.34262E-003	2.23743E-002	-1.47825E-003
	29	29	1.10101E+000	3.47085E-002	0.00000E+000	3.82146E-002	3.46168E-001	3.91967E-002	4.49495E+001	11	...........	6.54408E-002	-3.12417E-003	5.62938E-001	6.77903E-001	-3.01762E-002	-3.83696E-002	6.39319E-001	-4.22536E-002	2.27136E-003	-1.08435E-004	1.95388E-002	2.35290E-002	-1.04737E-003	-1.33175E-003	2.21898E-002	-1.46656E-003
	30	30	1.10090E+000	3.46238E-002	0.00000E+000	3.81173E-002	3.45325E-001	3.88520E-002	4.52917E+001	11	...........	6.48536E-002	-2.89958E-003	5.63020E-001	6.77708E-001	-3.01699E-002	-3.83574E-002	6.39450E-001	-4.22733E-002	2.24548E-003	-1.00395E-004	1.94939E-002	2.34648E-002	-1.04459E-003	-1.32808E-003	2.21402E-002	-1.46366E-003
	31	31	1.10094E+000	3.47146E-002	0.00000E+000	3.82186E-002	3.46229E-001	3.89730E-002	4.58401E+001	11	...........	6.50733E-002	-3.11681E-003	5.63048E-001	6.77817E-001	-3.01825E-002	-3.83803E-002	6.39550E-001	-4.21906E-002	2.25899E-003	-1.08199E-004	1.95460E-002	2.35301E-002	-1.04777E-003	-1.33235E-003	2.22017E-002	-1.46463E-003
	32	32	1.10101E+000	3.44351E-002	0.00000E+000	3.79135E-002	3.43451E-001	3.90508E-002	4.54756E+001	11	...........	6.51862E-002	-3.08472E-003	5.63176E-001	6.77977E-001	-3.01337E-002	-3.83890E-002	6.39476E-001	-4.22106E-002	2.24469E-003	-1.06223E-004	1.93930E-002	2.33462E-002	-1.03766E-003	-1.32193E-003	2.20204E-002	-1.45352E-003
	33	33	1.10090E+000	3.43516E-002	0.00000E+000	3.78178E-002	3.42622E-001	3.89851E-002	4.55063E+001	11	...........	6.50965E-002	-3.04014E-003	5.63175E-001	6.78074E-001	-3.00587E-002	-3.83869E-002	6.39605E-001	-4.23328E-002	2.23617E-003	-1.04434E-004	1.93460E-002	2.32929E-002	-1.03257E-003	-1.31865E-003	2.19715E-002	-1.45420E-003
	34	34	1.10094E+000	3.44255E-002	0.00000E+000	3.79003E-002	3.43355E-001	3.88460E-002	4.53438E+001	11	...........	6.48485E-002	-3.04611E-003	5.63123E-001	6.78160E-001	-3.00165E-002	-3.84014E-002	6.39669E-001	-4.23176E-002	2.23244E-003	-1.04864E-004	1.93858E-002	2.33460E-002	-1.03333E-003	-1.32199E-003	2.20209E-002	-1.45681E-003
	35	35	1.10101E+000	3.41471E-002	0.00000E+000	3.75964E-002	3.40589E-001	3.90237E-002	4.56119E+001	11	...........	6.51557E-002	-3.03403E-003	5.63104E-001	6.77963E-001	-2.99672E-002	-3.84060E-002	6.39661E-001	-4.23396E-002	2.22488E-003	-1.03603E-004	1.92284E-002	2.31505E-002	-1.02329E-003	-1.31145E-003	2.18426E-002	-1.44577E-003
	36	36	1.10091E+000	3.40678E-002	0.00000E+000	3.75054E-002	3.39802E-001	3.89406E-002	4.56095E+001	11	...........	6.49918E-002	-2.84347E-003	5.63089E-001	6.77895E-001	-2.98893E-002	-3.84222E-002	6.39695E-001	-4.22225E-002	2.21413E-003	-9.68708E-005	1.91832E-002	2.30944E-002	-1.01826E-003	-1.30896E-003	2.17930E-002	-1.43843E-003
	37	37	1.10094E+000	3.41394E-002	0.00000E+000	3.75853E-002	3.40510E-001	3.89437E-002	4.47114E+001	11	...........	6.50208E-002	-2.87264E-003	5.63019E-001	6.77865E-001	-2.98701E-002	-3.84303E-002	6.39780E-001	-4.22476E-002	2.21977E-003	-9.80700E-005	1.92211E-002	2.31419E-002	-1.01975E-003	-1.31198E-003	2.18417E-002	-1.44231E-003
	38	38	1.10101E+000	3.39194E-002	0.00000E+000	3.73456E-002	3.38323E-001	3.86447E-002	4.52559E+001	11	...........	6.45101E-002	-2.89625E-003	5.62960E-001	6.77912E-001	-2.98722E-002	-3.84351E-002	6.39643E-001	-4.23150E-002	2.18814E-003	-9.82390E-005	1.90952E-002	2.29944E-002	-1.01325E-003	-1.30370E-003	2.16963E-002	-1.43530E-003
	39	39	1.10091E+000	3.38581E-002	0.00000E+000	3.72746E-002	3.37719E-001	3.90775E-002	4.72543E+001	11	...........	6.52528E-002	-3.10319E-003	5.62909E-001	6.77922E-001	-2.98981E-002	-3.84547E-002	6.39691E-001	-4.23478E-002	2.20934E-003	-1.05068E-004	1.90590E-002	2.29531E-002	-1.01229E-003	-1.30200E-003	2.16587E-002	-1.43382E-003
	40	40	1.10094E+000	3.38879E-002	0.00000E+000	3.73084E-002	3.38008E-001	3.86850E-002	4.55134E+001	11	...........	6.45876E-002	-2.99708E-003	5.62960E-001	6.77919E-001	-2.99176E-002	-3.84760E-002	6.39706E-001	-4.23450E-002	2.18874E-003	-1.01565E-004	1.90775E-002	2.29732E-002	-1.01385E-003	-1.30387E-003	2.16783E-002	-1.43498E-003
	41	41	1.10101E+000	3.36496E-002	0.00000E+000	3.70486E-002	3.35641E-001	3.87823E-002	4.51564E+001	11	...........	6.47611E-002	-2.94583E-003	5.62965E-001	6.77844E-001	-2.99728E-002	-3.84893E-002	6.39750E-001	-4.24022E-002	2.17919E-003	-9.91261E-005	1.89436E-002	2.28092E-002	-1.00857E-003	-1.29515E-003	2.15273E-002	-1.42682E-003
	42	42	1.10091E+000	3.35333E-002	0.00000E+000	3.69171E-002	3.34486E-001	3.88309E-002	4.45349E+001	11	...........	6.48208E-002	-3.01778E-003	5.62917E-001	6.77655E-001	-3.00364E-002	-3.84992E-002	6.39708E-001	-4.23682E-002	2.17366E-003	-1.01196E-004	1.88765E-002	2.27240E-002	-1.00722E-003	-1.29100E-003	2.14515E-002	-1.42075E-003
	43	43	1.10094E+000	3.36980E-002	0.00000E+000	3.70993E-002	3.36124E-001	3.88757E-002	4.58461E+001	11	...........	6.48971E-002	-2.99097E-003	5.62844E-001	6.77601E-001	-3.00526E-002	-3.84889E-002	6.39813E-001	-4.22771E-002	2.18690E-003	-1.00790E-004	1.89667E-002	2.28338E-002	-1.01271E-003	-1.29700E-003	2.15604E-002	-1.42465E-003
	44	44	1.10101E+000	3.34259E-002	0.00000E+000	3.68022E-002	3.33416E-001	3.86400E-002	4.50918E+001	11	...........	6.44986E-002	-3.05056E-003	5.62799E-001	6.77688E-001	-3.01053E-002	-3.85175E-002	6.39736E-001	-4.23211E-002	2.15592E-003	-1.01967E-004	1.88120E-002	2.26523E-002	-1.00629E-003	-1.28748E-003	2.13837E-002	-1.41462E-003
	45	45	1.10091E+000	3.33296E-002	0.00000E+000	3.66929E-002	3.32462E-001	3.89006E-002	4.65207E+001	11	...........	6.49636E-002	-3.07931E-003	5.62780E-001	6.77484E-001	-3.01336E-002	-3.84867E-002	6.39682E-001	-4.23499E-002	2.16521E-003	-1.02632E-004	1.87573E-002	2.25803E-002	-1.00434E-003	-1.28275E-003	2.13203E-002	-1.41150E-003
	46	46	1.10093E+000	3.34042E-002	0.00000E+000	3.67758E-002	3.33205E-001	3.87089E-002	4.38940E+001	11	...........	6.46069E-002	-3.24139E-003	5.62777E-001	6.77408E-001	-3.01400E-002	-3.84857E-002	6.39742E-001	-4.23844E-002	2.15814E-003	-1.08276E-004	1.87991E-002	2.26283E-002	-1.00680E-003	-1.28558E-003	2.13701E-002	-1.41582E-003
	47	47	1.10101E+000	3.32116E-002	0.00000E+000	3.65661E-002	3.31289E-001	3.84918E-002	4.33748E+001	11	...........	6.42433E-002	-3.08778E-003	5.62801E-001	6.77463E-001	-3.01315E-002	-3.84849E-002	6.39747E-001	-4.24318E-002	2.13362E-003	-1.02550E-004	1.86915E-002	2.24996E-002	-1.00071E-003	-1.27814E-003	2.12470E-002	-1.40923E-003
	48	48	1.10091E+000	3.30812E-002	0.00000E+000	3.64195E-002	3.29988E-001	3.88691E-002	4.55703E+001	11	...........	6.48892E-002	-2.97903E-003	5.62877E-001	6.77500E-001	-3.01289E-002	-3.84647E-002	6.39746E-001	-4.24357E-002	2.14661E-003	-9.85499E-005	1.86207E-002	2.24125E-002	-9.96701E-004	-1.27246E-003	2.11636E-002	-1.40383E-003
	49	49	1.10093E+000	3.31596E-002	0.00000E+000	3.65065E-002	3.30771E-001	3.87130E-002	4.49824E+001	11	...........	6.46408E-002	-2.98639E-003	5.62823E-001	6.77508E-001	-3.01192E-002	-3.84776E-002	6.39720E-001	-4.24383E-002	2.14346E-003	-9.90274E-005	1.86630E-002	2.24659E-002	-9.98739E-004	-1.27590E-003	2.12129E-002	-1.40724E-003
	50	50	1.10101E+000	3.29735E-002	0.00000E+000	3.63040E-002	3.28921E-001	3.86614E-002	4.42711E+001	11	...........	6.45350E-002	-2.80111E-003	5.62756E-001	6.77557E-001	-3.00986E-002	-3.84758E-002	6.39765E-001	-4.24392E-002	2.12794E-003	-9.23624E-005	1.85560E-002	2.23414E-002	-9.92457E-004	-1.26868E-003	2.10953E-002	-1.39937E-003
	51	51	1.10091E+000	3.28336E-002	0.00000E+000	3.61469E-002	3.27532E-001	3.86575E-002	4.53046E+001	11	...........	6.45386E-002	-2.94167E-003	5.62748E-001	6.77799E-001	-3.00533E-002	-3.84539E-002	6.39709E-001	-4.22958E-002	2.11903E-003	-9.65854E-005	1.84770E-002	2.22546E-002	-9.86759E-004	-1.26258E-003	2.10039E-002	-1.38872E-003
	52	52	1.10093E+000	3.29301E-002	0.00000E+000	3.62538E-002	3.28490E-001	3.88445E-002	4.51392E+001	11	...........	6.48442E-002	-3.07194E-003	5.62849E-001	6.77769E-001	-2.99353E-002	-3.84449E-002	6.39672E-001	-4.22603E-002	2.13532E-003	-1.01159E-004	1.85347E-002	2.23190E-002	-9.85770E-004	-1.26599E-003	2.10644E-002	-1.39163E-003
	53	53	1.10101E+000	3.27342E-002	0.00000E+000	3.60405E-002	3.26544E-001	3.86732E-002	4.46539E+001	11	...........	6.45796E-002	-2.94486E-003	5.62832E-001	6.77741E-001	-2.98543E-002	-3.84376E-002	6.39731E-001	-4.21735E-002	2.11396E-003	-9.63976E-005	1.84239E-002	2.21853E-002	-9.77256E-004	-1.25822E-003	2.09411E-002	-1.38051E-003
	54	54	1.10092E+000	3.25779E-002	0.00000E+000	3.58655E-002	3.24988E-001	3.85558E-002	4.51392E+001	11	...........	6.43847E-002	-3.15542E-003	5.62997E-001	6.77639E-001	-2.98022E-002	-3.84383E-002	6.39843E-001	-4.21797E-002	2.09752E-003	-1.02797E-004	1.83412E-002	2.20760E-002	-9.70893E-004	-1.25224E-003	2.08447E-002	-1.37413E-003
	55	55	1.10093E+000	3.26965E-002	0.00000E+000	3.59966E-002	3.26166E-001	3.86204E-002	4.51415E+001	11	...........	6.44630E-002	-2.99417E-003	5.63088E-001	6.77778E-001	-2.98197E-002	-3.84415E-002	6.39734E-001	-4.23706E-002	2.10772E-003	-9.78988E-005	1.84110E-002	2.21610E-002	-9.75001E-004	-1.25690E-003	2.09171E-002	-1.38537E-003
	56	56	1.10100E+000	3.25049E-002	0.00000E+000	3.57880E-002	3.24263E-001	3.85819E-002	4.64042E+001	11	...........	6.44271E-002	-2.86056E-003	5.63130E-001	6.77902E-001	-2.97681E-002	-3.84375E-002	6.39693E-001	-4.24369E-002	2.09420E-003	-9.29821E-005	1.83045E-002	2.20351E-002	-9.67608E-004	-1.24941E-003	2.07932E-002	-1.37941E-003
	57	57	1.10092E+000	3.23591E-002	0.00000E+000	3.56247E-002	3.22811E-001	3.84074E-002	4.41696E+001	11	...........	6.41175E-002	-2.93222E-003	5.63156E-001	6.77849E-001	-2.97657E-002	-3.84439E-002	6.39646E-001	-4.24056E-002	2.07479E-003	-9.48842E-005	1.82232E-002	2.19346E-002	-9.63192E-004	-1.24401E-003	2.06984E-002	-1.37221E-003
	58	58	1.10093E+000	3.25152E-002	0.00000E+000	3.57971E-002	3.24368E-001	3.87441E-002	4.57192E+001	11	...........	6.47017E-002	-2.80375E-003	5.63172E-001	6.77759E-001	-2.97569E-002	-3.84414E-002	6.39626E-001	-4.23249E-002	2.10379E-003	-9.11646E-005	1.83117E-002	2.20375E-002	-9.67554E-004	-1.24993E-003	2.07976E-002	-1.37620E-003
	59	59	1.10100E+000	3.22998E-002	0.00000E+000	3.55621E-002	3.22225E-001	3.84462E-002	4.57117E+001	11	...........	6.41900E-002	-2.90000E-003	5.63258E-001	6.77699E-001	-2.97849E-002	-3.84536E-002	6.39759E-001	-4.23793E-002	2.07332E-003	-9.36693E-005	1.81931E-002	2.18895E-002	-9.62044E-004	-1.24204E-003	2.06640E-002	-1.36884E-003
	60	60	1.10092E+000	3.21488E-002	0.00000E+000	3.53932E-002	3.20727E-001	3.87112E-002	4.60934E+001	11	...........	6.46200E-002	-2.99222E-003	5.63179E-001	6.77714E-001	-2.98136E-002	-3.84553E-002	6.39672E-001	-4.23150E-002	2.07745E-003	-9.61962E-005	1.81055E-002	2.17877E-002	-9.58471E-004	-1.23629E-003	2.05647E-002	-1.36037E-003
	61	61	1.10093E+000	3.22664E-002	0.00000E+000	3.55231E-002	3.21896E-001	3.84088E-002	4.53669E+001	11	...........	6.41286E-002	-2.98903E-003	5.63268E-001	6.77639E-001	-2.98789E-002	-3.84767E-002	6.39788E-001	-4.24337E-002	2.06920E-003	-9.64452E-005	1.81746E-002	2.18650E-002	-9.64085E-004	-1.24150E-003	2.06437E-002	-1.36919E-003
	62	62	1.10100E+000	3.20937E-002	0.00000E+000	3.53352E-002	3.20175E-001	3.83329E-002	4.56284E+001	11	...........	6.40132E-002	-3.01319E-003	5.63253E-001	6.77627E-001	-2.99875E-002	-3.84851E-002	6.39789E-001	-4.23901E-002	2.05442E-003	-9.67045E-005	1.80769E-002	2.17475E-002	-9.62409E-004	-1.23513E-003	2.05332E-002	-1.36046E-003
	63	63	1.10092E+000	3.19294E-002	0.00000E+000	3.51518E-002	3.18543E-001	3.87480E-002	4.59004E+001	11	...........	6.46843E-002	-3.29403E-003	5.63268E-001	6.77685E-001	-3.00532E-002	-3.84883E-002	6.39892E-001	-4.23401E-002	2.06533E-003	-1.05176E-004	1.79848E-002	2.16381E-002	-9.59581E-004	-1.22891E-003	2.04314E-002	-1.35190E-003
	64	64	1.10093E+000	3.19929E-002	0.00000E+000	3.52220E-002	3.19171E-001	3.83513E-002	4.37089E+001	11	...........	6.40222E-002	-2.98167E-003	5.63211E-001	6.77803E-001	-3.01008E-002	-3.84903E-002	6.39854E-001	-4.23772E-002	2.04826E-003	-9.53923E-005	1.80188E-002	2.16849E-002	-9.63014E-004	-1.23142E-003	2.04708E-002	-1.35577E-003
	65	65	1.10100E+000	3.18664E-002	0.00000E+000	3.50849E-002	3.17920E-001	3.84702E-002	4.54819E+001	11	...........	6.42449E-002	-3.03028E-003	5.63198E-001	6.77684E-001	-3.00975E-002	-3.84675E-002	6.39907E-001	-4.23754E-002	2.04726E-003	-9.65642E-005	1.79471E-002	2.15954E-002	-9.59100E-004	-1.22582E-003	2.03916E-002	-1.35035E-003
	66	66	1.10092E+000	3.16946E-002	0.00000E+000	3.48934E-002	3.16209E-001	3.82993E-002	4.58432E+001	11	...........	6.39599E-002	-2.86278E-003	5.63170E-001	6.77613E-001	-3.00528E-002	-3.84647E-002	6.39835E-001	-4.23854E-002	2.02718E-003	-9.07347E-005	1.78495E-002	2.14767E-002	-9.52512E-004	-1.21913E-003	2.02794E-002	-1.34339E-003
	67	67	1.10093E+000	3.17855E-002	0.00000E+000	3.49936E-002	3.17106E-001	3.83721E-002	4.56111E+001	11	...........	6.40608E-002	-2.85403E-003	5.63142E-001	6.77683E-001	-2.98319E-002	-3.84774E-002	6.39760E-001	-4.22969E-002	2.03621E-003	-9.07167E-005	1.78997E-002	2.15405E-002	-9.48223E-004	-1.22302E-003	2.03351E-002	-1.34443E-003
	68	68	1.10100E+000	3.16484E-002	0.00000E+000	3.48448E-002	3.15747E-001	3.81898E-002	4.48863E+001	11	...........	6.42951E-002	-2.80083E-003	5.63150E-001	6.77783E-001	-2.98061E-002	-3.84833E-002	6.39738E-001	-4.21732E-002	2.03484E-003	-8.86419E-005	1.78228E-002	2.14507E-002	-9.43316E-004	-1.21794E-003	2.02467E-002	-1.33471E-003
	69	69	1.10093E+000	3.14546E-002	0.00000E+000	3.46292E-002	3.13821E-001	3.84752E-002	4.57199E+001	11	...........	6.42500E-002	-2.82514E-003	5.63145E-001	6.77873E-001	-3.00583E-002	-3.84606E-002	6.39671E-001	-4.21499E-002	2.02096E-003	-8.88635E-005	1.77135E-002	2.13222E-002	-9.45472E-004	-1.20976E-003	2.01206E-002	-1.32581E-003
	70	70	1.10093E+000	3.16025E-002	0.00000E+000	3.47921E-002	3.15290E-001	3.84064E-002	4.56414E+001	11	...........	6.41272E-002	-2.85569E-003	5.63066E-001	6.77802E-001	-3.00676E-002	-3.84294E-002	6.39779E-001	-4.23185E-002	2.02658E-003	-9.02472E-005	1.77943E-002	2.14203E-002	-9.50214E-004	-1.21447E-003	2.02186E-002	-1.33737E-003
	71	71	1.10100E+000	3.14591E-002	0.00000E+000	3.46363E-002	3.13867E-001	3.82100E-002	4.49045E+001	11	...........	6.38108E-002	-2.74750E-003	5.62999E-001	6.77644E-001	-2.98076E-002	-3.84210E-002	6.39827E-001	-4.24693E-002	2.00743E-003	-8.64338E-005	1.77114E-002	2.13180E-002	-9.37721E-004	-1.20869E-003	2.01283E-002	-1.33604E-003
	72	72	1.10093E+000	3.12577E-002	0.00000E+000	3.44125E-002	3.11865E-001	3.84815E-002	4.48591E+001	11	...........	6.42569E-002	-2.81361E-003	5.63070E-001	6.77594E-001	-2.98815E-002	-3.84532E-002	6.39855E-001	-4.25165E-002	2.00853E-003	-8.79471E-005	1.76003E-002	2.11801E-002	-9.34029E-004	-1.20196E-003	2.00004E-002	-1.32897E-003
	73	73	1.10093E+000	3.13462E-002	0.00000E+000	3.45099E-002	3.12740E-001	3.81363E-002	4.45542E+001	11	...........	6.36469E-002	-2.93236E-003	5.63060E-001	6.77572E-001	-3.00379E-002	-3.84632E-002	6.39774E-001	-4.24001E-002	1.99509E-003	-9.19185E-005	1.76498E-002	2.12393E-002	-9.41576E-004	-1.20568E-003	2.00545E-002	-1.32908E-003
	74	74	1.10100E+000	3.12705E-002	0.00000E+000	3.44287E-002	3.11988E-001	3.84842E-002	4.53333E+001	11	...........	6.42457E-002	-3.02069E-003	5.63081E-001	6.77598E-001	-2.99211E-002	-3.84389E-002	6.39684E-001	-4.24122E-002	2.00900E-003	-9.44586E-005	1.76078E-002	2.11888E-002	-9.35648E-004	-1.20200E-003	2.00032E-002	-1.32625E-003
	75	75	1.10093E+000	3.09963E-002	0.00000E+000	3.41248E-002	3.09263E-001	3.82124E-002	4.62248E+001	11	...........	6.38036E-002	-2.87958E-003	5.63043E-001	6.77551E-001	-2.97276E-002	-3.84294E-002	6.39692E-001	-4.24032E-002	1.97768E-003	-8.92565E-005	1.74523E-002	2.10016E-002	-9.21448E-004	-1.19117E-003	1.98281E-002	-1.31434E-003
	76	76	1.10093E+000	3.11339E-002	0.00000E+000	3.42762E-002	3.10630E-001	3.84248E-002	4.45503E+001	11	...........	6.41497E-002	-2.94875E-003	5.63020E-001	6.77503E-001	-2.99540E-002	-3.84315E-002	6.39752E-001	-4.23096E-002	1.99723E-003	-9.18062E-005	1.75290E-002	2.10933E-002	-9.32587E-004	-1.19652E-003	1.99180E-002	-1.31726E-003
	77	77	1.10099E+000	3.10618E-002	0.00000E+000	3.41988E-002	3.09914E-001	3.82719E-002	4.53805E+001	11	...........	6.38849E-002	-2.87597E-003	5.62933E-001	6.77564E-001	-3.00042E-002	-3.84107E-002	6.39644E-001	-4.23989E-002	1.98438E-003	-8.93329E-005	1.74857E-002	2.10464E-002	-9.31984E-004	-1.19311E-003	1.98685E-002	-1.31699E-003
	78	78	1.10093E+000	3.08082E-002	0.00000E+000	3.39177E-002	3.07393E-001	3.80932E-002	4.51108E+001	11	...........	6.36071E-002	-2.91181E-003	5.62848E-001	6.77506E-001	-2.98535E-002	-3.84037E-002	6.39542E-001	-4.24629E-002	1.95962E-003	-8.97074E-005	1.73403E-002	2.08727E-002	-9.19731E-004	-1.18315E-003	1.97031E-002	-1.30821E-003
	79	79	1.10093E+000	3.09520E-002	0.00000E+000	3.40759E-002	3.08824E-001	3.84254E-002	4.53351E+001	11	...........	6.41553E-002	-3.03694E-003	5.62883E-001	6.77525E-001	-2.97185E-002	-3.84274E-002	6.39522E-001	-4.24244E-002	1.98573E-003	-9.39994E-005	1.74223E-002	2.09707E-002	-9.19845E-004	-1.18940E-003	1.97945E-002	-1.31312E-003
	80	80	1.10099E+000	3.08409E-002	0.00000E+000	3.39556E-002	3.07720E-001	3.81457E-002	4.49609E+001	11	...........	6.36799E-002	-2.92764E-003	5.62826E-001	6.77466E-001	-2.99628E-002	-3.84324E-002	6.39691E-001	-4.24218E-002	1.96395E-003	-9.02911E-005	1.73581E-002	2.08937E-002	-9.24080E-004	-1.18529E-003	1.97287E-002	-1.30833E-003
	81	81	1.10093E+000	3.06001E-002	0.00000E+000	3.36887E-002	3.05327E-001	3.82540E-002	4.61587E+001	11	...........	6.38962E-002	-3.11472E-003	5.62689E-001	6.77434E-001	-2.99956E-002	-3.84190E-002	6.39765E-001	-4.22817E-002	1.95523E-003	-9.53107E-005	1.72183E-002	2.07295E-002	-9.17866E-004	-1.17562E-003	1.95769E-002	-1.29382E-003
	82	82	1.10093E+000	3.07071E-002	0.00000E+000	3.38062E-002	3.06391E-001	3.80849E-002	4.34694E+001	11	...........	6.35981E-002	-3.26653E-003	5.62785E-001	6.77384E-001	-2.97881E-002	-3.83918E-002	6.39835E-001	-4.22839E-002	1.95291E-003	-1.00306E-004	1.72815E-002	2.08005E-002	-9.14704E-004	-1.17890E-003	1.96475E-002	-1.29841E-003
	83	83	1.10099E+000	3.06480E-002	0.00000E+000	3.37431E-002	3.05803E-001	3.82961E-002	4.56721E+001	11	...........	6.39376E-002	-3.03431E-003	5.62834E-001	6.77425E-001	-2.96903E-002	-3.84368E-002	6.39870E-001	-4.23115E-002	1.95956E-003	-9.29953E-005	1.72497E-002	2.07617E-002	-9.09946E-004	-1.17801E-003	1.96107E-002	-1.29676E-003
	84	84	1.10094E+000	3.04145E-002	0.00000E+000	3.34845E-002	3.03480E-001	3.82652E-002	4.60933E+001	11	...........	6.38944E-002	-2.95208E-003	5.62928E-001	6.77402E-001	-2.99367E-002	-3.84510E-002	6.39873E-001	-4.23940E-002	1.94332E-003	-8.97862E-005	1.71212E-002	2.06029E-002	-9.10509E-004	-1.16947E-003	1.94614E-002	-1.28939E-003
	85	85	1.10092E+000	3.05350E-002	0.00000E+000	3.36167E-002	3.04677E-001	3.80768E-002	4.49973E+001	11	...........	6.35658E-002	-2.75056E-003	5.63031E-001	6.77435E-001	-2.99862E-002	-3.84707E-002	6.39644E-001	-4.22760E-002	1.94098E-003	-8.39882E-005	1.71922E-002	2.06855E-002	-9.15630E-004	-1.17470E-003	1.95315E-002	-1.29090E-003
	86	86	1.10099E+000	3.04245E-002	0.00000E+000	3.34971E-002	3.03580E-001	3.83095E-002	4.59099E+001	11	...........	6.39671E-002	-2.91875E-003	5.63003E-001	6.77371E-001	-2.98533E-002	-3.84492E-002	6.39632E-001	-4.23465E-002	1.94617E-003	-8.88016E-005	1.71291E-002	2.06087E-002	-9.08273E-004	-1.16980E-003	1.94605E-002	-1.28837E-003
	87	87	1.10094E+000	3.01975E-002	0.00000E+000	3.32456E-002	3.01325E-001	3.80770E-002	4.40312E+001	11	...........	6.35715E-002	-2.87278E-003	5.63071E-001	6.77349E-001	-2.96808E-002	-3.84425E-002	6.39733E-001	-4.23318E-002	1.91970E-003	-8.67506E-005	1.70033E-002	2.04542E-002	-8.96286E-004	-1.16087E-003	1.93183E-002	-1.27831E-003
	88	88	1.10092E+000	3.03542E-002	0.00000E+000	3.34177E-002	3.02882E-001	3.81723E-002	4.53096E+001	11	...........	6.37171E-002	-2.88486E-003	5.63052E-001	6.77323E-001	-2.99083E-002	-3.84326E-002	6.39813E-001	-4.23192E-002	1.93408E-003	-8.75678E-005	1.70910E-002	2.05596E-002	-9.07845E-004	-1.16659E-003	1.94210E-002	-1.28457E-003
	89	89	1.10099E+000	3.02280E-002	0.00000E+000	3.32807E-002	3.01627E-001	3.79388E-002	4.55676E+001	11	...........	6.33365E-002	-2.89333E-003	5.63099E-001	6.77337E-001	-3.00107E-002	-3.84087E-002	6.39631E-001	-4.24499E-002	1.91454E-003	-8.74598E-005	1.70214E-002	2.04746E-002	-9.07164E-004	-1.16102E-003	1.93348E-002	-1.28318E-003
	90	90	1.10094E+000	2.99916E-002	0.00000E+000	3.30190E-002	2.99277E-001	3.80947E-002	4.39340E+001	11	...........	6.36067E-002	-2.93681E-003	5.62999E-001	6.77352E-001	-2.99856E-002	-3.83794E-002	6.39589E-001	-4.25367E-002	1.90766E-003	-8.80794E-005	1.68852E-002	2.03148E-002	-8.99314E-004	-1.15106E-003	1.91823E-002	-1.27574E-003
	91	91	1.10092E+000	3.01598E-002	0.00000E+000	3.32036E-002	3.00953E-001	3.83342E-002	4.60081E+001	11	...........	6.40051E-002	-2.93639E-003	5.63029E-001	6.77340E-001	-2.98158E-002	-3.83893E-002	6.39681E-001	-4.24333E-002	1.93038E-003	-8.85609E-005	1.69808E-002	2.04284E-002	-8.99240E-004	-1.15781E-003	1.92927E-002	-1.27978E-003
	92	92	1.10099E+000	3.00531E-002	0.00000E+000	3.30881E-002	2.99894E-001	3.80137E-002	4.50190E+001	11	...........	6.34786E-002	-2.83222E-003	5.62911E-001	6.77369E-001	-2.97449E-002	-3.84057E-002	6.39590E-001	-4.23692E-002	1.90773E-003	-8.51171E-005	1.69172E-002	2.03570E-002	-8.93925E-004	-1.15421E-003	1.92217E-002	-1.27332E-003
	93	93	1.10095E+000	2.98018E-002	0.00000E+000	3.28101E-002	2.97394E-001	3.81941E-002	4.56231E+001	11	...........	6.37683E-002	-2.72917E-003	5.62890E-001	6.77386E-001	-2.99651E-002	-3.84333E-002	6.39502E-001	-4.22943E-002	1.90041E-003	-8.13340E-005	1.67751E-002	2.01873E-002	-8.93014E-004	-1.14538E-003	1.90583E-002	-1.26044E-003
	94	94	1.10092E+000	2.99167E-002	0.00000E+000	3.29360E-002	2.98535E-001	3.80050E-002	4.54805E+001	11	...........	6.34629E-002	-2.74222E-003	5.62674E-001	6.77375E-001	-3.00879E-002	-3.84278E-002	6.39575E-001	-4.22500E-002	1.89860E-003	-8.20383E-005	1.68334E-002	2.02648E-002	-9.00132E-004	-1.14963E-003	1.91340E-002	-1.26398E-003
	95	95	1.10098E+000	2.98386E-002	0.00000E+000	3.28518E-002	2.97760E-001	3.81400E-002	4.51542E+001	11	...........	6.36796E-002	-2.89722E-003	5.62536E-001	6.77379E-001	-3.00960E-002	-3.84083E-002	6.39559E-001	-4.22704E-002	1.90011E-003	-8.64490E-005	1.67853E-002	2.02120E-002	-8.98021E-004	-1.14605E-003	1.90835E-002	-1.26129E-003
	96	96	1.10095E+000	2.95833E-002	0.00000E+000	3.25697E-002	2.95222E-001	3.79722E-002	4.42279E+001	11	...........	6.34229E-002	-2.81861E-003	5.62382E-001	6.77425E-001	-3.00039E-002	-3.83961E-002	6.39595E-001	-4.22739E-002	1.87626E-003	-8.33838E-005	1.66371E-002	2.00405E-002	-8.87614E-004	-1.13588E-003	1.89213E-002	-1.25060E-003
	97	97	1.10092E+000	2.97326E-002	0.00000E+000	3.27332E-002	2.96705E-001	3.79368E-002	4.57969E+001	11	...........	6.33492E-002	-2.95639E-003	5.62530E-001	6.77487E-001	-2.97732E-002	-3.84203E-002	6.39537E-001	-4.24000E-002	1.88353E-003	-8.79011E-005	1.67255E-002	2.01434E-002	-8.85234E-004	-1.14233E-003	1.90151E-002	-1.26066E-003
	98	98	1.10098E+000	2.96753E-002	0.00000E+000	3.26720E-002	2.96135E-001	3.82367E-002	4.59128E+001	11	...........	6.38436E-002	-3.23222E-003	5.62494E-001	6.77402E-001	-2.97650E-002	-3.84296E-002	6.39472E-001	-4.24210E-002	1.89458E-003	-9.59172E-005	1.66922E-002	2.01021E-002	-8.83286E-004	-1.14041E-003	1.89765E-002	-1.25886E-003
	99	99	1.10095E+000	2.93753E-002	0.00000E+000	3.23408E-002	2.93150E-001	3.78584E-002	4.59487E+001	11	...........	6.32186E-002	-3.24069E-003	5.62199E-001	6.77301E-001	-2.99675E-002	-3.84507E-002	6.39532E-001	-4.22339E-002	1.85707E-003	-9.51965E-005	1.65148E-002	1.98959E-002	-8.80305E-004	-1.12950E-003	1.87865E-002	-1.24063E-003
	100	100	1.10092E+000	2.94901E-002	0.00000E+000	3.24662E-002	2.94292E-001	3.79697E-002	4.36069E+001	11	...........	6.33975E-002	-3.05194E-003	5.62289E-001	6.77217E-001	-3.00636E-002	-3.84504E-002	6.39543E-001	-4.22668E-002	1.86960E-003	-9.00021E-005	1.65820E-002	1.99712E-002	-8.86579E-004	-1.13391E-003	1.88602E-002	-1.24645E-003
	101	101	1.10098E+000	2.94860E-002	0.00000E+000	3.24636E-002	2.94251E-001	3.80967E-002	4.38630E+001	11	...........	6.36043E-002	-3.07292E-003	5.62299E-001	6.77307E-001	-3.01044E-002	-3.84700E-002	6.39396E-001	-4.23825E-002	1.87544E-003	-9.06081E-005	1.65800E-002	1.99711E-002	-8.87660E-004	-1.13433E-003	1.88533E-002	-1.24969E-003
	102	102	1.10095E+000	2.92090E-002	0.00000E+000	3.21577E-002	2.91496E-001	3.80249E-002	4.63599E+001	11	...........	6.34781E-002	-3.15681E-003	5.62409E-001	6.77338E-001	-3.00682E-002	-3.84925E-002	6.39582E-001	-4.24804E-002	1.85413E-003	-9.22070E-005	1.64274E-002	1.97843E-002	-8.78260E-004	-1.12433E-003	1.86815E-002	-1.24081E-003
	103	103	1.10092E+000	2.93369E-002	0.00000E+000	3.22975E-002	2.92768E-001	3.79387E-002	4.52510E+001	11	...........	6.33340E-002	-3.32458E-003	5.62482E-001	6.77371E-001	-2.99817E-002	-3.85003E-002	6.39599E-001	-4.25115E-002	1.85802E-003	-9.75330E-005	1.65015E-002	1.98720E-002	-8.79569E-004	-1.12948E-003	1.87639E-002	-1.24716E-003
	104	104	1.10098E+000	2.92818E-002	0.00000E+000	3.22386E-002	2.92220E-001	3.78484E-002	4.37387E+001	11	...........	6.31860E-002	-3.37389E-003	5.62631E-001	6.77424E-001	-2.98069E-002	-3.85121E-002	6.39754E-001	-4.23986E-002	1.85020E-003	-9.87935E-005	1.64749E-002	1.98362E-002	-8.72801E-004	-1.12770E-003	1.87332E-002	-1.24151E-003
	105	105	1.10096E+000	2.90037E-002	0.00000E+000	3.19319E-002	2.89459E-001	3.80307E-002	4.48082E+001	11	...........	6.34814E-002	-3.16306E-003	5.62691E-001	6.77377E-001	-2.96908E-002	-3.85129E-002	6.39651E-001	-4.23708E-002	1.84120E-003	-9.17404E-005	1.63201E-002	1.96465E-002	-8.61145E-004	-1.11702E-003	1.85523E-002	-1.22891E-003
	106	106	1.10092E+000	2.91529E-002	0.00000E+000	3.20950E-002	2.90938E-001	3.81230E-002	4.62601E+001	11	...........	6.36506E-002	-3.10986E-003	5.62794E-001	6.77349E-001	-2.97664E-002	-3.85111E-002	6.39630E-001	-4.23043E-002	1.85560E-003	-9.06615E-005	1.64071E-002	1.97467E-002	-8.67777E-004	-1.12271E-003	1.86471E-002	-1.23329E-003
	107	107	1.10098E+000	2.90947E-002	0.00000E+000	3.20326E-002	2.90357E-001	3.77403E-002	4.46435E+001	11	...........	6.30135E-002	-3.11306E-003	5.62806E-001	6.77392E-001	-2.98657E-002	-3.85247E-002	6.39421E-001	-4.23578E-002	1.83336E-003	-9.05735E-005	1.63747E-002	1.97085E-002	-8.68934E-004	-1.12087E-003	1.86038E-002	-1.23239E-003
	108	108	1.10096E+000	2.87903E-002	0.00000E+000	3.16969E-002	2.87333E-001	3.80506E-002	4.45315E+001	11	...........	6.35350E-002	-3.11333E-003	5.62616E-001	6.77540E-001	-2.99822E-002	-3.85161E-002	6.39488E-001	-4.22993E-002	1.82919E-003	-8.96338E-005	1.61979E-002	1.95066E-002	-8.63197E-004	-1.10889E-003	1.84111E-002	-1.21781E-003
	109	109	1.10092E+000	2.89235E-002	0.00000E+000	3.18424E-002	2.88656E-001	3.76114E-002	4.41652E+001	11	...........	6.28158E-002	-3.17208E-003	5.62826E-001	6.77538E-001	-3.00058E-002	-3.85132E-002	6.39374E-001	-4.24137E-002	1.81685E-003	-9.17477E-005	1.62789E-002	1.95968E-002	-8.67873E-004	-1.11394E-003	1.84929E-002	-1.22675E-003
	110	110	1.10097E+000	2.89307E-002	0.00000E+000	3.18519E-002	2.88729E-001	3.82868E-002	4.47185E+001	11	...........	6.39094E-002	-3.34764E-003	5.62930E-001	6.77406E-001	-2.99982E-002	-3.84910E-002	6.39403E-001	-4.22949E-002	1.84894E-003	-9.68495E-005	1.62859E-002	1.95978E-002	-8.67868E-004	-1.11357E-003	1.84984E-002	-1.22362E-003
	111	111	1.10096E+000	2.86273E-002	0.00000E+000	3.15175E-002	2.85713E-001	3.78837E-002	4.56148E+001	11	...........	6.32336E-002	-3.38917E-003	5.62744E-001	6.77364E-001	-3.00017E-002	-3.84797E-002	6.39374E-001	-4.24783E-002	1.81020E-003	-9.70225E-005	1.61098E-002	1.93911E-002	-8.58866E-004	-1.10157E-003	1.83035E-002	-1.21604E-003
	112	112	1.10092E+000	2.87319E-002	0.00000E+000	3.16314E-002	2.86758E-001	3.77576E-002	4.58656E+001	11	...........	6.30358E-002	-3.31069E-003	5.62899E-001	6.77451E-001	-2.98782E-002	-3.84706E-002	6.39467E-001	-4.24668E-002	1.81114E-003	-9.51224E-005	1.61731E-002	1.94644E-002	-8.58456E-004	-1.10533E-003	1.83731E-002	-1.22015E-003
	113	113	1.10097E+000	2.86836E-002	0.00000E+000	3.15798E-002	2.86278E-001	3.79502E-002	4.35759E+001	11	...........	6.33419E-002	-3.25708E-003	5.62773E-001	6.77490E-001	-2.97356E-002	-3.84814E-002	6.39424E-001	-4.23946E-002	1.81688E-003	-9.34249E-005	1.61424E-002	1.94329E-002	-8.52923E-004	-1.10379E-003	1.83410E-002	-1.21603E-003
	114	114	1.10097E+000	2.84477E-002	0.00000E+000	3.13200E-002	2.83934E-001	3.77500E-002	4.40064E+001	11	...........	6.30221E-002	-2.93764E-003	5.62711E-001	6.77551E-001	-2.96881E-002	-3.84833E-002	6.39453E-001	-4.23067E-002	1.79283E-003	-8.35691E-005	1.60079E-002	1.92748E-002	-8.44558E-004	-1.09476E-003	1.81910E-002	-1.20353E-003
	115	115	1.10092E+000	2.85469E-002	0.00000E+000	3.14277E-002	2.84924E-001	3.80779E-002	4.47155E+001	11	...........	6.35560E-002	-3.03389E-003	5.62921E-001	6.77533E-001	-2.98368E-002	-3.84918E-002	6.39487E-001	-4.23968E-002	1.81432E-003	-8.66080E-005	1.60696E-002	1.93414E-002	-8.51747E-004	-1.09882E-003	1.82553E-002	-1.21030E-003
	116	116	1.10097E+000	2.85281E-002	0.00000E+000	3.14085E-002	2.84736E-001	3.77100E-002	4.48874E+001	11	...........	6.29654E-002	-3.22486E-003	5.62933E-001	6.77584E-001	-3.00153E-002	-3.85182E-002	6.39538E-001	-4.23365E-002	1.79629E-003	-9.19993E-005	1.60594E-002	1.93302E-002	-8.56280E-004	-1.09885E-003	1.82448E-002	-1.20778E-003
	117	116.6	1.10101E+000	2.82550E-002	0.00000E+000	3.11089E-002	2.82019E-001	3.77283E-002	4.61198E+001	11	...........	6.30035E-002	-3.30370E-003	5.62815E-001	6.77694E-001	-3.00551E-002	-3.85208E-002	6.39553E-001	-4.23007E-002	1.78016E-003	-9.33460E-005	1.59023E-002	1.91482E-002	-8.49205E-004	-1.08840E-003	1.80705E-002	-1.19520E-003
STARTTIMEOFFSET	QUANT	758987.4	Start Time Offset (s)
