EXPLAIN
TAG	PWR800_CHARGE
TITLE	LABEL	PWR Charge	Test Identifier
DATE	LABEL	10/18/2022	Date
TIME	LABEL	7:24:04	Time
NOTES	NOTES	1	Notes...
	
PSTAT	PSTAT	REF3000-21114	Potentiostat
CAPACITY	QUANT	5.30000E-002	Capacity (A-hr)
CELLTYPE	SELECTOR	1	Cell Type
WORKINGCONNECTION	SELECTOR	0	Working Connection
MAXCHARGETIME	VARIABLEANDUNITS	7.20000E+003	s	2.00000E+000	hour(s)	Max Charge Time
CHARGEMODE	MULTIPARAM	0	1.00000E-001	Charge Mode	Constant Current	Amp(s)
CHARGECURRENT	QUANT	0.1	Charge Current (A)
VOLTAGEFINISH	TWOPARAM	T	2.50000E-002	7.20000E+003	Voltage Finish	I (A) <	Max Time(s)
SAMPLETIME	QUANT	1.00000E+000	Sample Period (s)
CHARGESTOPAT1	MULTIPARAM	2	1.10000E+000	Stop At 1	|Voltage| > Limit	V
CHARGESTOPAT2	MULTIPARAM	0	0.00000E+000	Stop At 2	None	N/A
AESELECTOR	AESELECTOR	0x1	T	Set Limits	AE Channels
AESBHCSELECTOR	TOGGLE	F	Save Both Half Cells
IRCOMP	TOGGLE	F	IR Measure
EOC	QUANT	0.2600326	Open Circuit (V)
SEQUENCER	TOGGLE	TRUE	Run as Sequence
PSTATMODEL	IQUANT	5	Pstat Model
PSTATSECTION	LABEL	REF3000-21114	Pstat Section
PSTATSERIALNO	LABEL	21114	Pstat Serial Number
CTRLMODE	IQUANT	0	Control Mode
ELECTROMETER	IQUANT	0	RE=0 or CS=1
IESTAB	IQUANT	0	I/E Stability
CASPEED	IQUANT	4	Control Amp Speed
CONVENTION	IQUANT	1	Current Convention
ICHRANGE	IQUANT	2	Ich Range
ICHRANGEMODE	TOGGLE	T	Ich Auto Range
ICHOFFSETENABLE	TOGGLE	F	Ich Offset Enable
ICHOFFSET	QUANT	0	Ich Offset (V)
ICHFILTER	IQUANT	1	Ich Filter
VCHRANGE	IQUANT	3	Vch Range
VCHRANGEMODE	TOGGLE	T	Vch Auto Range
VCHOFFSETENABLE	TOGGLE	F	Vch Offset Enable
VCHOFFSET	QUANT	0	Vch Offset (V)
VCHFILTER	IQUANT	1	Vch Filter
ACHRANGE	IQUANT	2	Ach Range
ACHOFFSETENABLE	TOGGLE	F	Ach Offset Enable
ACHOFFSET	QUANT	0	Ach Offset (V)
ACHFILTER	IQUANT	1	Ach Filter
IERANGELOWERLIMIT	IQUANT	9	I/E Range Lower Limit
IERANGEMODE	TOGGLE	F	I/E AutoRange
IERANGE	IQUANT	9	I/E Range
POSFEEDENABLE	TOGGLE	F	Positive Feedback IR Comp
POSFEEDRESISTANCE	QUANT	0	Positive Feedback Resistance (ohm)
ACHSELECT	IQUANT	1	Ach Select
SENSECABLEID	IQUANT	13	Sense Cable ID
PWRCABLEID	IQUANT	13	Power Cable ID
DCCALDATE	LABEL		DC Calibration Date
ACCALDATE	LABEL		AC Calibration Date
THERMOSELECT	IQUANT	1	Thermo Select
FRAMEWORKVERSION	LABEL	7.8.6	Framework Version
INSTRUMENTVERSION	LABEL	4.50	Instrument Version
COMPLIANCEVOLTAGE	IQUANT	0	Compliance Voltage
CURVE	TABLE	48
	Pt	T	Vf	Im	Vu	Pwr	Sig	Ach	Temp	IERange	Over	Vf1	Vf2	Vf3	Vf4	Vf5	Vf6	Vf7	Vf8	Pwr1	Pwr2	Pwr3	Pwr4	Pwr5	Pwr6	Pwr7	Pwr8
	#	s	V	A	V	W	V	V	deg C	#	bits	V	V	V	V	V	V	V	V	W	W	W	W	W	W	W	W
	0	1	5.57219E-001	9.98381E-002	0.00000E+000	5.56317E-002	9.94000E-001	3.70741E-002	3.75065E+001	11	...........	6.14935E-002	-5.52069E-003	6.05476E-001	5.30997E-001	-2.70411E-002	-3.83929E-002	7.04149E-001	-4.40053E-002	6.13939E-003	-5.51176E-004	6.04496E-002	5.30138E-002	-2.69973E-003	-3.83308E-003	7.03009E-002	-4.39340E-003
	1	2	7.92285E-001	9.98381E-002	0.00000E+000	7.91003E-002	9.94000E-001	3.78479E-002	4.17213E+001	11	...........	6.27676E-002	-5.61153E-003	6.05497E-001	5.31073E-001	-2.70133E-002	-3.83708E-002	7.04108E-001	-4.39607E-002	6.26660E-003	-5.60244E-004	6.04517E-002	5.30213E-002	-2.69696E-003	-3.83087E-003	7.02969E-002	-4.38895E-003
	2	2.17167	1.05089E+000	9.98386E-002	0.00000E+000	1.04920E-001	9.94000E-001	3.88879E-002	4.68795E+001	11	...........	6.44595E-002	-5.79612E-003	6.05534E-001	5.31008E-001	-2.71262E-002	-3.83269E-002	7.04184E-001	-4.40591E-002	6.43555E-003	-5.78676E-004	6.04556E-002	5.30151E-002	-2.70824E-003	-3.82650E-003	7.03047E-002	-4.39879E-003
	3	3	1.10172E+000	6.56853E-002	0.00000E+000	7.23666E-002	6.54363E-001	3.80108E-002	4.71968E+001	11	...........	6.30216E-002	-5.75939E-003	6.05356E-001	5.30975E-001	-2.70158E-002	-3.83756E-002	7.04057E-001	-4.40436E-002	4.13960E-003	-3.78307E-004	3.97630E-002	3.48773E-002	-1.77454E-003	-2.52071E-003	4.62462E-002	-2.89302E-003
	4	4	1.10117E+000	4.66992E-002	0.00000E+000	5.14236E-002	4.65562E-001	3.78102E-002	4.59331E+001	11	...........	6.26946E-002	-5.61028E-003	6.05173E-001	5.31057E-001	-2.70110E-002	-3.83358E-002	7.04036E-001	-4.39499E-002	2.92778E-003	-2.61995E-004	2.82611E-002	2.47999E-002	-1.26139E-003	-1.79025E-003	3.28779E-002	-2.05242E-003
	5	5	1.10116E+000	4.07409E-002	0.00000E+000	4.48623E-002	4.06312E-001	3.79357E-002	4.52532E+001	11	...........	6.28893E-002	-5.49625E-003	6.05182E-001	5.31138E-001	-2.70482E-002	-3.83244E-002	7.04018E-001	-4.39561E-002	2.56217E-003	-2.23922E-004	2.46556E-002	2.16390E-002	-1.10197E-003	-1.56137E-003	2.86823E-002	-1.79081E-003
	6	6	1.10106E+000	3.78090E-002	0.00000E+000	4.16298E-002	3.77169E-001	3.78372E-002	4.40316E+001	11	...........	6.27283E-002	-5.49722E-003	6.05155E-001	5.31000E-001	-2.70533E-002	-3.83236E-002	7.04134E-001	-4.39435E-002	2.37169E-003	-2.07844E-004	2.28803E-002	2.00766E-002	-1.02286E-003	-1.44898E-003	2.66226E-002	-1.66146E-003
	7	7	1.10108E+000	3.59316E-002	0.00000E+000	3.95636E-002	3.58497E-001	3.76220E-002	4.43834E+001	11	...........	6.23708E-002	-5.40917E-003	6.05070E-001	5.30853E-001	-2.70478E-002	-3.83162E-002	7.04065E-001	-4.39708E-002	2.24109E-003	-1.94360E-004	2.17412E-002	1.90744E-002	-9.71871E-004	-1.37677E-003	2.52982E-002	-1.57994E-003
	8	8	1.10113E+000	3.43827E-002	0.00000E+000	3.78598E-002	3.43090E-001	3.80426E-002	4.44718E+001	11	...........	6.30582E-002	-5.36111E-003	6.05012E-001	5.30843E-001	-2.70379E-002	-3.83290E-002	7.03965E-001	-4.40797E-002	2.16811E-003	-1.84329E-004	2.08019E-002	1.82518E-002	-9.29636E-004	-1.31785E-003	2.42042E-002	-1.51558E-003
	9	9	1.10104E+000	3.33550E-002	0.00000E+000	3.67251E-002	3.32875E-001	3.76102E-002	4.44171E+001	11	...........	6.23653E-002	-5.37681E-003	6.04795E-001	5.30856E-001	-2.70314E-002	-3.83206E-002	7.03988E-001	-4.40476E-002	2.08019E-003	-1.79343E-004	2.01729E-002	1.77067E-002	-9.01631E-004	-1.27818E-003	2.34815E-002	-1.46921E-003
	10	10	1.10107E+000	3.26535E-002	0.00000E+000	3.59538E-002	3.25900E-001	3.79443E-002	4.54273E+001	11	...........	6.29308E-002	-5.52542E-003	6.04783E-001	5.30940E-001	-2.70336E-002	-3.83235E-002	7.04122E-001	-4.39300E-002	2.05491E-003	-1.80424E-004	1.97483E-002	1.73371E-002	-8.82743E-004	-1.25140E-003	2.29921E-002	-1.43447E-003
	11	11	1.10112E+000	3.18725E-002	0.00000E+000	3.50955E-002	3.18136E-001	3.76528E-002	4.19692E+001	11	...........	6.24580E-002	-5.44167E-003	6.04769E-001	5.30991E-001	-2.70278E-002	-3.83353E-002	7.04031E-001	-4.39461E-002	1.99069E-003	-1.73440E-004	1.92755E-002	1.69240E-002	-8.61443E-004	-1.22184E-003	2.24392E-002	-1.40067E-003
	12	12	1.10104E+000	3.14389E-002	0.00000E+000	3.46154E-002	3.13825E-001	3.78162E-002	4.35397E+001	11	...........	6.27225E-002	-5.42694E-003	6.04605E-001	5.31162E-001	-2.70160E-002	-3.83383E-002	7.03983E-001	-4.39361E-002	1.97193E-003	-1.70617E-004	1.90081E-002	1.66991E-002	-8.49353E-004	-1.20532E-003	2.21325E-002	-1.38130E-003
	13	13	1.10106E+000	3.11655E-002	0.00000E+000	3.43152E-002	3.11109E-001	3.77811E-002	4.48864E+001	11	...........	6.26283E-002	-5.55250E-003	6.04556E-001	5.30941E-001	-2.70175E-002	-3.83547E-002	7.04025E-001	-4.39257E-002	1.95184E-003	-1.73046E-004	1.88413E-002	1.65470E-002	-8.42013E-004	-1.19534E-003	2.19413E-002	-1.36897E-003
	14	14	1.10112E+000	3.06809E-002	0.00000E+000	3.37833E-002	3.06289E-001	3.77120E-002	4.35210E+001	11	...........	6.25621E-002	-5.44278E-003	6.04498E-001	5.30838E-001	-2.70442E-002	-3.83832E-002	7.04027E-001	-4.39221E-002	1.91946E-003	-1.66989E-004	1.85465E-002	1.62866E-002	-8.29739E-004	-1.17763E-003	2.16002E-002	-1.34757E-003
	15	15	1.10104E+000	3.04624E-002	0.00000E+000	3.35401E-002	3.04122E-001	3.77951E-002	4.34233E+001	11	...........	6.26686E-002	-5.43486E-003	6.04473E-001	5.30780E-001	-2.70546E-002	-3.83499E-002	7.04101E-001	-4.39642E-002	1.90903E-003	-1.65559E-004	1.84137E-002	1.61688E-002	-8.24146E-004	-1.16823E-003	2.14486E-002	-1.33925E-003
	16	16	1.10106E+000	3.03612E-002	0.00000E+000	3.34295E-002	3.03120E-001	3.75898E-002	4.41056E+001	11	...........	6.23042E-002	-5.46722E-003	6.04471E-001	5.30792E-001	-2.70793E-002	-3.83153E-002	7.03991E-001	-4.39263E-002	1.89163E-003	-1.65991E-004	1.83524E-002	1.61155E-002	-8.22160E-004	-1.16330E-003	2.13740E-002	-1.33365E-003
	17	17	1.10112E+000	3.00465E-002	0.00000E+000	3.30847E-002	2.99990E-001	3.77997E-002	4.46478E+001	11	...........	6.26985E-002	-5.42417E-003	6.04536E-001	5.30742E-001	-2.70882E-002	-3.83018E-002	7.03963E-001	-4.38986E-002	1.88387E-003	-1.62977E-004	1.81642E-002	1.59469E-002	-8.13905E-004	-1.15083E-003	2.11516E-002	-1.31900E-003
	18	18	1.10104E+000	2.98923E-002	0.00000E+000	3.29124E-002	2.98456E-001	3.77063E-002	4.36236E+001	11	...........	6.25544E-002	-5.37792E-003	6.04552E-001	5.30710E-001	-2.71000E-002	-3.83000E-002	7.04035E-001	-4.38561E-002	1.86989E-003	-1.60758E-004	1.80714E-002	1.58641E-002	-8.10080E-004	-1.14487E-003	2.10452E-002	-1.31096E-003
	19	19	1.10106E+000	2.98756E-002	0.00000E+000	3.28949E-002	2.98290E-001	3.76111E-002	4.29487E+001	11	...........	6.23951E-002	-5.40514E-003	6.04460E-001	5.30635E-001	-2.71060E-002	-3.82908E-002	7.04036E-001	-4.39037E-002	1.86409E-003	-1.61482E-004	1.80586E-002	1.58531E-002	-8.09808E-004	-1.14396E-003	2.10335E-002	-1.31165E-003
	20	20	1.10111E+000	2.96040E-002	0.00000E+000	3.25974E-002	2.95589E-001	3.73764E-002	4.21726E+001	11	...........	6.22222E-002	-5.41167E-003	6.04286E-001	5.30602E-001	-2.71090E-002	-3.82806E-002	7.04185E-001	-4.39089E-002	1.84203E-003	-1.60207E-004	1.78893E-002	1.57080E-002	-8.02537E-004	-1.13326E-003	2.08467E-002	-1.29988E-003
	21	21	1.10104E+000	2.95107E-002	0.00000E+000	3.24923E-002	2.94661E-001	3.73701E-002	4.34343E+001	11	...........	6.23515E-002	-5.37875E-003	6.04304E-001	5.30638E-001	-2.71215E-002	-3.82585E-002	7.04123E-001	-4.39874E-002	1.84003E-003	-1.58730E-004	1.78334E-002	1.56595E-002	-8.00374E-004	-1.12903E-003	2.07791E-002	-1.29810E-003
	22	22	1.10106E+000	2.94907E-002	0.00000E+000	3.24710E-002	2.94467E-001	3.73373E-002	4.38064E+001	11	...........	6.22964E-002	-5.30431E-003	6.04224E-001	5.30514E-001	-2.71353E-002	-3.82629E-002	7.04212E-001	-4.40704E-002	1.83716E-003	-1.56428E-004	1.78190E-002	1.56452E-002	-8.00237E-004	-1.12840E-003	2.07677E-002	-1.29967E-003
	23	23	1.10111E+000	2.92807E-002	0.00000E+000	3.22414E-002	2.92382E-001	3.73783E-002	4.07576E+001	11	...........	6.23506E-002	-5.38278E-003	6.04031E-001	5.30683E-001	-2.71444E-002	-3.82507E-002	7.04256E-001	-4.40642E-002	1.82567E-003	-1.57612E-004	1.76865E-002	1.55388E-002	-7.94808E-004	-1.12001E-003	2.06211E-002	-1.29023E-003
	24	24	1.10104E+000	2.92044E-002	0.00000E+000	3.21551E-002	2.91626E-001	3.73572E-002	4.24849E+001	11	...........	6.23328E-002	-5.28694E-003	6.03851E-001	5.30730E-001	-2.71808E-002	-3.82533E-002	7.04292E-001	-4.39758E-002	1.82039E-003	-1.54402E-004	1.76351E-002	1.54996E-002	-7.93799E-004	-1.11716E-003	2.05684E-002	-1.28429E-003
	25	25	1.10106E+000	2.92135E-002	0.00000E+000	3.21657E-002	2.91717E-001	3.73027E-002	4.31199E+001	11	...........	6.22511E-002	-5.26153E-003	6.03820E-001	5.30853E-001	-2.71568E-002	-3.82637E-002	7.04308E-001	-4.39790E-002	1.81857E-003	-1.53708E-004	1.76397E-002	1.55081E-002	-7.93346E-004	-1.11782E-003	2.05753E-002	-1.28478E-003
	26	26	1.10111E+000	2.90199E-002	0.00000E+000	3.19543E-002	2.89801E-001	3.73277E-002	4.24403E+001	11	...........	6.22914E-002	-5.24639E-003	6.03635E-001	5.30783E-001	-2.71367E-002	-3.82617E-002	7.04269E-001	-4.39793E-002	1.80769E-003	-1.52250E-004	1.75174E-002	1.54033E-002	-7.87504E-004	-1.11035E-003	2.04378E-002	-1.27628E-003
	27	27	1.10104E+000	2.89263E-002	0.00000E+000	3.18490E-002	2.88872E-001	3.72858E-002	4.22626E+001	11	...........	6.22167E-002	-5.25833E-003	6.03666E-001	5.30807E-001	-2.71147E-002	-3.82504E-002	7.04176E-001	-4.40664E-002	1.79970E-003	-1.52104E-004	1.74618E-002	1.53543E-002	-7.84329E-004	-1.10644E-003	2.03692E-002	-1.27468E-003
	28	28	1.10106E+000	2.89692E-002	0.00000E+000	3.18967E-002	2.89298E-001	3.73160E-002	4.24770E+001	11	...........	6.22592E-002	-5.26764E-003	6.03699E-001	5.30926E-001	-2.70928E-002	-3.82779E-002	7.04178E-001	-4.41010E-002	1.80360E-003	-1.52599E-004	1.74887E-002	1.53805E-002	-7.84856E-004	-1.10888E-003	2.03995E-002	-1.27757E-003
	29	29	1.10111E+000	2.87819E-002	0.00000E+000	3.16922E-002	2.87435E-001	3.72222E-002	4.33444E+001	11	...........	6.20801E-002	-5.29972E-003	6.03700E-001	5.31031E-001	-2.71062E-002	-3.82753E-002	7.04231E-001	-4.39544E-002	1.78679E-003	-1.52536E-004	1.73757E-002	1.52841E-002	-7.80170E-004	-1.10164E-003	2.02691E-002	-1.26509E-003
	30	30	1.10104E+000	2.86968E-002	0.00000E+000	3.15963E-002	2.86589E-001	3.73169E-002	4.31015E+001	11	...........	6.22708E-002	-5.39278E-003	6.03870E-001	5.31037E-001	-2.71228E-002	-3.82708E-002	7.04219E-001	-4.40164E-002	1.78697E-003	-1.54755E-004	1.73291E-002	1.52391E-002	-7.78336E-004	-1.09825E-003	2.02088E-002	-1.26313E-003
	31	31	1.10106E+000	2.87455E-002	0.00000E+000	3.16504E-002	2.87070E-001	3.72353E-002	4.34451E+001	11	...........	6.21340E-002	-5.34361E-003	6.03981E-001	5.30946E-001	-2.71322E-002	-3.82854E-002	7.04216E-001	-4.40208E-002	1.78607E-003	-1.53605E-004	1.73617E-002	1.52623E-002	-7.79929E-004	-1.10053E-003	2.02430E-002	-1.26540E-003
	32	32	1.10111E+000	2.85722E-002	0.00000E+000	3.14612E-002	2.85348E-001	3.72081E-002	4.38859E+001	11	...........	6.20992E-002	-5.31972E-003	6.04095E-001	5.30911E-001	-2.71071E-002	-3.82815E-002	7.04234E-001	-4.39618E-002	1.77431E-003	-1.51996E-004	1.72603E-002	1.51693E-002	-7.74509E-004	-1.09379E-003	2.01215E-002	-1.25609E-003
	33	33	1.10104E+000	2.84686E-002	0.00000E+000	3.13451E-002	2.84318E-001	3.72019E-002	4.39011E+001	11	...........	6.20929E-002	-5.34167E-003	6.04178E-001	5.30883E-001	-2.71279E-002	-3.83006E-002	7.04217E-001	-4.39586E-002	1.76770E-003	-1.52070E-004	1.72001E-002	1.51135E-002	-7.72294E-004	-1.09036E-003	2.00481E-002	-1.25144E-003
	34	34	1.10106E+000	2.85109E-002	0.00000E+000	3.13921E-002	2.84739E-001	3.71733E-002	4.29185E+001	11	...........	6.20292E-002	-5.31306E-003	6.04204E-001	5.30928E-001	-2.71244E-002	-3.83067E-002	7.04132E-001	-4.38628E-002	1.76851E-003	-1.51480E-004	1.72264E-002	1.51373E-002	-7.73343E-004	-1.09216E-003	2.00755E-002	-1.25057E-003
	35	35	1.10111E+000	2.83594E-002	0.00000E+000	3.12269E-002	2.83230E-001	3.69654E-002	4.23193E+001	11	...........	6.16824E-002	-5.23389E-003	6.04114E-001	5.31031E-001	-2.71078E-002	-3.82958E-002	7.04228E-001	-4.38374E-002	1.74927E-003	-1.48430E-004	1.71323E-002	1.50597E-002	-7.68760E-004	-1.08605E-003	1.99715E-002	-1.24320E-003
	36	36	1.10104E+000	2.82703E-002	0.00000E+000	3.11267E-002	2.82340E-001	3.73333E-002	4.36365E+001	11	...........	6.23121E-002	-5.34528E-003	6.04005E-001	5.31055E-001	-2.71083E-002	-3.83006E-002	7.04213E-001	-4.39214E-002	1.76158E-003	-1.51112E-004	1.70754E-002	1.50131E-002	-7.66360E-004	-1.08277E-003	1.99083E-002	-1.24167E-003
	37	37	1.10106E+000	2.83264E-002	0.00000E+000	3.11890E-002	2.82896E-001	3.70328E-002	4.30236E+001	11	...........	6.17815E-002	-5.36944E-003	6.03841E-001	5.31127E-001	-2.70933E-002	-3.82969E-002	7.04221E-001	-4.38985E-002	1.75005E-003	-1.52097E-004	1.71046E-002	1.50449E-002	-7.67457E-004	-1.08482E-003	1.99481E-002	-1.24349E-003
	38	38	1.10111E+000	2.81764E-002	0.00000E+000	3.10254E-002	2.81408E-001	3.72352E-002	4.38320E+001	11	...........	6.21200E-002	-5.44181E-003	6.03994E-001	5.31074E-001	-2.71210E-002	-3.82921E-002	7.04244E-001	-4.38953E-002	1.75032E-003	-1.53331E-004	1.70184E-002	1.49638E-002	-7.64172E-004	-1.07893E-003	1.98431E-002	-1.23681E-003
	39	39	1.10104E+000	2.80437E-002	0.00000E+000	3.08773E-002	2.80088E-001	3.70818E-002	4.27153E+001	11	...........	6.18761E-002	-5.41028E-003	6.04040E-001	5.31107E-001	-2.71185E-002	-3.82792E-002	7.04218E-001	-4.38231E-002	1.73523E-003	-1.51724E-004	1.69395E-002	1.48942E-002	-7.60501E-004	-1.07349E-003	1.97489E-002	-1.22896E-003
	40	40	1.10105E+000	2.81129E-002	0.00000E+000	3.09538E-002	2.80780E-001	3.69236E-002	4.28052E+001	11	...........	6.16182E-002	-5.19500E-003	6.04022E-001	5.31140E-001	-2.71078E-002	-3.82608E-002	7.04272E-001	-4.38279E-002	1.73226E-003	-1.46046E-004	1.69808E-002	1.49319E-002	-7.62077E-004	-1.07562E-003	1.97991E-002	-1.23213E-003
	41	41	1.10111E+000	2.80002E-002	0.00000E+000	3.08313E-002	2.79667E-001	3.72480E-002	4.39475E+001	11	...........	6.21700E-002	-5.18972E-003	6.04101E-001	5.31108E-001	-2.71358E-002	-3.82387E-002	7.04328E-001	-4.39128E-002	1.74077E-003	-1.45313E-004	1.69150E-002	1.48711E-002	-7.59809E-004	-1.07069E-003	1.97213E-002	-1.22957E-003
	42	42	1.10104E+000	2.78704E-002	0.00000E+000	3.06865E-002	2.78375E-001	3.69861E-002	4.25902E+001	11	...........	6.17206E-002	-5.25264E-003	6.04136E-001	5.31150E-001	-2.71460E-002	-3.82542E-002	7.04355E-001	-4.38743E-002	1.72018E-003	-1.46393E-004	1.68375E-002	1.48033E-002	-7.56569E-004	-1.06616E-003	1.96306E-002	-1.22279E-003
	43	43	1.10105E+000	2.79419E-002	0.00000E+000	3.07656E-002	2.79084E-001	3.70377E-002	4.38696E+001	11	...........	6.18156E-002	-5.26181E-003	6.04271E-001	5.31199E-001	-2.71365E-002	-3.82426E-002	7.04259E-001	-4.37872E-002	1.72725E-003	-1.47025E-004	1.68845E-002	1.48427E-002	-7.58247E-004	-1.06857E-003	1.96784E-002	-1.22350E-003
	44	44	1.10111E+000	2.77804E-002	0.00000E+000	3.05892E-002	2.77477E-001	3.70917E-002	4.31484E+001	11	...........	6.19089E-002	-5.37806E-003	6.04266E-001	5.31136E-001	-2.71232E-002	-3.82447E-002	7.04237E-001	-4.39372E-002	1.71985E-003	-1.49405E-004	1.67867E-002	1.47552E-002	-7.53493E-004	-1.06245E-003	1.95640E-002	-1.22059E-003
	45	45	1.10105E+000	2.76935E-002	0.00000E+000	3.04918E-002	2.76610E-001	3.69219E-002	4.19857E+001	11	...........	6.16110E-002	-5.42583E-003	6.04326E-001	5.31020E-001	-2.71251E-002	-3.82137E-002	7.04173E-001	-4.39161E-002	1.70622E-003	-1.50260E-004	1.67359E-002	1.47058E-002	-7.51189E-004	-1.05827E-003	1.95010E-002	-1.21619E-003
	46	46	1.10105E+000	2.77458E-002	0.00000E+000	3.05496E-002	2.77131E-001	3.70722E-002	4.27432E+001	11	...........	6.18775E-002	-5.38458E-003	6.04419E-001	5.30883E-001	-2.71324E-002	-3.82243E-002	7.04138E-001	-4.39628E-002	1.71684E-003	-1.49400E-004	1.67701E-002	1.47298E-002	-7.52809E-004	-1.06056E-003	1.95369E-002	-1.21978E-003
	47	46.635	1.10114E+000	2.75960E-002	0.00000E+000	3.03870E-002	2.75637E-001	3.69739E-002	4.23405E+001	11	...........	6.17008E-002	-5.40857E-003	6.04369E-001	5.30807E-001	-2.71264E-002	-3.82176E-002	7.04095E-001	-4.40116E-002	1.70269E-003	-1.49255E-004	1.66781E-002	1.46481E-002	-7.48580E-004	-1.05465E-003	1.94302E-002	-1.21454E-003
STARTTIMEOFFSET	QUANT	990727	Start Time Offset (s)
