EXPLAIN
TAG	PWR800_CHARGE
TITLE	LABEL	PWR Charge	Test Identifier
DATE	LABEL	10/16/2022	Date
TIME	LABEL	5:53:44	Time
NOTES	NOTES	1	Notes...
	
PSTAT	PSTAT	REF3000-21114	Potentiostat
CAPACITY	QUANT	5.30000E-002	Capacity (A-hr)
CELLTYPE	SELECTOR	1	Cell Type
WORKINGCONNECTION	SELECTOR	0	Working Connection
MAXCHARGETIME	VARIABLEANDUNITS	7.20000E+003	s	2.00000E+000	hour(s)	Max Charge Time
CHARGEMODE	MULTIPARAM	0	1.00000E-001	Charge Mode	Constant Current	Amp(s)
CHARGECURRENT	QUANT	0.1	Charge Current (A)
VOLTAGEFINISH	TWOPARAM	T	2.50000E-002	7.20000E+003	Voltage Finish	I (A) <	Max Time(s)
SAMPLETIME	QUANT	1.00000E+000	Sample Period (s)
CHARGESTOPAT1	MULTIPARAM	2	1.10000E+000	Stop At 1	|Voltage| > Limit	V
CHARGESTOPAT2	MULTIPARAM	0	0.00000E+000	Stop At 2	None	N/A
AESELECTOR	AESELECTOR	0x1	T	Set Limits	AE Channels
AESBHCSELECTOR	TOGGLE	F	Save Both Half Cells
IRCOMP	TOGGLE	F	IR Measure
EOC	QUANT	0.2770497	Open Circuit (V)
SEQUENCER	TOGGLE	TRUE	Run as Sequence
PSTATMODEL	IQUANT	5	Pstat Model
PSTATSECTION	LABEL	REF3000-21114	Pstat Section
PSTATSERIALNO	LABEL	21114	Pstat Serial Number
CTRLMODE	IQUANT	0	Control Mode
ELECTROMETER	IQUANT	0	RE=0 or CS=1
IESTAB	IQUANT	0	I/E Stability
CASPEED	IQUANT	4	Control Amp Speed
CONVENTION	IQUANT	1	Current Convention
ICHRANGE	IQUANT	2	Ich Range
ICHRANGEMODE	TOGGLE	T	Ich Auto Range
ICHOFFSETENABLE	TOGGLE	F	Ich Offset Enable
ICHOFFSET	QUANT	0	Ich Offset (V)
ICHFILTER	IQUANT	1	Ich Filter
VCHRANGE	IQUANT	3	Vch Range
VCHRANGEMODE	TOGGLE	T	Vch Auto Range
VCHOFFSETENABLE	TOGGLE	F	Vch Offset Enable
VCHOFFSET	QUANT	0	Vch Offset (V)
VCHFILTER	IQUANT	1	Vch Filter
ACHRANGE	IQUANT	2	Ach Range
ACHOFFSETENABLE	TOGGLE	F	Ach Offset Enable
ACHOFFSET	QUANT	0	Ach Offset (V)
ACHFILTER	IQUANT	1	Ach Filter
IERANGELOWERLIMIT	IQUANT	9	I/E Range Lower Limit
IERANGEMODE	TOGGLE	F	I/E AutoRange
IERANGE	IQUANT	9	I/E Range
POSFEEDENABLE	TOGGLE	F	Positive Feedback IR Comp
POSFEEDRESISTANCE	QUANT	0	Positive Feedback Resistance (ohm)
ACHSELECT	IQUANT	1	Ach Select
SENSECABLEID	IQUANT	13	Sense Cable ID
PWRCABLEID	IQUANT	13	Power Cable ID
DCCALDATE	LABEL		DC Calibration Date
ACCALDATE	LABEL		AC Calibration Date
THERMOSELECT	IQUANT	1	Thermo Select
FRAMEWORKVERSION	LABEL	7.8.6	Framework Version
INSTRUMENTVERSION	LABEL	4.50	Instrument Version
COMPLIANCEVOLTAGE	IQUANT	0	Compliance Voltage
CURVE	TABLE	65
	Pt	T	Vf	Im	Vu	Pwr	Sig	Ach	Temp	IERange	Over	Vf1	Vf2	Vf3	Vf4	Vf5	Vf6	Vf7	Vf8	Pwr1	Pwr2	Pwr3	Pwr4	Pwr5	Pwr6	Pwr7	Pwr8
	#	s	V	A	V	W	V	V	deg C	#	bits	V	V	V	V	V	V	V	V	W	W	W	W	W	W	W	W
	0	1	5.70072E-001	9.98442E-002	0.00000E+000	5.69184E-002	9.94000E-001	3.84232E-002	4.07978E+001	11	...........	6.38254E-002	-4.43917E-003	5.76524E-001	6.16485E-001	-2.90669E-002	-3.88611E-002	6.66059E-001	-4.33932E-002	6.37259E-003	-4.43225E-004	5.75626E-002	6.15525E-002	-2.90216E-003	-3.88005E-003	6.65021E-002	-4.33256E-003
	1	2	8.23946E-001	9.98446E-002	0.00000E+000	8.22665E-002	9.94000E-001	3.87628E-002	4.42251E+001	11	...........	6.43851E-002	-4.50000E-003	5.76649E-001	6.16441E-001	-2.90746E-002	-3.88760E-002	6.66125E-001	-4.33011E-002	6.42851E-003	-4.49301E-004	5.75753E-002	6.15482E-002	-2.90294E-003	-3.88155E-003	6.65089E-002	-4.32338E-003
	2	2.07833	1.08215E+000	9.98454E-002	0.00000E+000	1.08047E-001	9.94000E-001	3.95755E-002	4.86405E+001	11	...........	6.55319E-002	-4.58511E-003	5.76789E-001	6.16346E-001	-2.91064E-002	-3.88599E-002	6.66119E-001	-4.32305E-002	6.54306E-003	-4.57802E-004	5.75897E-002	6.15393E-002	-2.90614E-003	-3.87999E-003	6.65089E-002	-4.31637E-003
	3	3	1.10118E+000	6.35616E-002	0.00000E+000	6.99926E-002	6.33211E-001	3.90971E-002	4.83966E+001	11	...........	6.49310E-002	-4.55093E-003	5.76882E-001	6.16371E-001	-2.90556E-002	-3.89007E-002	6.66079E-001	-4.32161E-002	4.12712E-003	-2.89265E-004	3.66675E-002	3.91775E-002	-1.84682E-003	-2.47259E-003	4.23371E-002	-2.74688E-003
	4	4	1.10068E+000	4.66520E-002	0.00000E+000	5.13490E-002	4.65076E-001	3.86924E-002	4.70040E+001	11	...........	6.42600E-002	-4.44833E-003	5.76980E-001	6.16491E-001	-2.90746E-002	-3.89035E-002	6.66062E-001	-4.32460E-002	2.99786E-003	-2.07524E-004	2.69172E-002	2.87605E-002	-1.35639E-003	-1.81492E-003	3.10731E-002	-2.01751E-003
	5	5	1.10064E+000	4.14077E-002	0.00000E+000	4.55752E-002	4.12927E-001	3.87112E-002	4.75875E+001	11	...........	6.43099E-002	-4.38403E-003	5.77012E-001	6.16486E-001	-2.90746E-002	-3.88903E-002	6.65951E-001	-4.32264E-002	2.66292E-003	-1.81533E-004	2.38928E-002	2.55273E-002	-1.20391E-003	-1.61036E-003	2.75755E-002	-1.78991E-003
	6	6	1.10056E+000	3.88599E-002	0.00000E+000	4.27675E-002	3.87602E-001	3.88127E-002	4.69400E+001	11	...........	6.44694E-002	-4.37611E-003	5.76998E-001	6.16383E-001	-2.90793E-002	-3.88943E-002	6.66037E-001	-4.33131E-002	2.50528E-003	-1.70055E-004	2.24221E-002	2.39526E-002	-1.13002E-003	-1.51143E-003	2.58822E-002	-1.68314E-003
	7	7	1.10061E+000	3.71448E-002	0.00000E+000	4.08819E-002	3.70546E-001	3.88300E-002	4.59391E+001	11	...........	6.45122E-002	-4.24194E-003	5.76938E-001	6.16320E-001	-2.90885E-002	-3.88814E-002	6.65984E-001	-4.33181E-002	2.39629E-003	-1.57566E-004	2.14302E-002	2.28931E-002	-1.08048E-003	-1.44424E-003	2.47378E-002	-1.60904E-003
	8	8	1.10062E+000	3.56391E-002	0.00000E+000	3.92250E-002	3.55572E-001	3.86486E-002	4.74510E+001	11	...........	6.41874E-002	-4.23042E-003	5.76845E-001	6.16366E-001	-2.90982E-002	-3.88904E-002	6.65933E-001	-4.33185E-002	2.28758E-003	-1.50768E-004	2.05582E-002	2.19667E-002	-1.03703E-003	-1.38602E-003	2.37333E-002	-1.54383E-003
	9	9	1.10054E+000	3.48311E-002	0.00000E+000	3.83330E-002	3.47539E-001	3.86958E-002	4.59662E+001	11	...........	6.42772E-002	-4.26014E-003	5.76860E-001	6.16332E-001	-2.90947E-002	-3.88690E-002	6.65952E-001	-4.32925E-002	2.23885E-003	-1.48385E-004	2.00927E-002	2.14676E-002	-1.01340E-003	-1.35385E-003	2.31958E-002	-1.50793E-003
	10	10	1.10059E+000	3.42215E-002	0.00000E+000	3.76639E-002	3.41477E-001	3.83903E-002	4.43579E+001	11	...........	6.37643E-002	-4.13708E-003	5.76677E-001	6.16483E-001	-2.91194E-002	-3.88537E-002	6.65929E-001	-4.31571E-002	2.18211E-003	-1.41577E-004	1.97347E-002	2.10969E-002	-9.96510E-004	-1.32963E-003	2.27891E-002	-1.47690E-003
	11	11	1.10062E+000	3.34842E-002	0.00000E+000	3.68532E-002	3.34150E-001	3.89542E-002	4.42938E+001	11	...........	6.47015E-002	-4.16667E-003	5.76814E-001	6.16567E-001	-2.90989E-002	-3.88553E-002	6.66018E-001	-4.31253E-002	2.16648E-003	-1.39517E-004	1.93141E-002	2.06453E-002	-9.74352E-004	-1.30104E-003	2.23011E-002	-1.44401E-003
	12	12	1.10054E+000	3.31668E-002	0.00000E+000	3.65013E-002	3.30990E-001	3.86235E-002	4.58636E+001	11	...........	6.41460E-002	-4.17097E-003	5.76701E-001	6.16566E-001	-2.90937E-002	-3.88581E-002	6.66024E-001	-4.31712E-002	2.12752E-003	-1.38338E-004	1.91274E-002	2.04496E-002	-9.64948E-004	-1.28880E-003	2.20899E-002	-1.43185E-003
	13	13	1.10059E+000	3.29491E-002	0.00000E+000	3.62633E-002	3.28828E-001	3.88380E-002	4.59852E+001	11	...........	6.45200E-002	-4.24264E-003	5.76871E-001	6.16554E-001	-2.90992E-002	-3.88439E-002	6.66084E-001	-4.31443E-002	2.12587E-003	-1.39791E-004	1.90073E-002	2.03149E-002	-9.58790E-004	-1.27987E-003	2.19468E-002	-1.42156E-003
	14	14	1.10062E+000	3.24250E-002	0.00000E+000	3.56874E-002	3.23619E-001	3.86525E-002	4.49809E+001	11	...........	6.42068E-002	-4.39292E-003	5.76823E-001	6.16314E-001	-2.91279E-002	-3.88497E-002	6.66110E-001	-4.31664E-002	2.08191E-003	-1.42440E-004	1.87035E-002	1.99840E-002	-9.44473E-004	-1.25970E-003	2.15986E-002	-1.39967E-003
	15	15	1.10053E+000	3.23579E-002	0.00000E+000	3.56110E-002	3.22953E-001	3.86867E-002	4.59669E+001	11	...........	6.42515E-002	-4.27097E-003	5.76840E-001	6.16404E-001	-2.91258E-002	-3.88607E-002	6.65893E-001	-4.32290E-002	2.07905E-003	-1.38200E-004	1.86653E-002	1.99456E-002	-9.42452E-004	-1.25745E-003	2.15469E-002	-1.39880E-003
	16	16	1.10058E+000	3.22408E-002	0.00000E+000	3.54837E-002	3.21787E-001	3.85577E-002	4.56060E+001	11	...........	6.40363E-002	-4.28056E-003	5.76850E-001	6.16421E-001	-2.91010E-002	-3.88571E-002	6.65806E-001	-4.31601E-002	2.06458E-003	-1.38009E-004	1.85981E-002	1.98739E-002	-9.38240E-004	-1.25279E-003	2.14661E-002	-1.39152E-003
	17	17	1.10062E+000	3.18536E-002	0.00000E+000	3.50586E-002	3.17935E-001	3.87039E-002	4.50656E+001	11	...........	6.42869E-002	-4.21778E-003	5.76837E-001	6.16179E-001	-2.91175E-002	-3.88682E-002	6.65799E-001	-4.31582E-002	2.04777E-003	-1.34351E-004	1.83743E-002	1.96275E-002	-9.27496E-004	-1.23809E-003	2.12081E-002	-1.37474E-003
	18	18	1.10053E+000	3.18278E-002	0.00000E+000	3.50276E-002	3.17677E-001	3.85411E-002	4.65533E+001	11	...........	6.40018E-002	-4.22375E-003	5.76683E-001	6.16253E-001	-2.90962E-002	-3.88775E-002	6.65819E-001	-4.31415E-002	2.03704E-003	-1.34433E-004	1.83546E-002	1.96140E-002	-9.26071E-004	-1.23739E-003	2.11916E-002	-1.37310E-003
	19	19	1.10058E+000	3.17799E-002	0.00000E+000	3.49763E-002	3.17201E-001	3.86058E-002	4.48296E+001	11	...........	6.41015E-002	-4.21931E-003	5.76564E-001	6.16477E-001	-2.91012E-002	-3.88879E-002	6.65694E-001	-4.31251E-002	2.03714E-003	-1.34089E-004	1.83231E-002	1.95916E-002	-9.24834E-004	-1.23585E-003	2.11557E-002	-1.37051E-003
	20	20	1.10062E+000	3.14170E-002	0.00000E+000	3.45782E-002	3.13599E-001	3.82012E-002	4.47904E+001	11	...........	6.36593E-002	-4.17931E-003	5.76578E-001	6.16486E-001	-2.91075E-002	-3.89111E-002	6.65719E-001	-4.31889E-002	1.99999E-003	-1.31301E-004	1.81144E-002	1.93682E-002	-9.14471E-004	-1.22247E-003	2.09149E-002	-1.35687E-003
	21	21	1.10053E+000	3.14589E-002	0.00000E+000	3.46216E-002	3.14012E-001	3.86021E-002	4.65999E+001	11	...........	6.44793E-002	-4.26194E-003	5.76687E-001	6.16617E-001	-2.91349E-002	-3.89246E-002	6.65762E-001	-4.33081E-002	2.02845E-003	-1.34076E-004	1.81420E-002	1.93981E-002	-9.16552E-004	-1.22453E-003	2.09442E-002	-1.36243E-003
	22	22	1.10058E+000	3.14415E-002	0.00000E+000	3.46037E-002	3.13842E-001	3.83356E-002	4.55359E+001	11	...........	6.40118E-002	-4.30292E-003	5.76917E-001	6.16797E-001	-2.91390E-002	-3.89174E-002	6.65678E-001	-4.32281E-002	2.01263E-003	-1.35290E-004	1.81391E-002	1.93930E-002	-9.16174E-004	-1.22362E-003	2.09299E-002	-1.35915E-003
	23	23	1.10062E+000	3.11238E-002	0.00000E+000	3.42555E-002	3.10685E-001	3.81585E-002	4.45514E+001	11	...........	6.37122E-002	-4.19361E-003	5.77000E-001	6.16836E-001	-2.91494E-002	-3.88971E-002	6.65613E-001	-4.32379E-002	1.98296E-003	-1.30521E-004	1.79584E-002	1.91983E-002	-9.07240E-004	-1.21062E-003	2.07164E-002	-1.34573E-003
	24	24	1.10053E+000	3.11335E-002	0.00000E+000	3.42634E-002	3.10782E-001	3.83081E-002	4.57558E+001	11	...........	6.39689E-002	-4.11569E-003	5.77113E-001	6.16764E-001	-2.91257E-002	-3.89101E-002	6.65815E-001	-4.32322E-002	1.99158E-003	-1.28136E-004	1.79676E-002	1.92020E-002	-9.06785E-004	-1.21141E-003	2.07292E-002	-1.34597E-003
	25	25	1.10057E+000	3.11325E-002	0.00000E+000	3.42636E-002	3.10776E-001	3.83024E-002	4.40482E+001	11	...........	6.39399E-002	-4.15667E-003	5.77399E-001	6.16755E-001	-2.90919E-002	-3.88925E-002	6.65816E-001	-4.32151E-002	1.99061E-003	-1.29408E-004	1.79759E-002	1.92011E-002	-9.05706E-004	-1.21082E-003	2.07285E-002	-1.34540E-003
	26	26	1.10062E+000	3.08417E-002	0.00000E+000	3.39451E-002	3.07882E-001	3.83267E-002	4.56576E+001	11	...........	6.39792E-002	-4.07653E-003	5.77591E-001	6.16857E-001	-2.90979E-002	-3.89200E-002	6.65812E-001	-4.32086E-002	1.97323E-003	-1.25727E-004	1.78139E-002	1.90249E-002	-8.97429E-004	-1.20036E-003	2.05348E-002	-1.33263E-003
	27	27	1.10053E+000	3.08651E-002	0.00000E+000	3.39681E-002	3.08116E-001	3.82248E-002	4.57893E+001	11	...........	6.38199E-002	-4.12431E-003	5.77608E-001	6.16849E-001	-2.90958E-002	-3.89375E-002	6.65877E-001	-4.31981E-002	1.96981E-003	-1.27297E-004	1.78280E-002	1.90391E-002	-8.98047E-004	-1.20181E-003	2.05524E-002	-1.33331E-003
	28	28	1.10057E+000	3.08737E-002	0.00000E+000	3.39787E-002	3.08200E-001	3.82047E-002	4.54301E+001	11	...........	6.37982E-002	-4.21944E-003	5.77535E-001	6.16869E-001	-2.90919E-002	-3.89210E-002	6.65872E-001	-4.31496E-002	1.96968E-003	-1.30270E-004	1.78306E-002	1.90450E-002	-8.98175E-004	-1.20163E-003	2.05579E-002	-1.33219E-003
	29	29	1.10062E+000	3.05732E-002	0.00000E+000	3.36496E-002	3.05210E-001	3.81795E-002	4.64314E+001	11	...........	6.37546E-002	-4.26250E-003	5.77561E-001	6.17039E-001	-2.91103E-002	-3.89551E-002	6.65830E-001	-4.31472E-002	1.94918E-003	-1.30318E-004	1.76579E-002	1.88649E-002	-8.89995E-004	-1.19098E-003	2.03566E-002	-1.31915E-003
	30	30	1.10053E+000	3.05780E-002	0.00000E+000	3.36520E-002	3.05259E-001	3.82214E-002	4.52176E+001	11	...........	6.38251E-002	-4.22667E-003	5.77465E-001	6.16993E-001	-2.90892E-002	-3.89456E-002	6.65770E-001	-4.31732E-002	1.95164E-003	-1.29243E-004	1.76577E-002	1.88664E-002	-8.89488E-004	-1.19088E-003	2.03579E-002	-1.32015E-003
	31	31	1.10057E+000	3.06010E-002	0.00000E+000	3.36785E-002	3.05492E-001	3.81043E-002	4.55414E+001	11	...........	6.36286E-002	-4.23903E-003	5.77464E-001	6.16885E-001	-2.90915E-002	-3.89496E-002	6.65685E-001	-4.31447E-002	1.94710E-003	-1.29718E-004	1.76709E-002	1.88773E-002	-8.90228E-004	-1.19189E-003	2.03706E-002	-1.32027E-003
	32	32	1.10063E+000	3.03454E-002	0.00000E+000	3.33990E-002	3.02946E-001	3.80630E-002	4.49766E+001	11	...........	6.35639E-002	-4.28903E-003	5.77468E-001	6.16993E-001	-2.91057E-002	-3.89617E-002	6.65670E-001	-4.31487E-002	1.92887E-003	-1.30152E-004	1.75235E-002	1.87229E-002	-8.83225E-004	-1.18231E-003	2.02001E-002	-1.30937E-003
	33	33	1.10053E+000	3.03547E-002	0.00000E+000	3.34063E-002	3.03036E-001	3.81873E-002	4.59140E+001	11	...........	6.37725E-002	-4.13903E-003	5.77362E-001	6.16997E-001	-2.90925E-002	-3.89646E-002	6.65746E-001	-4.31443E-002	1.93580E-003	-1.25639E-004	1.75257E-002	1.87288E-002	-8.83094E-004	-1.18276E-003	2.02085E-002	-1.30963E-003
	34	34	1.10057E+000	3.03816E-002	0.00000E+000	3.34370E-002	3.03305E-001	3.79622E-002	4.58983E+001	11	...........	6.33974E-002	-4.20292E-003	5.77217E-001	6.16947E-001	-2.90817E-002	-3.89358E-002	6.65864E-001	-4.31211E-002	1.92611E-003	-1.27691E-004	1.75368E-002	1.87438E-002	-8.83547E-004	-1.18293E-003	2.02300E-002	-1.31009E-003
	35	35	1.10063E+000	3.01234E-002	0.00000E+000	3.31547E-002	3.00738E-001	3.82112E-002	4.62929E+001	11	...........	6.38124E-002	-4.24194E-003	5.77259E-001	6.17020E-001	-2.90765E-002	-3.89649E-002	6.65737E-001	-4.30978E-002	1.92224E-003	-1.27782E-004	1.73890E-002	1.85867E-002	-8.75883E-004	-1.17375E-003	2.00543E-002	-1.29825E-003
	36	36	1.10053E+000	3.01026E-002	0.00000E+000	3.31288E-002	3.00534E-001	3.81392E-002	4.46015E+001	11	...........	6.36732E-002	-4.28431E-003	5.77312E-001	6.17039E-001	-2.90603E-002	-3.89839E-002	6.65699E-001	-4.32590E-002	1.91673E-003	-1.28969E-004	1.73786E-002	1.85745E-002	-8.74789E-004	-1.17351E-003	2.00392E-002	-1.30221E-003
	37	37	1.10057E+000	3.01445E-002	0.00000E+000	3.31760E-002	3.00950E-001	3.78856E-002	4.51487E+001	11	...........	6.32587E-002	-4.29472E-003	5.77164E-001	6.16929E-001	-2.90456E-002	-3.89860E-002	6.65716E-001	-4.32397E-002	1.90690E-003	-1.29462E-004	1.73983E-002	1.85970E-002	-8.75565E-004	-1.17521E-003	2.00677E-002	-1.30344E-003
	38	38	1.10063E+000	2.99045E-002	0.00000E+000	3.29138E-002	2.98565E-001	3.80438E-002	4.55220E+001	11	...........	6.35450E-002	-4.34542E-003	5.77293E-001	6.16881E-001	-2.90597E-002	-3.89749E-002	6.65790E-001	-4.33222E-002	1.90028E-003	-1.29947E-004	1.72636E-002	1.84475E-002	-8.69015E-004	-1.16552E-003	1.99101E-002	-1.29553E-003
	39	39	1.10053E+000	2.98643E-002	0.00000E+000	3.28666E-002	2.98164E-001	3.82127E-002	4.55514E+001	11	...........	6.37999E-002	-4.26000E-003	5.77360E-001	6.16901E-001	-2.90778E-002	-3.89554E-002	6.65917E-001	-4.32642E-002	1.90534E-003	-1.27222E-004	1.72424E-002	1.84233E-002	-8.68386E-004	-1.16337E-003	1.98871E-002	-1.29205E-003
	40	40	1.10057E+000	2.99304E-002	0.00000E+000	3.29404E-002	2.98820E-001	3.79235E-002	4.64130E+001	11	...........	6.33382E-002	-4.20597E-003	5.77180E-001	6.16906E-001	-2.90742E-002	-3.89883E-002	6.65850E-001	-4.32700E-002	1.89574E-003	-1.25886E-004	1.72752E-002	1.84643E-002	-8.70202E-004	-1.16694E-003	1.99292E-002	-1.29509E-003
	41	41	1.10063E+000	2.96551E-002	0.00000E+000	3.26393E-002	2.96083E-001	3.80220E-002	4.38865E+001	11	...........	6.34860E-002	-4.17264E-003	5.77135E-001	6.16897E-001	-2.90422E-002	-3.90022E-002	6.65946E-001	-4.33335E-002	1.88269E-003	-1.23740E-004	1.71150E-002	1.82942E-002	-8.61251E-004	-1.15662E-003	1.97487E-002	-1.28506E-003
	42	42	1.10053E+000	2.96419E-002	0.00000E+000	3.26218E-002	2.95955E-001	3.76742E-002	4.43581E+001	11	...........	6.29097E-002	-4.08458E-003	5.77035E-001	6.17107E-001	-2.90426E-002	-3.90100E-002	6.65846E-001	-4.32832E-002	1.86477E-003	-1.21075E-004	1.71044E-002	1.82922E-002	-8.60880E-004	-1.15633E-003	1.97370E-002	-1.28300E-003
	43	43	1.10057E+000	2.97292E-002	0.00000E+000	3.27190E-002	2.96824E-001	3.81376E-002	4.65250E+001	11	...........	6.36803E-002	-4.23764E-003	5.76900E-001	6.17127E-001	-2.90574E-002	-3.90008E-002	6.65856E-001	-4.34099E-002	1.89316E-003	-1.25982E-004	1.71508E-002	1.83467E-002	-8.63852E-004	-1.15946E-003	1.97954E-002	-1.29054E-003
	44	44	1.10063E+000	2.94800E-002	0.00000E+000	3.24466E-002	2.94352E-001	3.79727E-002	4.46884E+001	11	...........	6.34110E-002	-4.21222E-003	5.76831E-001	6.17140E-001	-2.90603E-002	-3.90001E-002	6.65876E-001	-4.33278E-002	1.86935E-003	-1.24176E-004	1.70050E-002	1.81933E-002	-8.56696E-004	-1.14972E-003	1.96300E-002	-1.27730E-003
	45	45	1.10053E+000	2.94385E-002	0.00000E+000	3.23980E-002	2.93941E-001	3.79127E-002	4.62780E+001	11	...........	6.33175E-002	-4.04764E-003	5.76815E-001	6.17163E-001	-2.90540E-002	-3.89950E-002	6.65850E-001	-4.33449E-002	1.86398E-003	-1.19157E-004	1.69806E-002	1.81684E-002	-8.55308E-004	-1.14796E-003	1.96016E-002	-1.27601E-003
	46	46	1.10057E+000	2.94965E-002	0.00000E+000	3.24628E-002	2.94509E-001	3.78798E-002	4.55991E+001	11	...........	6.32503E-002	-4.08458E-003	5.76904E-001	6.17048E-001	-2.90400E-002	-3.89871E-002	6.65771E-001	-4.33771E-002	1.86566E-003	-1.20481E-004	1.70167E-002	1.82008E-002	-8.56579E-004	-1.14998E-003	1.96379E-002	-1.27947E-003
	47	47	1.10063E+000	2.92569E-002	0.00000E+000	3.22010E-002	2.92129E-001	3.76358E-002	4.47553E+001	11	...........	6.30803E-002	-4.23028E-003	5.77070E-001	6.16966E-001	-2.90243E-002	-3.90103E-002	6.65748E-001	-4.32787E-002	1.84553E-003	-1.23765E-004	1.68833E-002	1.80505E-002	-8.49161E-004	-1.14132E-003	1.94777E-002	-1.26620E-003
	48	48	1.10053E+000	2.92323E-002	0.00000E+000	3.21711E-002	2.91889E-001	3.80987E-002	4.59957E+001	11	...........	6.36085E-002	-4.30708E-003	5.77205E-001	6.16908E-001	-2.89892E-002	-3.90049E-002	6.65829E-001	-4.33806E-002	1.85942E-003	-1.25906E-004	1.68730E-002	1.80336E-002	-8.47420E-004	-1.14020E-003	1.94637E-002	-1.26811E-003
	49	49	1.10056E+000	2.92706E-002	0.00000E+000	3.22142E-002	2.92267E-001	3.77395E-002	4.51948E+001	11	...........	6.30261E-002	-4.28319E-003	5.77269E-001	6.17008E-001	-2.89939E-002	-3.89787E-002	6.65757E-001	-4.32987E-002	1.84481E-003	-1.25372E-004	1.68970E-002	1.80602E-002	-8.48669E-004	-1.14093E-003	1.94871E-002	-1.26738E-003
	50	50	1.10063E+000	2.90396E-002	0.00000E+000	3.19619E-002	2.89971E-001	3.78919E-002	4.47543E+001	11	...........	6.32715E-002	-4.13944E-003	5.77285E-001	6.17086E-001	-2.89931E-002	-3.89850E-002	6.65869E-001	-4.32804E-002	1.83738E-003	-1.20208E-004	1.67641E-002	1.79199E-002	-8.41946E-004	-1.13211E-003	1.93366E-002	-1.25685E-003
	51	51	1.10053E+000	2.89774E-002	0.00000E+000	3.18906E-002	2.89351E-001	3.77112E-002	4.30668E+001	11	...........	6.29724E-002	-4.08069E-003	5.76924E-001	6.17025E-001	-2.90079E-002	-3.89722E-002	6.65762E-001	-4.32817E-002	1.82477E-003	-1.18248E-004	1.67178E-002	1.78798E-002	-8.40574E-004	-1.12931E-003	1.92920E-002	-1.25419E-003
	52	52	1.10056E+000	2.90946E-002	0.00000E+000	3.20204E-002	2.90519E-001	3.77636E-002	4.42433E+001	11	...........	6.30357E-002	-4.29000E-003	5.76553E-001	6.16895E-001	-2.90137E-002	-3.89556E-002	6.65709E-001	-4.32906E-002	1.83400E-003	-1.24816E-004	1.67746E-002	1.79483E-002	-8.44142E-004	-1.13339E-003	1.93685E-002	-1.25952E-003
	53	53	1.10063E+000	2.88892E-002	0.00000E+000	3.17963E-002	2.88479E-001	3.81725E-002	4.45473E+001	11	...........	6.37400E-002	-4.23000E-003	5.76453E-001	6.16926E-001	-2.89926E-002	-3.89622E-002	6.65746E-001	-4.31386E-002	1.84140E-003	-1.22201E-004	1.66533E-002	1.78225E-002	-8.37574E-004	-1.12559E-003	1.92329E-002	-1.24624E-003
	54	54	1.10053E+000	2.87847E-002	0.00000E+000	3.16785E-002	2.87437E-001	3.78527E-002	4.41427E+001	11	...........	6.32094E-002	-4.11264E-003	5.76414E-001	6.17195E-001	-2.89731E-002	-3.89560E-002	6.65795E-001	-4.31314E-002	1.81946E-003	-1.18381E-004	1.65919E-002	1.77658E-002	-8.33980E-004	-1.12134E-003	1.91647E-002	-1.24152E-003
	55	55	1.10056E+000	2.88677E-002	0.00000E+000	3.17706E-002	2.88263E-001	3.78888E-002	4.49957E+001	11	...........	6.32597E-002	-4.27667E-003	5.76544E-001	6.17227E-001	-2.89999E-002	-3.89414E-002	6.65790E-001	-4.31992E-002	1.82616E-003	-1.23457E-004	1.66435E-002	1.78179E-002	-8.37158E-004	-1.12415E-003	1.92198E-002	-1.24706E-003
	56	56	1.10063E+000	2.86682E-002	0.00000E+000	3.15532E-002	2.86283E-001	3.77822E-002	4.30145E+001	11	...........	6.31046E-002	-4.26750E-003	5.76507E-001	6.17139E-001	-2.90264E-002	-3.89387E-002	6.65800E-001	-4.32661E-002	1.80910E-003	-1.22342E-004	1.65274E-002	1.76923E-002	-8.32135E-004	-1.11631E-003	1.90873E-002	-1.24036E-003
	57	57	1.10053E+000	2.86090E-002	0.00000E+000	3.14852E-002	2.85697E-001	3.77845E-002	4.35869E+001	11	...........	6.30675E-002	-4.12722E-003	5.76401E-001	6.17039E-001	-2.90196E-002	-3.88853E-002	6.65750E-001	-4.32243E-002	1.80430E-003	-1.18076E-004	1.64903E-002	1.76529E-002	-8.30221E-004	-1.11247E-003	1.90465E-002	-1.23660E-003
	58	58	1.10056E+000	2.86804E-002	0.00000E+000	3.15645E-002	2.86405E-001	3.78104E-002	4.56716E+001	11	...........	6.31374E-002	-4.13917E-003	5.76587E-001	6.17126E-001	-2.90187E-002	-3.89162E-002	6.65679E-001	-4.32944E-002	1.81080E-003	-1.18713E-004	1.65367E-002	1.76994E-002	-8.32269E-004	-1.11613E-003	1.90919E-002	-1.24170E-003
	59	59	1.10063E+000	2.84737E-002	0.00000E+000	3.13390E-002	2.84351E-001	3.77584E-002	4.47019E+001	11	...........	6.30294E-002	-4.17181E-003	5.76427E-001	6.17268E-001	-2.90301E-002	-3.89157E-002	6.65562E-001	-4.32935E-002	1.79468E-003	-1.18787E-004	1.64130E-002	1.75759E-002	-8.26595E-004	-1.10807E-003	1.89510E-002	-1.23272E-003
	60	60	1.10054E+000	2.84101E-002	0.00000E+000	3.12663E-002	2.83715E-001	3.79174E-002	4.52622E+001	11	...........	6.33215E-002	-4.28264E-003	5.76385E-001	6.17467E-001	-2.90329E-002	-3.89057E-002	6.65657E-001	-4.32403E-002	1.79897E-003	-1.21670E-004	1.63751E-002	1.75423E-002	-8.24827E-004	-1.10531E-003	1.89114E-002	-1.22846E-003
	61	61	1.10056E+000	2.84781E-002	0.00000E+000	3.13419E-002	2.84395E-001	3.77436E-002	4.33035E+001	11	...........	6.30250E-002	-4.33583E-003	5.76318E-001	6.17457E-001	-2.90325E-002	-3.88860E-002	6.65649E-001	-4.32540E-002	1.79483E-003	-1.23476E-004	1.64125E-002	1.75840E-002	-8.26792E-004	-1.10740E-003	1.89564E-002	-1.23179E-003
	62	62	1.10063E+000	2.83009E-002	0.00000E+000	3.11488E-002	2.82632E-001	3.75504E-002	4.47600E+001	11	...........	6.26914E-002	-4.22125E-003	5.76281E-001	6.17223E-001	-2.90142E-002	-3.88899E-002	6.65651E-001	-4.32564E-002	1.77422E-003	-1.19465E-004	1.63093E-002	1.74680E-002	-8.21128E-004	-1.10062E-003	1.88385E-002	-1.22420E-003
	63	63	1.10054E+000	2.82215E-002	0.00000E+000	3.10589E-002	2.81839E-001	3.79463E-002	4.58680E+001	11	...........	6.33661E-002	-4.30875E-003	5.76423E-001	6.17054E-001	-2.90350E-002	-3.88803E-002	6.65828E-001	-4.33101E-002	1.78829E-003	-1.21599E-004	1.62675E-002	1.74142E-002	-8.19411E-004	-1.09726E-003	1.87907E-002	-1.22228E-003
	64	63.8767	1.10062E+000	2.82557E-002	0.00000E+000	3.10988E-002	2.82179E-001	3.77564E-002	4.39955E+001	11	...........	6.30474E-002	-4.23020E-003	5.76409E-001	6.17082E-001	-2.90415E-002	-3.89019E-002	6.65876E-001	-4.33089E-002	1.78145E-003	-1.19527E-004	1.62868E-002	1.74361E-002	-8.20588E-004	-1.09920E-003	1.88148E-002	-1.22372E-003
STARTTIMEOFFSET	QUANT	812552.4	Start Time Offset (s)
