EXPLAIN
TAG	PWR800_CHARGE
TITLE	LABEL	PWR Charge	Test Identifier
DATE	LABEL	10/17/2022	Date
TIME	LABEL	5:42:03	Time
NOTES	NOTES	1	Notes...
	
PSTAT	PSTAT	REF3000-21114	Potentiostat
CAPACITY	QUANT	5.30000E-002	Capacity (A-hr)
CELLTYPE	SELECTOR	1	Cell Type
WORKINGCONNECTION	SELECTOR	0	Working Connection
MAXCHARGETIME	VARIABLEANDUNITS	7.20000E+003	s	2.00000E+000	hour(s)	Max Charge Time
CHARGEMODE	MULTIPARAM	0	1.00000E-001	Charge Mode	Constant Current	Amp(s)
CHARGECURRENT	QUANT	0.1	Charge Current (A)
VOLTAGEFINISH	TWOPARAM	T	2.50000E-002	7.20000E+003	Voltage Finish	I (A) <	Max Time(s)
SAMPLETIME	QUANT	1.00000E+000	Sample Period (s)
CHARGESTOPAT1	MULTIPARAM	2	1.10000E+000	Stop At 1	|Voltage| > Limit	V
CHARGESTOPAT2	MULTIPARAM	0	0.00000E+000	Stop At 2	None	N/A
AESELECTOR	AESELECTOR	0x1	T	Set Limits	AE Channels
AESBHCSELECTOR	TOGGLE	F	Save Both Half Cells
IRCOMP	TOGGLE	F	IR Measure
EOC	QUANT	0.2742234	Open Circuit (V)
SEQUENCER	TOGGLE	TRUE	Run as Sequence
PSTATMODEL	IQUANT	5	Pstat Model
PSTATSECTION	LABEL	REF3000-21114	Pstat Section
PSTATSERIALNO	LABEL	21114	Pstat Serial Number
CTRLMODE	IQUANT	0	Control Mode
ELECTROMETER	IQUANT	0	RE=0 or CS=1
IESTAB	IQUANT	0	I/E Stability
CASPEED	IQUANT	4	Control Amp Speed
CONVENTION	IQUANT	1	Current Convention
ICHRANGE	IQUANT	2	Ich Range
ICHRANGEMODE	TOGGLE	T	Ich Auto Range
ICHOFFSETENABLE	TOGGLE	F	Ich Offset Enable
ICHOFFSET	QUANT	0	Ich Offset (V)
ICHFILTER	IQUANT	1	Ich Filter
VCHRANGE	IQUANT	3	Vch Range
VCHRANGEMODE	TOGGLE	T	Vch Auto Range
VCHOFFSETENABLE	TOGGLE	F	Vch Offset Enable
VCHOFFSET	QUANT	0	Vch Offset (V)
VCHFILTER	IQUANT	1	Vch Filter
ACHRANGE	IQUANT	2	Ach Range
ACHOFFSETENABLE	TOGGLE	F	Ach Offset Enable
ACHOFFSET	QUANT	0	Ach Offset (V)
ACHFILTER	IQUANT	1	Ach Filter
IERANGELOWERLIMIT	IQUANT	9	I/E Range Lower Limit
IERANGEMODE	TOGGLE	F	I/E AutoRange
IERANGE	IQUANT	9	I/E Range
POSFEEDENABLE	TOGGLE	F	Positive Feedback IR Comp
POSFEEDRESISTANCE	QUANT	0	Positive Feedback Resistance (ohm)
ACHSELECT	IQUANT	1	Ach Select
SENSECABLEID	IQUANT	13	Sense Cable ID
PWRCABLEID	IQUANT	13	Power Cable ID
DCCALDATE	LABEL		DC Calibration Date
ACCALDATE	LABEL		AC Calibration Date
THERMOSELECT	IQUANT	1	Thermo Select
FRAMEWORKVERSION	LABEL	7.8.6	Framework Version
INSTRUMENTVERSION	LABEL	4.50	Instrument Version
COMPLIANCEVOLTAGE	IQUANT	0	Compliance Voltage
CURVE	TABLE	47
	Pt	T	Vf	Im	Vu	Pwr	Sig	Ach	Temp	IERange	Over	Vf1	Vf2	Vf3	Vf4	Vf5	Vf6	Vf7	Vf8	Pwr1	Pwr2	Pwr3	Pwr4	Pwr5	Pwr6	Pwr7	Pwr8
	#	s	V	A	V	W	V	V	deg C	#	bits	V	V	V	V	V	V	V	V	W	W	W	W	W	W	W	W
	0	1	5.71717E-001	9.98429E-002	0.00000E+000	5.70818E-002	9.94000E-001	3.73421E-002	3.95040E+001	11	...........	6.20072E-002	-4.27417E-003	5.75713E-001	6.30810E-001	-2.93985E-002	-3.89168E-002	6.63850E-001	-4.27892E-002	6.19098E-003	-4.26745E-004	5.74808E-002	6.29819E-002	-2.93523E-003	-3.88557E-003	6.62807E-002	-4.27219E-003
	1	2	8.30666E-001	9.98426E-002	0.00000E+000	8.29359E-002	9.94000E-001	3.81142E-002	4.41064E+001	11	...........	6.32615E-002	-4.32514E-003	5.75740E-001	6.30695E-001	-2.94272E-002	-3.89103E-002	6.63951E-001	-4.27768E-002	6.31619E-003	-4.31833E-004	5.74834E-002	6.29702E-002	-2.93809E-003	-3.88490E-003	6.62906E-002	-4.27095E-003
	2	2.05	1.08605E+000	9.98436E-002	0.00000E+000	1.08435E-001	9.94000E-001	3.91133E-002	5.03507E+001	11	...........	6.49750E-002	-4.50556E-003	5.75708E-001	6.30647E-001	-2.93972E-002	-3.89000E-002	6.63936E-001	-4.28194E-002	6.48734E-003	-4.49851E-004	5.74808E-002	6.29661E-002	-2.93512E-003	-3.88392E-003	6.62898E-002	-4.27525E-003
	3	3	1.10067E+000	6.31393E-002	0.00000E+000	6.94958E-002	6.29017E-001	3.81162E-002	4.78436E+001	11	...........	6.32431E-002	-4.44284E-003	5.75705E-001	6.30494E-001	-2.94373E-002	-3.89117E-002	6.63879E-001	-4.27747E-002	3.99313E-003	-2.80518E-004	3.63496E-002	3.98090E-002	-1.85865E-003	-2.45686E-003	4.19169E-002	-2.70076E-003
	4	4	1.10009E+000	4.51916E-002	0.00000E+000	4.97147E-002	4.50545E-001	3.75838E-002	4.44089E+001	11	...........	6.23681E-002	-4.26167E-003	5.75774E-001	6.30473E-001	-2.94489E-002	-3.89072E-002	6.63880E-001	-4.27304E-002	2.81851E-003	-1.92591E-004	2.60201E-002	2.84921E-002	-1.33084E-003	-1.75828E-003	3.00018E-002	-1.93105E-003
	5	5	1.10009E+000	4.01949E-002	0.00000E+000	4.42181E-002	4.00861E-001	3.83855E-002	4.57013E+001	11	...........	6.36775E-002	-4.08875E-003	5.75707E-001	6.30604E-001	-2.94543E-002	-3.89392E-002	6.63970E-001	-4.28690E-002	2.55951E-003	-1.64347E-004	2.31405E-002	2.53471E-002	-1.18391E-003	-1.56516E-003	2.66882E-002	-1.72312E-003
	6	6	1.10008E+000	3.72112E-002	0.00000E+000	4.09352E-002	3.71196E-001	3.77444E-002	4.61572E+001	11	...........	6.26217E-002	-4.03597E-003	5.75682E-001	6.30713E-001	-2.94636E-002	-3.89572E-002	6.63834E-001	-4.29296E-002	2.33023E-003	-1.50183E-004	2.14218E-002	2.34696E-002	-1.09638E-003	-1.44965E-003	2.47021E-002	-1.59746E-003
	7	7	1.10001E+000	3.55999E-002	0.00000E+000	3.91603E-002	3.55177E-001	3.79845E-002	4.60408E+001	11	...........	6.30526E-002	-3.95111E-003	5.75542E-001	6.30701E-001	-2.94579E-002	-3.89533E-002	6.63843E-001	-4.31065E-002	2.24467E-003	-1.40659E-004	2.04892E-002	2.24529E-002	-1.04870E-003	-1.38673E-003	2.36327E-002	-1.53459E-003
	8	8	1.10006E+000	3.43675E-002	0.00000E+000	3.78063E-002	3.42920E-001	3.80051E-002	4.47726E+001	11	...........	6.30744E-002	-3.97028E-003	5.75337E-001	6.30594E-001	-2.94707E-002	-3.89354E-002	6.63653E-001	-4.30029E-002	2.16771E-003	-1.36448E-004	1.97729E-002	2.16719E-002	-1.01283E-003	-1.33811E-003	2.28081E-002	-1.47790E-003
	9	9	1.10006E+000	3.31599E-002	0.00000E+000	3.64780E-002	3.30914E-001	3.76762E-002	4.42344E+001	11	...........	6.25267E-002	-3.92764E-003	5.75252E-001	6.30475E-001	-2.94537E-002	-3.89204E-002	6.63751E-001	-4.27969E-002	2.07338E-003	-1.30240E-004	1.90753E-002	2.09065E-002	-9.76684E-004	-1.29060E-003	2.20099E-002	-1.41914E-003
	10	10	1.10000E+000	3.26169E-002	0.00000E+000	3.58787E-002	3.25511E-001	3.79703E-002	4.53845E+001	11	...........	6.30205E-002	-3.90833E-003	5.75233E-001	6.30441E-001	-2.94467E-002	-3.88971E-002	6.63812E-001	-4.29375E-002	2.05554E-003	-1.27478E-004	1.87623E-002	2.05630E-002	-9.60459E-004	-1.26870E-003	2.16515E-002	-1.40049E-003
	11	11	1.10005E+000	3.21129E-002	0.00000E+000	3.53258E-002	3.20503E-001	3.79299E-002	4.55898E+001	11	...........	6.29507E-002	-3.91236E-003	5.75371E-001	6.30531E-001	-2.94651E-002	-3.88729E-002	6.63877E-001	-4.29412E-002	2.02153E-003	-1.25637E-004	1.84768E-002	2.02482E-002	-9.46211E-004	-1.24832E-003	2.13190E-002	-1.37897E-003
	12	12	1.10006E+000	3.14258E-002	0.00000E+000	3.45703E-002	3.13673E-001	3.78009E-002	4.43513E+001	11	...........	6.27567E-002	-4.03806E-003	5.75553E-001	6.30668E-001	-2.94587E-002	-3.88650E-002	6.63782E-001	-4.30261E-002	1.97218E-003	-1.26899E-004	1.80872E-002	1.98192E-002	-9.25764E-004	-1.22136E-003	2.08599E-002	-1.35213E-003
	13	13	1.10000E+000	3.12296E-002	0.00000E+000	3.43525E-002	3.11721E-001	3.77993E-002	4.35258E+001	11	...........	6.27285E-002	-4.04931E-003	5.75718E-001	6.30762E-001	-2.94915E-002	-3.88490E-002	6.63906E-001	-4.29982E-002	1.95899E-003	-1.26458E-004	1.79795E-002	1.96985E-002	-9.21010E-004	-1.21324E-003	2.07336E-002	-1.34282E-003
	14	14	1.10004E+000	3.10581E-002	0.00000E+000	3.41653E-002	3.10017E-001	3.78973E-002	4.50571E+001	11	...........	6.28903E-002	-4.07042E-003	5.75655E-001	6.30813E-001	-2.94960E-002	-3.88431E-002	6.63878E-001	-4.28676E-002	1.95325E-003	-1.26419E-004	1.78787E-002	1.95919E-002	-9.16089E-004	-1.20639E-003	2.06188E-002	-1.33139E-003
	15	15	1.10006E+000	3.05707E-002	0.00000E+000	3.36297E-002	3.05175E-001	3.77351E-002	4.50011E+001	11	...........	6.26250E-002	-4.14056E-003	5.75496E-001	6.30873E-001	-2.94853E-002	-3.88407E-002	6.63709E-001	-4.27663E-002	1.91449E-003	-1.26580E-004	1.75933E-002	1.92862E-002	-9.01386E-004	-1.18739E-003	2.02900E-002	-1.30739E-003
	16	16	1.10000E+000	3.04968E-002	0.00000E+000	3.35464E-002	3.04440E-001	3.78357E-002	4.45596E+001	11	...........	6.28047E-002	-4.08597E-003	5.75399E-001	6.30859E-001	-2.94954E-002	-3.88229E-002	6.63608E-001	-4.28296E-002	1.91535E-003	-1.24609E-004	1.75478E-002	1.92392E-002	-8.99517E-004	-1.18398E-003	2.02380E-002	-1.30617E-003
	17	17	1.10004E+000	3.03674E-002	0.00000E+000	3.34053E-002	3.03157E-001	3.78365E-002	4.19974E+001	11	...........	6.28071E-002	-4.07694E-003	5.75587E-001	6.30902E-001	-2.94903E-002	-3.88243E-002	6.63605E-001	-4.28943E-002	1.90729E-003	-1.23806E-004	1.74791E-002	1.91588E-002	-8.95542E-004	-1.17899E-003	2.01519E-002	-1.30259E-003
	18	18	1.10006E+000	3.00119E-002	0.00000E+000	3.30150E-002	2.99621E-001	3.75193E-002	4.20128E+001	11	...........	6.22636E-002	-3.87125E-003	5.75635E-001	6.30920E-001	-2.94858E-002	-3.88225E-002	6.63650E-001	-4.28857E-002	1.86865E-003	-1.16184E-004	1.72759E-002	1.89351E-002	-8.84925E-004	-1.16514E-003	1.99174E-002	-1.28708E-003
	19	19	1.10000E+000	3.00434E-002	0.00000E+000	3.30476E-002	2.99935E-001	3.78556E-002	4.38205E+001	11	...........	6.28321E-002	-3.82153E-003	5.75796E-001	6.31167E-001	-2.94619E-002	-3.87910E-002	6.63714E-001	-4.28021E-002	1.88769E-003	-1.14812E-004	1.72989E-002	1.89624E-002	-8.85138E-004	-1.16541E-003	1.99403E-002	-1.28592E-003
	20	20	1.10004E+000	2.99909E-002	0.00000E+000	3.29911E-002	2.99413E-001	3.77059E-002	4.33727E+001	11	...........	6.27971E-002	-3.90250E-003	5.75901E-001	6.31499E-001	-2.94764E-002	-3.88028E-002	6.63827E-001	-4.27862E-002	1.88334E-003	-1.17039E-004	1.72718E-002	1.89392E-002	-8.84023E-004	-1.16373E-003	1.99088E-002	-1.28320E-003
	21	21	1.10007E+000	2.96344E-002	0.00000E+000	3.25998E-002	2.95873E-001	3.72787E-002	4.31965E+001	11	...........	6.23664E-002	-4.02181E-003	5.75912E-001	6.31535E-001	-2.94912E-002	-3.87833E-002	6.63882E-001	-4.29624E-002	1.84819E-003	-1.19184E-004	1.70668E-002	1.87152E-002	-8.73957E-004	-1.14932E-003	1.96738E-002	-1.27317E-003
	22	22	1.09999E+000	2.96566E-002	0.00000E+000	3.26221E-002	2.96097E-001	3.75616E-002	4.27012E+001	11	...........	6.26971E-002	-3.94708E-003	5.75931E-001	6.31525E-001	-2.95487E-002	-3.87747E-002	6.63969E-001	-4.30783E-002	1.85938E-003	-1.17057E-004	1.70802E-002	1.87289E-002	-8.76316E-004	-1.14993E-003	1.96911E-002	-1.27756E-003
	23	23	1.10004E+000	2.96657E-002	0.00000E+000	3.26334E-002	2.96183E-001	3.76253E-002	4.31519E+001	11	...........	6.28074E-002	-3.91778E-003	5.75960E-001	6.31467E-001	-2.95415E-002	-3.87506E-002	6.63894E-001	-4.29687E-002	1.86322E-003	-1.16224E-004	1.70862E-002	1.87329E-002	-8.76370E-004	-1.14956E-003	1.96949E-002	-1.27470E-003
	24	24	1.10007E+000	2.93509E-002	0.00000E+000	3.22879E-002	2.93057E-001	3.74007E-002	4.39264E+001	11	...........	6.24331E-002	-3.98597E-003	5.75915E-001	6.31579E-001	-2.95661E-002	-3.87578E-002	6.64054E-001	-4.30665E-002	1.83247E-003	-1.16992E-004	1.69036E-002	1.85374E-002	-8.67791E-004	-1.13757E-003	1.94906E-002	-1.26404E-003
	25	25	1.09999E+000	2.93676E-002	0.00000E+000	3.23042E-002	2.93223E-001	3.74649E-002	4.31201E+001	11	...........	6.25300E-002	-3.90722E-003	5.76120E-001	6.31702E-001	-2.95872E-002	-3.87497E-002	6.64020E-001	-4.29487E-002	1.83636E-003	-1.14746E-004	1.69193E-002	1.85516E-002	-8.68906E-004	-1.13799E-003	1.95007E-002	-1.26130E-003
	26	26	1.10003E+000	2.94011E-002	0.00000E+000	3.23422E-002	2.93553E-001	3.75090E-002	4.32801E+001	11	...........	6.26147E-002	-3.84792E-003	5.76052E-001	6.31602E-001	-2.95869E-002	-3.87607E-002	6.64174E-001	-4.29531E-002	1.84094E-003	-1.13133E-004	1.69366E-002	1.85698E-002	-8.69887E-004	-1.13961E-003	1.95274E-002	-1.26287E-003
	27	27	1.10007E+000	2.90929E-002	0.00000E+000	3.20041E-002	2.90491E-001	3.72857E-002	4.40259E+001	11	...........	6.22512E-002	-3.83083E-003	5.75863E-001	6.31575E-001	-2.95664E-002	-3.87646E-002	6.63965E-001	-4.30007E-002	1.81107E-003	-1.11450E-004	1.67535E-002	1.83743E-002	-8.60170E-004	-1.12777E-003	1.93166E-002	-1.25101E-003
	28	28	1.10000E+000	2.91136E-002	0.00000E+000	3.20248E-002	2.90697E-001	3.73057E-002	4.13587E+001	11	...........	6.22605E-002	-3.88083E-003	5.75940E-001	6.31618E-001	-2.95621E-002	-3.87590E-002	6.63852E-001	-4.30026E-002	1.81263E-003	-1.12985E-004	1.67677E-002	1.83887E-002	-8.60658E-004	-1.12841E-003	1.93271E-002	-1.25196E-003
	29	29	1.10003E+000	2.91403E-002	0.00000E+000	3.20552E-002	2.90965E-001	3.74376E-002	4.35415E+001	11	...........	6.24682E-002	-3.94847E-003	5.75880E-001	6.31591E-001	-2.95512E-002	-3.87307E-002	6.63844E-001	-4.29610E-002	1.82034E-003	-1.15060E-004	1.67813E-002	1.84047E-002	-8.61132E-004	-1.12862E-003	1.93446E-002	-1.25189E-003
	30	30	1.10007E+000	2.88578E-002	0.00000E+000	3.17456E-002	2.88159E-001	3.74122E-002	4.33243E+001	11	...........	6.24589E-002	-4.08347E-003	5.75902E-001	6.31462E-001	-2.95699E-002	-3.87131E-002	6.64003E-001	-4.29950E-002	1.80242E-003	-1.17840E-004	1.66193E-002	1.82226E-002	-8.53320E-004	-1.11717E-003	1.91617E-002	-1.24074E-003
	31	31	1.09999E+000	2.88746E-002	0.00000E+000	3.17618E-002	2.88327E-001	3.73012E-002	4.40414E+001	11	...........	6.22549E-002	-4.02972E-003	5.76141E-001	6.31404E-001	-2.95754E-002	-3.87104E-002	6.64182E-001	-4.30608E-002	1.79758E-003	-1.16357E-004	1.66358E-002	1.82315E-002	-8.53978E-004	-1.11775E-003	1.91780E-002	-1.24336E-003
	32	32	1.10003E+000	2.88949E-002	0.00000E+000	3.17852E-002	2.88528E-001	3.74063E-002	4.30082E+001	11	...........	6.24333E-002	-3.96778E-003	5.76101E-001	6.31367E-001	-2.95767E-002	-3.87001E-002	6.64111E-001	-4.31429E-002	1.80400E-003	-1.14648E-004	1.66464E-002	1.82433E-002	-8.54614E-004	-1.11824E-003	1.91894E-002	-1.24661E-003
	33	33	1.10007E+000	2.86292E-002	0.00000E+000	3.14942E-002	2.85886E-001	3.70327E-002	4.29384E+001	11	...........	6.18083E-002	-3.86417E-003	5.76005E-001	6.31416E-001	-2.95911E-002	-3.86990E-002	6.64100E-001	-4.31542E-002	1.76952E-003	-1.10628E-004	1.64905E-002	1.80769E-002	-8.47169E-004	-1.10792E-003	1.90126E-002	-1.23547E-003
	34	34	1.09999E+000	2.86703E-002	0.00000E+000	3.15371E-002	2.86295E-001	3.75092E-002	4.42272E+001	11	...........	6.26014E-002	-3.91806E-003	5.76154E-001	6.31274E-001	-2.95915E-002	-3.86969E-002	6.64182E-001	-4.30421E-002	1.79480E-003	-1.12332E-004	1.65185E-002	1.80988E-002	-8.48397E-004	-1.10945E-003	1.90423E-002	-1.23403E-003
	35	35	1.10003E+000	2.86826E-002	0.00000E+000	3.15517E-002	2.86417E-001	3.72850E-002	4.43347E+001	11	...........	6.22267E-002	-3.97083E-003	5.75946E-001	6.31166E-001	-2.95690E-002	-3.87090E-002	6.64115E-001	-4.29110E-002	1.78482E-003	-1.13894E-004	1.65196E-002	1.81035E-002	-8.48116E-004	-1.11027E-003	1.90485E-002	-1.23080E-003
	36	36	1.10007E+000	2.84540E-002	0.00000E+000	3.13015E-002	2.84147E-001	3.73185E-002	4.37029E+001	11	...........	6.22658E-002	-3.90153E-003	5.75924E-001	6.31172E-001	-2.95781E-002	-3.86886E-002	6.64034E-001	-4.29793E-002	1.77171E-003	-1.11014E-004	1.63873E-002	1.79594E-002	-8.41614E-004	-1.10085E-003	1.88944E-002	-1.22293E-003
	37	37	1.09999E+000	2.84435E-002	0.00000E+000	3.12877E-002	2.84039E-001	3.72472E-002	4.33503E+001	11	...........	6.21536E-002	-4.01611E-003	5.75943E-001	6.31281E-001	-2.95693E-002	-3.86737E-002	6.64080E-001	-4.29663E-002	1.76787E-003	-1.14232E-004	1.63818E-002	1.79558E-002	-8.41055E-004	-1.10002E-003	1.88888E-002	-1.22211E-003
	38	38	1.10003E+000	2.84810E-002	0.00000E+000	3.13299E-002	2.84413E-001	3.71241E-002	4.38787E+001	11	...........	6.19686E-002	-4.07069E-003	5.75879E-001	6.31209E-001	-2.95825E-002	-3.86875E-002	6.64100E-001	-4.28876E-002	1.76493E-003	-1.15937E-004	1.64016E-002	1.79774E-002	-8.42538E-004	-1.10186E-003	1.89142E-002	-1.22148E-003
	39	39	1.10008E+000	2.82488E-002	0.00000E+000	3.10758E-002	2.82101E-001	3.72966E-002	4.39972E+001	11	...........	6.22537E-002	-4.01500E-003	5.75841E-001	6.31216E-001	-2.95715E-002	-3.86769E-002	6.64118E-001	-4.27901E-002	1.75859E-003	-1.13419E-004	1.62668E-002	1.78311E-002	-8.35359E-004	-1.09258E-003	1.87605E-002	-1.20877E-003
	40	40	1.09999E+000	2.82402E-002	0.00000E+000	3.10640E-002	2.82016E-001	3.72984E-002	4.45931E+001	11	...........	6.22599E-002	-3.97736E-003	5.75836E-001	6.31400E-001	-2.95574E-002	-3.86656E-002	6.64133E-001	-4.30096E-002	1.75823E-003	-1.12322E-004	1.62617E-002	1.78309E-002	-8.34706E-004	-1.09192E-003	1.87553E-002	-1.21460E-003
	41	41	1.10003E+000	2.82679E-002	0.00000E+000	3.10954E-002	2.82289E-001	3.71847E-002	4.33097E+001	11	...........	6.20657E-002	-3.90819E-003	5.75847E-001	6.31311E-001	-2.95711E-002	-3.86779E-002	6.64025E-001	-4.30610E-002	1.75447E-003	-1.10476E-004	1.62780E-002	1.78458E-002	-8.35913E-004	-1.09334E-003	1.87706E-002	-1.21724E-003
	42	42	1.10008E+000	2.80447E-002	0.00000E+000	3.08513E-002	2.80071E-001	3.70906E-002	4.37905E+001	11	...........	6.19119E-002	-3.86972E-003	5.75860E-001	6.31213E-001	-2.95692E-002	-3.86940E-002	6.64023E-001	-4.30044E-002	1.73630E-003	-1.08525E-004	1.61498E-002	1.77022E-002	-8.29258E-004	-1.08516E-003	1.86223E-002	-1.20605E-003
	43	43	1.09999E+000	2.80239E-002	0.00000E+000	3.08260E-002	2.79865E-001	3.69975E-002	4.30145E+001	11	...........	6.17506E-002	-3.91361E-003	5.75898E-001	6.31188E-001	-2.95593E-002	-3.87186E-002	6.64101E-001	-4.30196E-002	1.73049E-003	-1.09675E-004	1.61389E-002	1.76883E-002	-8.28366E-004	-1.08505E-003	1.86107E-002	-1.20558E-003
	44	44	1.10003E+000	2.81055E-002	0.00000E+000	3.09168E-002	2.80673E-001	3.72639E-002	4.40359E+001	11	...........	6.21899E-002	-3.98972E-003	5.76002E-001	6.31141E-001	-2.95415E-002	-3.87226E-002	6.64132E-001	-4.30996E-002	1.74788E-003	-1.12133E-004	1.61889E-002	1.77386E-002	-8.30280E-004	-1.08832E-003	1.86658E-002	-1.21134E-003
	45	45	1.10008E+000	2.78634E-002	0.00000E+000	3.06519E-002	2.78269E-001	3.72361E-002	4.39700E+001	11	...........	6.21324E-002	-4.04833E-003	5.75955E-001	6.31017E-001	-2.95178E-002	-3.87075E-002	6.64012E-001	-4.30868E-002	1.73122E-003	-1.12801E-004	1.60481E-002	1.75823E-002	-8.22467E-004	-1.07852E-003	1.85017E-002	-1.20055E-003
	46	45.5583	1.10003E+000	2.78850E-002	0.00000E+000	3.06744E-002	2.78484E-001	3.69946E-002	4.36912E+001	11	...........	6.17594E-002	-3.99950E-003	5.75952E-001	6.30934E-001	-2.94612E-002	-3.87383E-002	6.63979E-001	-4.29908E-002	1.72216E-003	-1.11526E-004	1.60604E-002	1.75936E-002	-8.21524E-004	-1.08022E-003	1.85150E-002	-1.19880E-003
STARTTIMEOFFSET	QUANT	898233.6	Start Time Offset (s)
