EXPLAIN
TAG	PWR800_CHARGE
TITLE	LABEL	PWR Charge	Test Identifier
DATE	LABEL	10/18/2022	Date
TIME	LABEL	8:25:38	Time
NOTES	NOTES	1	Notes...
	
PSTAT	PSTAT	REF3000-21114	Potentiostat
CAPACITY	QUANT	5.30000E-002	Capacity (A-hr)
CELLTYPE	SELECTOR	1	Cell Type
WORKINGCONNECTION	SELECTOR	0	Working Connection
MAXCHARGETIME	VARIABLEANDUNITS	7.20000E+003	s	2.00000E+000	hour(s)	Max Charge Time
CHARGEMODE	MULTIPARAM	0	1.00000E-001	Charge Mode	Constant Current	Amp(s)
CHARGECURRENT	QUANT	0.1	Charge Current (A)
VOLTAGEFINISH	TWOPARAM	T	2.50000E-002	7.20000E+003	Voltage Finish	I (A) <	Max Time(s)
SAMPLETIME	QUANT	1.00000E+000	Sample Period (s)
CHARGESTOPAT1	MULTIPARAM	2	1.10000E+000	Stop At 1	|Voltage| > Limit	V
CHARGESTOPAT2	MULTIPARAM	0	0.00000E+000	Stop At 2	None	N/A
AESELECTOR	AESELECTOR	0x1	T	Set Limits	AE Channels
AESBHCSELECTOR	TOGGLE	F	Save Both Half Cells
IRCOMP	TOGGLE	F	IR Measure
EOC	QUANT	0.2589735	Open Circuit (V)
SEQUENCER	TOGGLE	TRUE	Run as Sequence
PSTATMODEL	IQUANT	5	Pstat Model
PSTATSECTION	LABEL	REF3000-21114	Pstat Section
PSTATSERIALNO	LABEL	21114	Pstat Serial Number
CTRLMODE	IQUANT	0	Control Mode
ELECTROMETER	IQUANT	0	RE=0 or CS=1
IESTAB	IQUANT	0	I/E Stability
CASPEED	IQUANT	4	Control Amp Speed
CONVENTION	IQUANT	1	Current Convention
ICHRANGE	IQUANT	2	Ich Range
ICHRANGEMODE	TOGGLE	T	Ich Auto Range
ICHOFFSETENABLE	TOGGLE	F	Ich Offset Enable
ICHOFFSET	QUANT	0	Ich Offset (V)
ICHFILTER	IQUANT	1	Ich Filter
VCHRANGE	IQUANT	3	Vch Range
VCHRANGEMODE	TOGGLE	T	Vch Auto Range
VCHOFFSETENABLE	TOGGLE	F	Vch Offset Enable
VCHOFFSET	QUANT	0	Vch Offset (V)
VCHFILTER	IQUANT	1	Vch Filter
ACHRANGE	IQUANT	2	Ach Range
ACHOFFSETENABLE	TOGGLE	F	Ach Offset Enable
ACHOFFSET	QUANT	0	Ach Offset (V)
ACHFILTER	IQUANT	1	Ach Filter
IERANGELOWERLIMIT	IQUANT	9	I/E Range Lower Limit
IERANGEMODE	TOGGLE	F	I/E AutoRange
IERANGE	IQUANT	9	I/E Range
POSFEEDENABLE	TOGGLE	F	Positive Feedback IR Comp
POSFEEDRESISTANCE	QUANT	0	Positive Feedback Resistance (ohm)
ACHSELECT	IQUANT	1	Ach Select
SENSECABLEID	IQUANT	13	Sense Cable ID
PWRCABLEID	IQUANT	13	Power Cable ID
DCCALDATE	LABEL		DC Calibration Date
ACCALDATE	LABEL		AC Calibration Date
THERMOSELECT	IQUANT	1	Thermo Select
FRAMEWORKVERSION	LABEL	7.8.6	Framework Version
INSTRUMENTVERSION	LABEL	4.50	Instrument Version
COMPLIANCEVOLTAGE	IQUANT	0	Compliance Voltage
CURVE	TABLE	50
	Pt	T	Vf	Im	Vu	Pwr	Sig	Ach	Temp	IERange	Over	Vf1	Vf2	Vf3	Vf4	Vf5	Vf6	Vf7	Vf8	Pwr1	Pwr2	Pwr3	Pwr4	Pwr5	Pwr6	Pwr7	Pwr8
	#	s	V	A	V	W	V	V	deg C	#	bits	V	V	V	V	V	V	V	V	W	W	W	W	W	W	W	W
	0	1	5.55428E-001	9.98376E-002	0.00000E+000	5.54526E-002	9.94000E-001	3.71199E-002	4.01308E+001	11	...........	6.16728E-002	-5.51167E-003	6.05585E-001	5.31076E-001	-2.70478E-002	-3.82903E-002	7.04250E-001	-4.39197E-002	6.15726E-003	-5.50271E-004	6.04602E-002	5.30213E-002	-2.70038E-003	-3.82281E-003	7.03107E-002	-4.38484E-003
	1	2	7.90342E-001	9.98381E-002	0.00000E+000	7.89063E-002	9.94000E-001	3.76876E-002	4.17662E+001	11	...........	6.27079E-002	-5.63514E-003	6.05712E-001	5.30943E-001	-2.70440E-002	-3.82679E-002	7.04184E-001	-4.39125E-002	6.26064E-003	-5.62602E-004	6.04731E-002	5.30084E-002	-2.70003E-003	-3.82060E-003	7.03044E-002	-4.38414E-003
	2	2.19	1.05285E+000	9.98388E-002	0.00000E+000	1.05115E-001	9.94000E-001	3.82004E-002	4.53718E+001	11	...........	6.35453E-002	-5.56067E-003	6.05742E-001	5.31037E-001	-2.71747E-002	-3.82463E-002	7.04173E-001	-4.37865E-002	6.34429E-003	-5.55171E-004	6.04766E-002	5.30181E-002	-2.71309E-003	-3.81847E-003	7.03038E-002	-4.37160E-003
	3	3	1.10160E+000	6.54961E-002	0.00000E+000	7.21503E-002	6.52486E-001	3.78096E-002	4.60588E+001	11	...........	6.28225E-002	-5.44805E-003	6.05644E-001	5.30966E-001	-2.70146E-002	-3.83193E-002	7.04175E-001	-4.38471E-002	4.11463E-003	-3.56826E-004	3.96673E-002	3.47762E-002	-1.76935E-003	-2.50976E-003	4.61207E-002	-2.87181E-003
	4	4	1.10101E+000	4.66061E-002	0.00000E+000	5.13136E-002	4.64640E-001	3.78642E-002	4.65259E+001	11	...........	6.29107E-002	-5.42458E-003	6.05569E-001	5.30874E-001	-2.70361E-002	-3.83161E-002	7.04139E-001	-4.38690E-002	2.93202E-003	-2.52818E-004	2.82232E-002	2.47419E-002	-1.26005E-003	-1.78576E-003	3.28172E-002	-2.04456E-003
	5	5	1.10091E+000	4.08915E-002	0.00000E+000	4.50179E-002	4.07819E-001	3.78467E-002	4.67942E+001	11	...........	6.28583E-002	-5.40653E-003	6.05472E-001	5.30817E-001	-2.70426E-002	-3.82706E-002	7.04188E-001	-4.37832E-002	2.57037E-003	-2.21081E-004	2.47586E-002	2.17059E-002	-1.10581E-003	-1.56494E-003	2.87953E-002	-1.79036E-003
	6	6	1.10094E+000	3.78994E-002	0.00000E+000	4.17252E-002	3.78076E-001	3.78307E-002	4.23745E+001	11	...........	6.28701E-002	-5.36111E-003	6.05499E-001	5.30726E-001	-2.70240E-002	-3.82874E-002	7.04190E-001	-4.38624E-002	2.38274E-003	-2.03183E-004	2.29481E-002	2.01142E-002	-1.02419E-003	-1.45107E-003	2.66884E-002	-1.66236E-003
	7	7	1.10092E+000	3.57351E-002	0.00000E+000	3.93416E-002	3.56552E-001	3.75479E-002	4.30834E+001	11	...........	6.23700E-002	-5.21847E-003	6.05492E-001	5.30780E-001	-2.70419E-002	-3.82775E-002	7.04051E-001	-4.38681E-002	2.22880E-003	-1.86483E-004	2.16373E-002	1.89675E-002	-9.66347E-004	-1.36785E-003	2.51594E-002	-1.56763E-003
	8	8	1.10088E+000	3.44932E-002	0.00000E+000	3.79727E-002	3.44201E-001	3.80392E-002	4.34426E+001	11	...........	6.31758E-002	-5.35556E-003	6.05474E-001	5.30747E-001	-2.70618E-002	-3.82850E-002	7.04129E-001	-4.39331E-002	2.17914E-003	-1.84730E-004	2.08847E-002	1.83072E-002	-9.33448E-004	-1.32057E-003	2.42877E-002	-1.51539E-003
	9	9	1.10093E+000	3.34541E-002	0.00000E+000	3.68304E-002	3.33867E-001	3.78752E-002	4.28183E+001	11	...........	6.29214E-002	-5.35611E-003	6.05298E-001	5.30801E-001	-2.70954E-002	-3.82742E-002	7.04314E-001	-4.39692E-002	2.10498E-003	-1.79184E-004	2.02497E-002	1.77575E-002	-9.06452E-004	-1.28043E-003	2.35622E-002	-1.47095E-003
	10	10	1.10091E+000	3.24293E-002	0.00000E+000	3.57018E-002	3.23679E-001	3.76604E-002	4.31393E+001	11	...........	6.25693E-002	-5.29083E-003	6.05384E-001	5.30769E-001	-2.70740E-002	-3.82879E-002	7.04227E-001	-4.39642E-002	2.02908E-003	-1.71578E-004	1.96322E-002	1.72124E-002	-8.77991E-004	-1.24165E-003	2.28376E-002	-1.42573E-003
	11	11	1.10087E+000	3.19426E-002	0.00000E+000	3.51647E-002	3.18840E-001	3.78280E-002	4.29780E+001	11	...........	6.28356E-002	-5.39694E-003	6.05439E-001	5.30913E-001	-2.70682E-002	-3.83026E-002	7.04262E-001	-4.39108E-002	2.00713E-003	-1.72392E-004	1.93393E-002	1.69588E-002	-8.64629E-004	-1.22349E-003	2.24960E-002	-1.40263E-003
	12	12	1.10091E+000	3.14902E-002	0.00000E+000	3.46679E-002	3.14344E-001	3.78195E-002	4.28746E+001	11	...........	6.28328E-002	-5.33333E-003	6.05485E-001	5.30912E-001	-2.70575E-002	-3.82774E-002	7.04191E-001	-4.39631E-002	1.97861E-003	-1.67947E-004	1.90668E-002	1.67185E-002	-8.52045E-004	-1.20536E-003	2.21751E-002	-1.38440E-003
	13	13	1.10091E+000	3.09258E-002	0.00000E+000	3.40467E-002	3.08736E-001	3.77376E-002	4.32395E+001	11	...........	6.26674E-002	-5.35153E-003	6.05393E-001	5.30972E-001	-2.70417E-002	-3.82301E-002	7.04171E-001	-4.39011E-002	1.93804E-003	-1.65500E-004	1.87223E-002	1.64207E-002	-8.36286E-004	-1.18230E-003	2.17771E-002	-1.35768E-003
	14	14	1.10087E+000	3.07344E-002	0.00000E+000	3.38344E-002	3.06833E-001	3.76157E-002	4.31419E+001	11	...........	6.25017E-002	-5.32361E-003	6.05328E-001	5.31067E-001	-2.70199E-002	-3.82432E-002	7.04235E-001	-4.39594E-002	1.92095E-003	-1.63618E-004	1.86044E-002	1.63220E-002	-8.30439E-004	-1.17538E-003	2.16442E-002	-1.35107E-003
	15	15	1.10091E+000	3.05362E-002	0.00000E+000	3.36176E-002	3.04862E-001	3.78192E-002	4.39415E+001	11	...........	6.28401E-002	-5.34931E-003	6.05326E-001	5.31044E-001	-2.69993E-002	-3.82331E-002	7.04388E-001	-4.39279E-002	1.91890E-003	-1.63347E-004	1.84843E-002	1.62160E-002	-8.24455E-004	-1.16749E-003	2.15093E-002	-1.34139E-003
	16	16	1.10092E+000	3.01390E-002	0.00000E+000	3.31804E-002	3.00914E-001	3.76031E-002	4.25039E+001	11	...........	6.24746E-002	-5.31917E-003	6.05390E-001	5.31117E-001	-2.70315E-002	-3.82382E-002	7.04315E-001	-4.39162E-002	1.88292E-003	-1.60314E-004	1.82458E-002	1.60073E-002	-8.14702E-004	-1.15246E-003	2.12273E-002	-1.32359E-003
	17	17	1.10087E+000	3.00713E-002	0.00000E+000	3.31045E-002	3.00243E-001	3.77375E-002	4.33567E+001	11	...........	6.27251E-002	-5.27653E-003	6.05382E-001	5.31095E-001	-2.70218E-002	-3.82336E-002	7.04258E-001	-4.38839E-002	1.88623E-003	-1.58672E-004	1.82046E-002	1.59707E-002	-8.12582E-004	-1.14974E-003	2.11780E-002	-1.31965E-003
	18	18	1.10090E+000	2.99585E-002	0.00000E+000	3.29814E-002	2.99121E-001	3.76697E-002	4.38862E+001	11	...........	6.25772E-002	-5.25292E-003	6.05341E-001	5.31175E-001	-2.70083E-002	-3.82310E-002	7.04292E-001	-4.38922E-002	1.87472E-003	-1.57369E-004	1.81351E-002	1.59132E-002	-8.09129E-004	-1.14534E-003	2.10995E-002	-1.31495E-003
	19	19	1.10092E+000	2.96357E-002	0.00000E+000	3.26264E-002	2.95909E-001	3.75982E-002	4.29641E+001	11	...........	6.24817E-002	-5.34708E-003	6.05279E-001	5.31297E-001	-2.70518E-002	-3.82543E-002	7.04339E-001	-4.39239E-002	1.85169E-003	-1.58464E-004	1.79378E-002	1.57453E-002	-8.01698E-004	-1.13369E-003	2.08736E-002	-1.30171E-003
	20	20	1.10086E+000	2.96473E-002	0.00000E+000	3.26377E-002	2.96027E-001	3.75107E-002	4.26580E+001	11	...........	6.25039E-002	-5.25556E-003	6.05213E-001	5.31451E-001	-2.70850E-002	-3.82619E-002	7.04438E-001	-4.37889E-002	1.85307E-003	-1.55813E-004	1.79429E-002	1.57561E-002	-8.02997E-004	-1.13436E-003	2.08847E-002	-1.29822E-003
	21	21	1.10090E+000	2.95763E-002	0.00000E+000	3.25606E-002	2.95317E-001	3.73460E-002	4.30646E+001	11	...........	6.23774E-002	-5.27958E-003	6.05315E-001	5.31651E-001	-2.71128E-002	-3.82704E-002	7.04434E-001	-4.37650E-002	1.84489E-003	-1.56151E-004	1.79030E-002	1.57243E-002	-8.01896E-004	-1.13190E-003	2.08345E-002	-1.29441E-003
	22	22	1.10092E+000	2.92956E-002	0.00000E+000	3.22521E-002	2.92532E-001	3.74227E-002	4.35030E+001	11	...........	6.24918E-002	-5.32917E-003	6.05184E-001	5.31537E-001	-2.71107E-002	-3.82803E-002	7.04417E-001	-4.37799E-002	1.83074E-003	-1.56121E-004	1.77292E-002	1.55717E-002	-7.94224E-004	-1.12144E-003	2.06363E-002	-1.28256E-003
	23	23	1.10086E+000	2.93372E-002	0.00000E+000	3.22963E-002	2.92944E-001	3.73467E-002	4.41298E+001	11	...........	6.23776E-002	-5.23486E-003	6.05329E-001	5.31528E-001	-2.71526E-002	-3.82890E-002	7.04372E-001	-4.38251E-002	1.82999E-003	-1.53576E-004	1.77587E-002	1.55936E-002	-7.96583E-004	-1.12329E-003	2.06643E-002	-1.28571E-003
	24	24	1.10090E+000	2.93004E-002	0.00000E+000	3.22569E-002	2.92585E-001	3.73584E-002	4.25046E+001	11	...........	6.24153E-002	-5.24361E-003	6.05335E-001	5.31478E-001	-2.71329E-002	-3.82733E-002	7.04369E-001	-4.38250E-002	1.82879E-003	-1.53640E-004	1.77365E-002	1.55725E-002	-7.95004E-004	-1.12142E-003	2.06383E-002	-1.28409E-003
	25	25	1.10092E+000	2.90017E-002	0.00000E+000	3.19286E-002	2.89616E-001	3.72000E-002	4.22175E+001	11	...........	6.21308E-002	-5.18194E-003	6.05338E-001	5.31625E-001	-2.71222E-002	-3.82689E-002	7.04390E-001	-4.39226E-002	1.80190E-003	-1.50285E-004	1.75559E-002	1.54180E-002	-7.86591E-004	-1.10986E-003	2.04285E-002	-1.27383E-003
	26	26	1.10086E+000	2.90543E-002	0.00000E+000	3.19848E-002	2.90141E-001	3.72244E-002	4.31826E+001	11	...........	6.21842E-002	-5.18014E-003	6.05286E-001	5.31723E-001	-2.71112E-002	-3.82571E-002	7.04371E-001	-4.40035E-002	1.80672E-003	-1.50505E-004	1.75862E-002	1.54489E-002	-7.87699E-004	-1.11153E-003	2.04650E-002	-1.27849E-003
	27	27	1.10090E+000	2.90552E-002	0.00000E+000	3.19868E-002	2.90151E-001	3.74995E-002	4.30338E+001	11	...........	6.26078E-002	-5.25875E-003	6.05288E-001	5.31607E-001	-2.71297E-002	-3.82836E-002	7.04422E-001	-4.40065E-002	1.81908E-003	-1.52794E-004	1.75868E-002	1.54460E-002	-7.88260E-004	-1.11234E-003	2.04671E-002	-1.27862E-003
	28	28	1.10092E+000	2.87890E-002	0.00000E+000	3.16945E-002	2.87508E-001	3.72039E-002	4.34011E+001	11	...........	6.21785E-002	-5.35792E-003	6.05367E-001	5.31539E-001	-2.71525E-002	-3.82444E-002	7.04506E-001	-4.38592E-002	1.79006E-003	-1.54249E-004	1.74279E-002	1.53025E-002	-7.81695E-004	-1.10102E-003	2.02821E-002	-1.26266E-003
	29	29	1.10086E+000	2.87980E-002	0.00000E+000	3.17027E-002	2.87593E-001	3.72375E-002	4.31523E+001	11	...........	6.21421E-002	-5.33639E-003	6.05350E-001	5.31477E-001	-2.71854E-002	-3.82265E-002	7.04544E-001	-4.38636E-002	1.78957E-003	-1.53677E-004	1.74329E-002	1.53055E-002	-7.82886E-004	-1.10085E-003	2.02895E-002	-1.26319E-003
	30	30	1.10090E+000	2.87980E-002	0.00000E+000	3.17036E-002	2.87591E-001	3.72317E-002	4.34966E+001	11	...........	6.21732E-002	-5.34986E-003	6.05464E-001	5.31398E-001	-2.71185E-002	-3.82312E-002	7.04524E-001	-4.38307E-002	1.79046E-003	-1.54065E-004	1.74362E-002	1.53032E-002	-7.80958E-004	-1.10098E-003	2.02889E-002	-1.26224E-003
	31	31	1.10093E+000	2.85620E-002	0.00000E+000	3.14446E-002	2.85249E-001	3.71378E-002	4.20457E+001	11	...........	6.20258E-002	-5.34903E-003	6.05382E-001	5.31575E-001	-2.71514E-002	-3.82078E-002	7.04558E-001	-4.38626E-002	1.77158E-003	-1.52779E-004	1.72909E-002	1.51828E-002	-7.75498E-004	-1.09129E-003	2.01236E-002	-1.25280E-003
	32	32	1.10086E+000	2.85950E-002	0.00000E+000	3.14791E-002	2.85577E-001	3.73369E-002	4.37375E+001	11	...........	6.23500E-002	-5.19861E-003	6.05449E-001	5.31521E-001	-2.71321E-002	-3.82350E-002	7.04445E-001	-4.38728E-002	1.78290E-003	-1.48654E-004	1.73128E-002	1.51988E-002	-7.75841E-004	-1.09333E-003	2.01436E-002	-1.25454E-003
	33	33	1.10089E+000	2.85809E-002	0.00000E+000	3.14646E-002	2.85436E-001	3.71373E-002	4.32626E+001	11	...........	6.19893E-002	-5.17097E-003	6.05501E-001	5.31452E-001	-2.71376E-002	-3.82303E-002	7.04330E-001	-4.38822E-002	1.77171E-003	-1.47791E-004	1.73058E-002	1.51894E-002	-7.75618E-004	-1.09266E-003	2.01304E-002	-1.25419E-003
	34	34	1.10093E+000	2.83385E-002	0.00000E+000	3.11987E-002	2.83027E-001	3.69706E-002	4.17536E+001	11	...........	6.17279E-002	-5.18153E-003	6.05314E-001	5.31585E-001	-2.71215E-002	-3.81801E-002	7.04249E-001	-4.38732E-002	1.74928E-003	-1.46837E-004	1.71537E-002	1.50643E-002	-7.68584E-004	-1.08197E-003	1.99574E-002	-1.24330E-003
	35	35	1.10086E+000	2.83709E-002	0.00000E+000	3.12324E-002	2.83350E-001	3.74823E-002	4.35489E+001	11	...........	6.26344E-002	-5.21764E-003	6.05364E-001	5.31643E-001	-2.70731E-002	-3.82269E-002	7.04336E-001	-4.38875E-002	1.77700E-003	-1.48029E-004	1.71747E-002	1.50832E-002	-7.68087E-004	-1.08453E-003	1.99826E-002	-1.24513E-003
	36	36	1.10089E+000	2.83551E-002	0.00000E+000	3.12159E-002	2.83191E-001	3.70195E-002	4.27711E+001	11	...........	6.18211E-002	-5.15653E-003	6.05129E-001	5.31917E-001	-2.70912E-002	-3.82631E-002	7.04397E-001	-4.39268E-002	1.75294E-003	-1.46214E-004	1.71585E-002	1.50825E-002	-7.68174E-004	-1.08495E-003	1.99732E-002	-1.24555E-003
	37	37	1.10093E+000	2.81316E-002	0.00000E+000	3.09709E-002	2.80972E-001	3.71062E-002	4.21631E+001	11	...........	6.19533E-002	-5.15639E-003	6.04931E-001	5.31864E-001	-2.71079E-002	-3.82356E-002	7.04391E-001	-4.40157E-002	1.74285E-003	-1.45057E-004	1.70177E-002	1.49622E-002	-7.62589E-004	-1.07563E-003	1.98157E-002	-1.23823E-003
	38	38	1.10086E+000	2.81853E-002	0.00000E+000	3.10281E-002	2.81504E-001	3.71597E-002	4.31607E+001	11	...........	6.20700E-002	-5.30306E-003	6.05008E-001	5.31778E-001	-2.71053E-002	-3.82744E-002	7.04338E-001	-4.40324E-002	1.74946E-003	-1.49468E-004	1.70524E-002	1.49883E-002	-7.63971E-004	-1.07878E-003	1.98520E-002	-1.24107E-003
	39	39	1.10089E+000	2.81705E-002	0.00000E+000	3.10127E-002	2.81355E-001	3.70703E-002	4.33599E+001	11	...........	6.19551E-002	-5.27389E-003	6.05134E-001	5.31732E-001	-2.70643E-002	-3.82274E-002	7.04307E-001	-4.40274E-002	1.74531E-003	-1.48568E-004	1.70469E-002	1.49792E-002	-7.62414E-004	-1.07688E-003	1.98407E-002	-1.24027E-003
	40	40	1.10093E+000	2.79419E-002	0.00000E+000	3.07621E-002	2.79085E-001	3.71119E-002	4.24709E+001	11	...........	6.20118E-002	-5.26208E-003	6.05124E-001	5.31642E-001	-2.70915E-002	-3.82258E-002	7.04251E-001	-4.39044E-002	1.73273E-003	-1.47033E-004	1.69083E-002	1.48551E-002	-7.56989E-004	-1.06810E-003	1.96781E-002	-1.22677E-003
	41	41	1.10086E+000	2.79933E-002	0.00000E+000	3.08167E-002	2.79595E-001	3.70381E-002	4.41126E+001	11	...........	6.19089E-002	-5.25153E-003	6.05196E-001	5.31656E-001	-2.70768E-002	-3.82410E-002	7.04138E-001	-4.38715E-002	1.73303E-003	-1.47008E-004	1.69414E-002	1.48828E-002	-7.57969E-004	-1.07049E-003	1.97112E-002	-1.22811E-003
	42	42	1.10089E+000	2.79928E-002	0.00000E+000	3.08170E-002	2.79591E-001	3.69643E-002	4.25098E+001	11	...........	6.17757E-002	-5.26222E-003	6.05215E-001	5.31565E-001	-2.70831E-002	-3.82476E-002	7.04197E-001	-4.39160E-002	1.72928E-003	-1.47304E-004	1.69417E-002	1.48800E-002	-7.58131E-004	-1.07066E-003	1.97125E-002	-1.22933E-003
	43	43	1.10093E+000	2.77889E-002	0.00000E+000	3.05937E-002	2.77562E-001	3.71026E-002	4.38651E+001	11	...........	6.19404E-002	-5.24833E-003	6.05070E-001	5.31622E-001	-2.70799E-002	-3.82475E-002	7.04154E-001	-4.37457E-002	1.72125E-003	-1.45845E-004	1.68142E-002	1.47732E-002	-7.52518E-004	-1.06285E-003	1.95676E-002	-1.21564E-003
	44	44	1.10086E+000	2.77860E-002	0.00000E+000	3.05885E-002	2.77537E-001	3.69931E-002	4.27969E+001	11	...........	6.17504E-002	-5.30278E-003	6.05114E-001	5.31650E-001	-2.70692E-002	-3.82489E-002	7.04204E-001	-4.37740E-002	1.71580E-003	-1.47343E-004	1.68137E-002	1.47724E-002	-7.52143E-004	-1.06278E-003	1.95670E-002	-1.21630E-003
	45	45	1.10089E+000	2.77936E-002	0.00000E+000	3.05977E-002	2.77611E-001	3.69566E-002	4.23202E+001	11	...........	6.17411E-002	-5.31458E-003	6.05325E-001	5.31571E-001	-2.70982E-002	-3.82182E-002	7.04278E-001	-4.38197E-002	1.71601E-003	-1.47711E-004	1.68242E-002	1.47743E-002	-7.53156E-004	-1.06222E-003	1.95744E-002	-1.21791E-003
	46	46	1.10093E+000	2.76065E-002	0.00000E+000	3.03929E-002	2.75745E-001	3.68736E-002	4.28668E+001	11	...........	6.15765E-002	-5.31625E-003	6.05323E-001	5.31501E-001	-2.71281E-002	-3.81893E-002	7.04336E-001	-4.38503E-002	1.69991E-003	-1.46763E-004	1.67109E-002	1.46729E-002	-7.48911E-004	-1.05427E-003	1.94443E-002	-1.21055E-003
	47	47	1.10086E+000	2.75956E-002	0.00000E+000	3.03790E-002	2.75637E-001	3.71257E-002	4.36047E+001	11	...........	6.19921E-002	-5.31250E-003	6.05285E-001	5.31352E-001	-2.71033E-002	-3.82276E-002	7.04246E-001	-4.38283E-002	1.71071E-003	-1.46602E-004	1.67032E-002	1.46630E-002	-7.47934E-004	-1.05492E-003	1.94341E-002	-1.20947E-003
	48	48	1.10089E+000	2.76242E-002	0.00000E+000	3.04112E-002	2.75920E-001	3.69083E-002	4.28805E+001	11	...........	6.15925E-002	-5.29986E-003	6.05133E-001	5.31480E-001	-2.70624E-002	-3.81778E-002	7.04103E-001	-4.39149E-002	1.70144E-003	-1.46405E-004	1.67163E-002	1.46817E-002	-7.47577E-004	-1.05463E-003	1.94503E-002	-1.21311E-003
	49	48.615	1.10096E+000	2.74496E-002	0.00000E+000	3.02210E-002	2.74188E-001	3.70187E-002	4.29082E+001	11	...........	6.18859E-002	-5.32340E-003	6.05169E-001	5.31554E-001	-2.71219E-002	-3.81892E-002	7.04139E-001	-4.38417E-002	1.69874E-003	-1.46125E-004	1.66116E-002	1.45909E-002	-7.44486E-004	-1.04828E-003	1.93283E-002	-1.20344E-003
STARTTIMEOFFSET	QUANT	994419	Start Time Offset (s)
