EXPLAIN
TAG	PWR800_CHARGE
TITLE	LABEL	PWR Charge	Test Identifier
DATE	LABEL	10/14/2022	Date
TIME	LABEL	10:06:28	Time
NOTES	NOTES	1	Notes...
	
PSTAT	PSTAT	REF3000-21114	Potentiostat
CAPACITY	QUANT	5.30000E-002	Capacity (A-hr)
CELLTYPE	SELECTOR	1	Cell Type
WORKINGCONNECTION	SELECTOR	0	Working Connection
MAXCHARGETIME	VARIABLEANDUNITS	7.20000E+003	s	2.00000E+000	hour(s)	Max Charge Time
CHARGEMODE	MULTIPARAM	0	1.00000E-001	Charge Mode	Constant Current	Amp(s)
CHARGECURRENT	QUANT	0.1	Charge Current (A)
VOLTAGEFINISH	TWOPARAM	T	2.50000E-002	7.20000E+003	Voltage Finish	I (A) <	Max Time(s)
SAMPLETIME	QUANT	1.00000E+000	Sample Period (s)
CHARGESTOPAT1	MULTIPARAM	2	1.10000E+000	Stop At 1	|Voltage| > Limit	V
CHARGESTOPAT2	MULTIPARAM	0	0.00000E+000	Stop At 2	None	N/A
AESELECTOR	AESELECTOR	0x1	T	Set Limits	AE Channels
AESBHCSELECTOR	TOGGLE	F	Save Both Half Cells
IRCOMP	TOGGLE	F	IR Measure
EOC	QUANT	0.2281774	Open Circuit (V)
SEQUENCER	TOGGLE	TRUE	Run as Sequence
PSTATMODEL	IQUANT	5	Pstat Model
PSTATSECTION	LABEL	REF3000-21114	Pstat Section
PSTATSERIALNO	LABEL	21114	Pstat Serial Number
CTRLMODE	IQUANT	0	Control Mode
ELECTROMETER	IQUANT	0	RE=0 or CS=1
IESTAB	IQUANT	0	I/E Stability
CASPEED	IQUANT	4	Control Amp Speed
CONVENTION	IQUANT	1	Current Convention
ICHRANGE	IQUANT	2	Ich Range
ICHRANGEMODE	TOGGLE	T	Ich Auto Range
ICHOFFSETENABLE	TOGGLE	F	Ich Offset Enable
ICHOFFSET	QUANT	0	Ich Offset (V)
ICHFILTER	IQUANT	1	Ich Filter
VCHRANGE	IQUANT	3	Vch Range
VCHRANGEMODE	TOGGLE	T	Vch Auto Range
VCHOFFSETENABLE	TOGGLE	F	Vch Offset Enable
VCHOFFSET	QUANT	0	Vch Offset (V)
VCHFILTER	IQUANT	1	Vch Filter
ACHRANGE	IQUANT	2	Ach Range
ACHOFFSETENABLE	TOGGLE	F	Ach Offset Enable
ACHOFFSET	QUANT	0	Ach Offset (V)
ACHFILTER	IQUANT	1	Ach Filter
IERANGELOWERLIMIT	IQUANT	9	I/E Range Lower Limit
IERANGEMODE	TOGGLE	F	I/E AutoRange
IERANGE	IQUANT	9	I/E Range
POSFEEDENABLE	TOGGLE	F	Positive Feedback IR Comp
POSFEEDRESISTANCE	QUANT	0	Positive Feedback Resistance (ohm)
ACHSELECT	IQUANT	1	Ach Select
SENSECABLEID	IQUANT	13	Sense Cable ID
PWRCABLEID	IQUANT	13	Power Cable ID
DCCALDATE	LABEL		DC Calibration Date
ACCALDATE	LABEL		AC Calibration Date
THERMOSELECT	IQUANT	1	Thermo Select
FRAMEWORKVERSION	LABEL	7.8.6	Framework Version
INSTRUMENTVERSION	LABEL	4.50	Instrument Version
COMPLIANCEVOLTAGE	IQUANT	0	Compliance Voltage
CURVE	TABLE	219
	Pt	T	Vf	Im	Vu	Pwr	Sig	Ach	Temp	IERange	Over	Vf1	Vf2	Vf3	Vf4	Vf5	Vf6	Vf7	Vf8	Pwr1	Pwr2	Pwr3	Pwr4	Pwr5	Pwr6	Pwr7	Pwr8
	#	s	V	A	V	W	V	V	deg C	#	bits	V	V	V	V	V	V	V	V	W	W	W	W	W	W	W	W
	0	1	5.01867E-001	9.98656E-002	0.00000E+000	5.01192E-002	9.94000E-001	4.26398E-002	4.25955E+001	11	...........	7.10678E-002	-5.31306E-003	6.08650E-001	5.41160E-001	-2.57753E-002	-3.67237E-002	7.06484E-001	-4.37036E-002	7.09722E-003	-5.30591E-004	6.07832E-002	5.40433E-002	-2.57406E-003	-3.66744E-003	7.05534E-002	-4.36449E-003
	1	2	6.42878E-001	9.98659E-002	0.00000E+000	6.42016E-002	9.94000E-001	4.27953E-002	4.32349E+001	11	...........	7.12646E-002	-5.32569E-003	6.08652E-001	5.40994E-001	-2.58162E-002	-3.67432E-002	7.06482E-001	-4.37268E-002	7.11690E-003	-5.31855E-004	6.07837E-002	5.40269E-002	-2.57816E-003	-3.66939E-003	7.05535E-002	-4.36682E-003
	2	3	8.65528E-001	9.98652E-002	0.00000E+000	8.64361E-002	9.94000E-001	4.33311E-002	4.56123E+001	11	...........	7.21815E-002	-5.37125E-003	6.08555E-001	5.40770E-001	-2.58503E-002	-3.68299E-002	7.06394E-001	-4.38547E-002	7.20842E-003	-5.36401E-004	6.07734E-002	5.40041E-002	-2.58154E-003	-3.67802E-003	7.05441E-002	-4.37956E-003
	3	3.13333	1.07653E+000	9.98668E-002	0.00000E+000	1.07509E-001	9.94000E-001	4.34275E-002	4.97713E+001	11	...........	7.22458E-002	-5.40937E-003	6.08540E-001	5.40710E-001	-2.58250E-002	-3.67771E-002	7.06454E-001	-4.37042E-002	7.21496E-003	-5.40217E-004	6.07729E-002	5.39990E-002	-2.57906E-003	-3.67281E-003	7.05513E-002	-4.36459E-003
	4	4	1.10079E+000	7.23235E-002	0.00000E+000	7.96126E-002	7.20158E-001	4.34102E-002	5.09364E+001	11	...........	7.22784E-002	-5.50016E-003	6.08385E-001	5.40708E-001	-2.58795E-002	-3.69008E-002	7.06467E-001	-4.37809E-002	5.22742E-003	-3.97791E-004	4.40005E-002	3.91058E-002	-1.87169E-003	-2.66879E-003	5.10942E-002	-3.16639E-003
	5	5	1.10042E+000	5.89051E-002	0.00000E+000	6.48203E-002	5.86734E-001	4.33732E-002	5.15738E+001	11	...........	7.22205E-002	-5.43764E-003	6.08391E-001	5.40652E-001	-2.59451E-002	-3.68985E-002	7.06368E-001	-4.38543E-002	4.25416E-003	-3.20305E-004	3.58373E-002	3.18472E-002	-1.52830E-003	-2.17351E-003	4.16087E-002	-2.58324E-003
	6	6	1.10048E+000	5.38361E-002	0.00000E+000	5.92454E-002	5.36339E-001	4.33083E-002	4.98340E+001	11	...........	7.21365E-002	-5.38083E-003	6.08603E-001	5.40676E-001	-2.59183E-002	-3.69336E-002	7.06220E-001	-4.39456E-002	3.88355E-003	-2.89683E-004	3.27648E-002	2.91078E-002	-1.39534E-003	-1.98836E-003	3.80201E-002	-2.36586E-003
	7	7	1.10030E+000	5.14769E-002	0.00000E+000	5.66401E-002	5.12880E-001	4.31075E-002	5.02888E+001	11	...........	7.18108E-002	-5.30625E-003	6.08735E-001	5.40773E-001	-2.59499E-002	-3.69171E-002	7.06165E-001	-4.39562E-002	3.69660E-003	-2.73149E-004	3.13358E-002	2.78373E-002	-1.33582E-003	-1.90038E-003	3.63512E-002	-2.26273E-003
	8	8	1.10036E+000	5.03183E-002	0.00000E+000	5.53681E-002	5.01364E-001	4.33265E-002	4.88082E+001	11	...........	7.21567E-002	-5.40278E-003	6.08668E-001	5.40738E-001	-2.59132E-002	-3.69747E-002	7.06092E-001	-4.38831E-002	3.63080E-003	-2.71858E-004	3.06271E-002	2.72090E-002	-1.30391E-003	-1.86050E-003	3.55293E-002	-2.20812E-003
	9	9	1.10045E+000	4.89978E-002	0.00000E+000	5.39196E-002	4.88233E-001	4.29602E-002	4.89697E+001	11	...........	7.15912E-002	-5.18431E-003	6.08489E-001	5.40843E-001	-2.58896E-002	-3.69264E-002	7.06255E-001	-4.38544E-002	3.50782E-003	-2.54020E-004	2.98147E-002	2.65002E-002	-1.26853E-003	-1.80931E-003	3.46050E-002	-2.14877E-003
	10	10	1.10029E+000	4.84400E-002	0.00000E+000	5.32982E-002	4.82685E-001	4.34551E-002	4.93551E+001	11	...........	7.23889E-002	-5.26944E-003	6.08512E-001	5.40902E-001	-2.58928E-002	-3.68894E-002	7.06368E-001	-4.39040E-002	3.50652E-003	-2.55252E-004	2.94763E-002	2.62013E-002	-1.25425E-003	-1.78692E-003	3.42165E-002	-2.12671E-003
	11	11	1.10034E+000	4.81958E-002	0.00000E+000	5.30320E-002	4.80254E-001	4.32102E-002	4.98420E+001	11	...........	7.19479E-002	-5.41875E-003	6.08417E-001	5.40946E-001	-2.58661E-002	-3.69093E-002	7.06369E-001	-4.39258E-002	3.46759E-003	-2.61161E-004	2.93232E-002	2.60713E-002	-1.24664E-003	-1.77887E-003	3.40440E-002	-2.11704E-003
	12	12	1.10044E+000	4.74924E-002	0.00000E+000	5.22625E-002	4.73262E-001	4.30793E-002	4.80919E+001	11	...........	7.17037E-002	-5.29653E-003	6.08563E-001	5.41059E-001	-2.58382E-002	-3.69210E-002	7.06317E-001	-4.38867E-002	3.40538E-003	-2.51545E-004	2.89021E-002	2.56961E-002	-1.22712E-003	-1.75346E-003	3.35446E-002	-2.08428E-003
	13	13	1.10029E+000	4.71828E-002	0.00000E+000	5.19150E-002	4.70184E-001	4.32862E-002	4.93447E+001	11	...........	7.21079E-002	-5.26736E-003	6.08689E-001	5.41188E-001	-2.58089E-002	-3.69274E-002	7.06303E-001	-4.38729E-002	3.40225E-003	-2.48529E-004	2.87196E-002	2.55348E-002	-1.21773E-003	-1.74234E-003	3.33253E-002	-2.07005E-003
	14	14	1.10034E+000	4.72384E-002	0.00000E+000	5.19784E-002	4.70740E-001	4.31265E-002	4.83413E+001	11	...........	7.18442E-002	-5.21000E-003	6.08670E-001	5.41152E-001	-2.58368E-002	-3.69299E-002	7.06237E-001	-4.39686E-002	3.39380E-003	-2.46112E-004	2.87526E-002	2.55632E-002	-1.22049E-003	-1.74451E-003	3.33615E-002	-2.07701E-003
	15	15	1.10044E+000	4.67273E-002	0.00000E+000	5.14207E-002	4.65657E-001	4.29690E-002	4.88759E+001	11	...........	7.15635E-002	-5.18319E-003	6.08624E-001	5.41150E-001	-2.58592E-002	-3.69154E-002	7.06211E-001	-4.39087E-002	3.34397E-003	-2.42197E-004	2.84394E-002	2.52865E-002	-1.20833E-003	-1.72496E-003	3.29994E-002	-2.05174E-003
	16	16	1.10029E+000	4.65236E-002	0.00000E+000	5.11896E-002	4.63629E-001	4.31336E-002	4.96848E+001	11	...........	7.18240E-002	-5.29208E-003	6.08721E-001	5.41157E-001	-2.58197E-002	-3.68846E-002	7.06290E-001	-4.38851E-002	3.34151E-003	-2.46207E-004	2.83199E-002	2.51766E-002	-1.20123E-003	-1.71600E-003	3.28592E-002	-2.04170E-003
	17	17	1.10034E+000	4.65941E-002	0.00000E+000	5.12694E-002	4.64333E-001	4.31000E-002	4.98857E+001	11	...........	7.17783E-002	-5.30861E-003	6.08645E-001	5.41214E-001	-2.57882E-002	-3.68778E-002	7.06321E-001	-4.39451E-002	3.34445E-003	-2.47350E-004	2.83593E-002	2.52174E-002	-1.20158E-003	-1.71829E-003	3.29104E-002	-2.04759E-003
	18	18	1.10044E+000	4.61089E-002	0.00000E+000	5.07402E-002	4.59512E-001	4.31118E-002	4.65461E+001	11	...........	7.18392E-002	-5.30917E-003	6.08652E-001	5.41191E-001	-2.58025E-002	-3.69178E-002	7.06404E-001	-4.39579E-002	3.31243E-003	-2.44800E-004	2.80643E-002	2.49537E-002	-1.18973E-003	-1.70224E-003	3.25715E-002	-2.02685E-003
	19	19	1.10029E+000	4.58921E-002	0.00000E+000	5.04947E-002	4.57357E-001	4.26672E-002	4.79246E+001	11	...........	7.10900E-002	-5.29069E-003	6.08624E-001	5.41352E-001	-2.58158E-002	-3.69293E-002	7.06344E-001	-4.39753E-002	3.26247E-003	-2.42801E-004	2.79310E-002	2.48438E-002	-1.18474E-003	-1.69476E-003	3.24156E-002	-2.01812E-003
	20	20	1.10034E+000	4.61189E-002	0.00000E+000	5.07465E-002	4.59618E-001	4.30035E-002	4.96298E+001	11	...........	7.18440E-002	-5.43514E-003	6.08595E-001	5.41240E-001	-2.58283E-002	-3.69742E-002	7.06323E-001	-4.39857E-002	3.31337E-003	-2.50663E-004	2.80678E-002	2.49614E-002	-1.19118E-003	-1.70521E-003	3.25749E-002	-2.02857E-003
	21	21	1.10044E+000	4.56917E-002	0.00000E+000	5.02809E-002	4.55378E-001	4.26980E-002	4.88898E+001	11	...........	7.14751E-002	-5.42181E-003	6.08547E-001	5.41251E-001	-2.58676E-002	-3.70033E-002	7.06334E-001	-4.41139E-002	3.26582E-003	-2.47732E-004	2.78056E-002	2.47307E-002	-1.18194E-003	-1.69075E-003	3.22736E-002	-2.01564E-003
	22	22	1.10030E+000	4.55118E-002	0.00000E+000	5.00765E-002	4.53596E-001	4.26408E-002	4.90355E+001	11	...........	7.13908E-002	-5.42292E-003	6.08396E-001	5.41139E-001	-2.58999E-002	-3.70303E-002	7.06276E-001	-4.41590E-002	3.24913E-003	-2.46807E-004	2.76892E-002	2.46282E-002	-1.17875E-003	-1.68531E-003	3.21439E-002	-2.00976E-003
	23	23	1.10034E+000	4.56614E-002	0.00000E+000	5.02431E-002	4.55083E-001	4.26695E-002	4.93370E+001	11	...........	7.14385E-002	-5.37944E-003	6.08249E-001	5.41282E-001	-2.59514E-002	-3.70285E-002	7.06401E-001	-4.41157E-002	3.26198E-003	-2.45633E-004	2.77735E-002	2.47157E-002	-1.18498E-003	-1.69077E-003	3.22553E-002	-2.01439E-003
	24	24	1.10044E+000	4.53236E-002	0.00000E+000	4.98758E-002	4.51725E-001	4.26175E-002	4.68027E+001	11	...........	7.13418E-002	-5.29903E-003	6.08201E-001	5.41469E-001	-2.59844E-002	-3.70429E-002	7.06436E-001	-4.41279E-002	3.23347E-003	-2.40171E-004	2.75659E-002	2.45413E-002	-1.17771E-003	-1.67892E-003	3.20182E-002	-2.00004E-003
	25	25	1.10030E+000	4.50513E-002	0.00000E+000	4.95699E-002	4.49018E-001	4.22267E-002	4.80503E+001	11	...........	7.06992E-002	-5.23528E-003	6.08268E-001	5.41371E-001	-2.59719E-002	-3.70279E-002	7.06419E-001	-4.39940E-002	3.18509E-003	-2.35856E-004	2.74033E-002	2.43894E-002	-1.17007E-003	-1.66816E-003	3.18251E-002	-1.98199E-003
	26	26	1.10033E+000	4.53246E-002	0.00000E+000	4.98722E-002	4.51733E-001	4.27460E-002	4.97327E+001	11	...........	7.15600E-002	-5.46250E-003	6.08302E-001	5.41394E-001	-2.59832E-002	-3.70322E-002	7.06465E-001	-4.40299E-002	3.24343E-003	-2.47585E-004	2.75710E-002	2.45384E-002	-1.17768E-003	-1.67847E-003	3.20202E-002	-1.99563E-003
	27	27	1.10044E+000	4.49113E-002	0.00000E+000	4.94221E-002	4.47619E-001	4.25695E-002	4.85733E+001	11	...........	7.12501E-002	-5.49403E-003	6.08315E-001	5.41435E-001	-2.59207E-002	-3.70039E-002	7.06404E-001	-4.40576E-002	3.19994E-003	-2.46744E-004	2.73202E-002	2.43165E-002	-1.16413E-003	-1.66189E-003	3.17255E-002	-1.97869E-003
	28	28	1.10030E+000	4.47237E-002	0.00000E+000	4.92095E-002	4.45755E-001	4.24847E-002	4.92289E+001	11	...........	7.11065E-002	-5.48375E-003	6.08205E-001	5.41215E-001	-2.59311E-002	-3.70071E-002	7.06331E-001	-4.40221E-002	3.18015E-003	-2.45254E-004	2.72012E-002	2.42052E-002	-1.15974E-003	-1.65509E-003	3.15897E-002	-1.96883E-003
	29	29	1.10034E+000	4.48496E-002	0.00000E+000	4.93497E-002	4.47009E-001	4.25255E-002	4.69226E+001	11	...........	7.11772E-002	-5.50639E-003	6.08220E-001	5.41128E-001	-2.58918E-002	-3.69950E-002	7.06242E-001	-4.40278E-002	3.19227E-003	-2.46960E-004	2.72785E-002	2.42694E-002	-1.16124E-003	-1.65921E-003	3.16747E-002	-1.97463E-003
	30	30	1.10044E+000	4.44292E-002	0.00000E+000	4.88915E-002	4.42827E-001	4.21474E-002	4.77529E+001	11	...........	7.05592E-002	-5.54139E-003	6.08051E-001	5.40978E-001	-2.58471E-002	-3.69742E-002	7.06195E-001	-4.41553E-002	3.13489E-003	-2.46199E-004	2.70152E-002	2.40352E-002	-1.14837E-003	-1.64273E-003	3.13757E-002	-1.96178E-003
	31	31	1.10030E+000	4.43537E-002	0.00000E+000	4.88024E-002	4.42070E-001	4.26285E-002	4.84519E+001	11	...........	7.13742E-002	-5.51069E-003	6.07974E-001	5.41131E-001	-2.58210E-002	-3.69444E-002	7.06205E-001	-4.41808E-002	3.16571E-003	-2.44420E-004	2.69659E-002	2.40012E-002	-1.14526E-003	-1.63862E-003	3.13228E-002	-1.95958E-003
	32	32	1.10033E+000	4.45071E-002	0.00000E+000	4.89727E-002	4.43601E-001	4.23772E-002	4.89172E+001	11	...........	7.09508E-002	-5.46556E-003	6.07935E-001	5.41101E-001	-2.58535E-002	-3.70097E-002	7.06185E-001	-4.39924E-002	3.15782E-003	-2.43256E-004	2.70574E-002	2.40829E-002	-1.15066E-003	-1.64720E-003	3.14303E-002	-1.95797E-003
	33	33	1.10044E+000	4.41908E-002	0.00000E+000	4.86291E-002	4.40453E-001	4.23980E-002	4.89508E+001	11	...........	7.09451E-002	-5.45569E-003	6.08094E-001	5.41184E-001	-2.58426E-002	-3.69810E-002	7.06213E-001	-4.38931E-002	3.13512E-003	-2.41091E-004	2.68721E-002	2.39153E-002	-1.14201E-003	-1.63422E-003	3.12081E-002	-1.93967E-003
	34	34	1.10030E+000	4.39702E-002	0.00000E+000	4.83806E-002	4.38250E-001	4.22705E-002	4.88771E+001	11	...........	7.11314E-002	-5.41972E-003	6.08075E-001	5.41159E-001	-2.58440E-002	-3.69635E-002	7.06251E-001	-4.39531E-002	3.12766E-003	-2.38306E-004	2.67372E-002	2.37948E-002	-1.13637E-003	-1.62529E-003	3.10540E-002	-1.93262E-003
	35	35	1.10033E+000	4.40778E-002	0.00000E+000	4.85002E-002	4.39330E-001	4.20000E-002	4.52914E+001	11	...........	7.02935E-002	-5.38653E-003	6.08088E-001	5.40993E-001	-2.58554E-002	-3.70161E-002	7.06266E-001	-4.40743E-002	3.09838E-003	-2.37426E-004	2.68032E-002	2.38458E-002	-1.13965E-003	-1.63159E-003	3.11306E-002	-1.94270E-003
	36	36	1.10043E+000	4.38970E-002	0.00000E+000	4.83057E-002	4.37542E-001	4.25398E-002	4.86948E+001	11	...........	7.12324E-002	-5.39806E-003	6.08170E-001	5.40841E-001	-2.59079E-002	-3.70618E-002	7.06230E-001	-4.40694E-002	3.12688E-003	-2.36958E-004	2.66968E-002	2.37413E-002	-1.13728E-003	-1.62690E-003	3.10014E-002	-1.93452E-003
	37	37	1.10031E+000	4.36233E-002	0.00000E+000	4.79991E-002	4.34813E-001	4.22580E-002	4.95432E+001	11	...........	7.07485E-002	-5.41194E-003	6.08408E-001	5.40958E-001	-2.58701E-002	-3.70297E-002	7.06238E-001	-4.40647E-002	3.08628E-003	-2.36087E-004	2.65408E-002	2.35984E-002	-1.12854E-003	-1.61536E-003	3.08085E-002	-1.92225E-003
	38	38	1.10033E+000	4.38098E-002	0.00000E+000	4.82053E-002	4.36661E-001	4.22464E-002	4.81545E+001	11	...........	7.07404E-002	-5.36972E-003	6.08366E-001	5.41038E-001	-2.58372E-002	-3.70004E-002	7.06367E-001	-4.41356E-002	3.09913E-003	-2.35247E-004	2.66524E-002	2.37028E-002	-1.13192E-003	-1.62098E-003	3.09458E-002	-1.93357E-003
	39	39	1.10043E+000	4.35153E-002	0.00000E+000	4.78856E-002	4.33731E-001	4.22784E-002	4.90274E+001	11	...........	7.07712E-002	-5.23986E-003	6.08319E-001	5.40965E-001	-2.58308E-002	-3.69858E-002	7.06400E-001	-4.40789E-002	3.07963E-003	-2.28014E-004	2.64712E-002	2.35403E-002	-1.12404E-003	-1.60945E-003	3.07392E-002	-1.91810E-003
	40	40	1.10031E+000	4.32413E-002	0.00000E+000	4.75788E-002	4.31011E-001	4.22076E-002	4.92074E+001	11	...........	7.07083E-002	-5.25667E-003	6.08447E-001	5.40742E-001	-2.58661E-002	-3.70290E-002	7.06305E-001	-4.41210E-002	3.05752E-003	-2.27305E-004	2.63100E-002	2.33824E-002	-1.11848E-003	-1.60118E-003	3.05415E-002	-1.90785E-003
	41	41	1.10033E+000	4.34730E-002	0.00000E+000	4.78347E-002	4.33317E-001	4.22481E-002	4.60662E+001	11	...........	7.07253E-002	-5.26042E-003	6.08459E-001	5.40690E-001	-2.59156E-002	-3.70587E-002	7.06374E-001	-4.41165E-002	3.07464E-003	-2.28686E-004	2.64515E-002	2.35054E-002	-1.12663E-003	-1.61105E-003	3.07082E-002	-1.91788E-003
	42	42	1.10043E+000	4.31691E-002	0.00000E+000	4.75045E-002	4.30287E-001	4.18898E-002	4.78335E+001	11	...........	7.00804E-002	-5.23403E-003	6.08184E-001	5.40797E-001	-2.58619E-002	-3.70435E-002	7.06331E-001	-4.39239E-002	3.02531E-003	-2.25948E-004	2.62548E-002	2.33457E-002	-1.11644E-003	-1.59913E-003	3.04917E-002	-1.89616E-003
	43	43	1.10031E+000	4.29401E-002	0.00000E+000	4.72477E-002	4.28001E-001	4.22590E-002	4.87727E+001	11	...........	7.07546E-002	-5.39903E-003	6.08188E-001	5.40736E-001	-2.58767E-002	-3.70633E-002	7.06339E-001	-4.39787E-002	3.03821E-003	-2.31835E-004	2.61157E-002	2.32193E-002	-1.11115E-003	-1.59150E-003	3.03303E-002	-1.88845E-003
	44	44	1.10033E+000	4.31364E-002	0.00000E+000	4.74643E-002	4.29953E-001	4.21702E-002	4.84747E+001	11	...........	7.05718E-002	-5.28736E-003	6.08328E-001	5.40633E-001	-2.58846E-002	-3.70240E-002	7.06332E-001	-4.41192E-002	3.04421E-003	-2.28078E-004	2.62411E-002	2.33210E-002	-1.11657E-003	-1.59708E-003	3.04686E-002	-1.90314E-003
	45	45	1.10043E+000	4.29111E-002	0.00000E+000	4.72205E-002	4.27711E-001	4.20971E-002	4.77380E+001	11	...........	7.04935E-002	-5.28347E-003	6.08207E-001	5.40694E-001	-2.59026E-002	-3.70408E-002	7.06350E-001	-4.42353E-002	3.02495E-003	-2.26720E-004	2.60988E-002	2.32018E-002	-1.11151E-003	-1.58946E-003	3.03103E-002	-1.89819E-003
	46	46	1.10032E+000	4.25748E-002	0.00000E+000	4.68459E-002	4.24362E-001	4.19548E-002	4.73998E+001	11	...........	7.02271E-002	-5.20708E-003	6.08169E-001	5.40649E-001	-2.58874E-002	-3.69996E-002	7.06418E-001	-4.42186E-002	2.98991E-003	-2.21691E-004	2.58927E-002	2.30181E-002	-1.10215E-003	-1.57525E-003	3.00756E-002	-1.88260E-003
	47	47	1.10033E+000	4.27861E-002	0.00000E+000	4.70787E-002	4.26474E-001	4.20317E-002	4.76653E+001	11	...........	7.03892E-002	-5.37153E-003	6.08175E-001	5.40482E-001	-2.58857E-002	-3.69765E-002	7.06280E-001	-4.42001E-002	3.01168E-003	-2.29827E-004	2.60214E-002	2.31251E-002	-1.10755E-003	-1.58208E-003	3.02189E-002	-1.89115E-003
	48	48	1.10042E+000	4.25536E-002	0.00000E+000	4.68270E-002	4.24166E-001	4.18116E-002	4.72163E+001	11	...........	7.00043E-002	-5.35806E-003	6.08252E-001	5.40501E-001	-2.58844E-002	-3.69481E-002	7.06215E-001	-4.41375E-002	2.97894E-003	-2.28005E-004	2.58833E-002	2.30003E-002	-1.10148E-003	-1.57227E-003	3.00520E-002	-1.87821E-003
	49	49	1.10032E+000	4.23018E-002	0.00000E+000	4.65456E-002	4.21654E-001	4.23054E-002	4.90067E+001	11	...........	7.08112E-002	-5.34486E-003	6.08395E-001	5.40528E-001	-2.58249E-002	-3.69071E-002	7.06233E-001	-4.41656E-002	2.99545E-003	-2.26097E-004	2.57362E-002	2.28653E-002	-1.09244E-003	-1.56124E-003	2.98750E-002	-1.86828E-003
	50	50	1.10033E+000	4.25227E-002	0.00000E+000	4.67889E-002	4.23861E-001	4.20411E-002	4.89908E+001	11	...........	7.03854E-002	-5.38597E-003	6.08434E-001	5.40473E-001	-2.58669E-002	-3.69843E-002	7.06085E-001	-4.41533E-002	2.99298E-003	-2.29026E-004	2.58723E-002	2.29824E-002	-1.09993E-003	-1.57267E-003	3.00246E-002	-1.87752E-003
	51	51	1.10043E+000	4.22393E-002	0.00000E+000	4.64813E-002	4.21042E-001	4.19228E-002	4.59812E+001	11	...........	7.01642E-002	-5.33347E-003	6.08471E-001	5.40477E-001	-2.58501E-002	-3.69800E-002	7.06158E-001	-4.41322E-002	2.96369E-003	-2.25282E-004	2.57014E-002	2.28294E-002	-1.09189E-003	-1.56201E-003	2.98276E-002	-1.86411E-003
	52	52	1.10032E+000	4.19670E-002	0.00000E+000	4.61770E-002	4.18338E-001	4.17575E-002	4.82509E+001	11	...........	6.99151E-002	-5.35833E-003	6.08328E-001	5.40379E-001	-2.59331E-002	-3.69928E-002	7.06156E-001	-4.42086E-002	2.93413E-003	-2.24873E-004	2.55297E-002	2.26781E-002	-1.08833E-003	-1.55247E-003	2.96353E-002	-1.85530E-003
	53	53	1.10033E+000	4.22154E-002	0.00000E+000	4.64508E-002	4.20799E-001	4.20034E-002	4.90918E+001	11	...........	7.03089E-002	-5.42903E-003	6.08417E-001	5.40445E-001	-2.58883E-002	-3.69168E-002	7.06210E-001	-4.41115E-002	2.96812E-003	-2.29189E-004	2.56846E-002	2.28151E-002	-1.09289E-003	-1.55846E-003	2.98130E-002	-1.86219E-003
	54	54	1.10042E+000	4.20010E-002	0.00000E+000	4.62188E-002	4.18662E-001	4.19407E-002	4.82815E+001	11	...........	7.02117E-002	-5.38819E-003	6.08224E-001	5.40456E-001	-2.58112E-002	-3.68567E-002	7.06267E-001	-4.40153E-002	2.94896E-003	-2.26310E-004	2.55460E-002	2.26997E-002	-1.08410E-003	-1.54802E-003	2.96640E-002	-1.84869E-003
	55	55	1.10033E+000	4.16532E-002	0.00000E+000	4.58321E-002	4.15206E-001	4.18645E-002	4.88442E+001	11	...........	7.00749E-002	-5.35139E-003	6.08287E-001	5.40348E-001	-2.58497E-002	-3.68987E-002	7.06424E-001	-4.41783E-002	2.91884E-003	-2.22902E-004	2.53371E-002	2.25072E-002	-1.07672E-003	-1.53695E-003	2.94248E-002	-1.84017E-003
	56	56	1.10033E+000	4.18747E-002	0.00000E+000	4.60758E-002	4.17414E-001	4.19137E-002	4.91748E+001	11	...........	7.01343E-002	-5.30611E-003	6.08362E-001	5.40345E-001	-2.58878E-002	-3.68917E-002	7.06428E-001	-4.40454E-002	2.93685E-003	-2.22192E-004	2.54750E-002	2.26268E-002	-1.08404E-003	-1.54483E-003	2.95815E-002	-1.84439E-003
	57	57	1.10042E+000	4.16097E-002	0.00000E+000	4.57881E-002	4.14773E-001	4.17253E-002	4.60589E+001	11	...........	6.98258E-002	-5.26903E-003	6.08335E-001	5.40382E-001	-2.58532E-002	-3.68810E-002	7.06495E-001	-4.39839E-002	2.90543E-003	-2.19243E-004	2.53127E-002	2.24851E-002	-1.07574E-003	-1.53461E-003	2.93971E-002	-1.83016E-003
	58	58	1.10033E+000	4.13567E-002	0.00000E+000	4.55059E-002	4.12258E-001	4.16620E-002	4.79031E+001	11	...........	6.97299E-002	-5.15583E-003	6.08344E-001	5.40558E-001	-2.58281E-002	-3.68769E-002	7.06425E-001	-4.39851E-002	2.88380E-003	-2.13228E-004	2.51591E-002	2.23557E-002	-1.06816E-003	-1.52511E-003	2.92154E-002	-1.81908E-003
	59	59	1.10032E+000	4.16063E-002	0.00000E+000	4.57804E-002	4.14741E-001	4.19882E-002	4.94252E+001	11	...........	7.02736E-002	-5.33694E-003	6.08494E-001	5.40534E-001	-2.58447E-002	-3.68869E-002	7.06446E-001	-4.41393E-002	2.92383E-003	-2.22051E-004	2.53172E-002	2.24896E-002	-1.07530E-003	-1.53473E-003	2.93926E-002	-1.83647E-003
	60	60	1.10042E+000	4.14034E-002	0.00000E+000	4.55610E-002	4.12729E-001	4.17521E-002	4.83908E+001	11	...........	6.98924E-002	-5.49986E-003	6.08285E-001	5.40454E-001	-2.58789E-002	-3.69604E-002	7.06339E-001	-4.41842E-002	2.89378E-003	-2.27713E-004	2.51850E-002	2.23766E-002	-1.07147E-003	-1.53029E-003	2.92448E-002	-1.82937E-003
	61	61	1.10033E+000	4.10283E-002	0.00000E+000	4.51448E-002	4.09001E-001	4.16870E-002	4.88357E+001	11	...........	6.98132E-002	-5.45167E-003	6.08214E-001	5.40426E-001	-2.58850E-002	-3.69781E-002	7.06327E-001	-4.40461E-002	2.86432E-003	-2.23673E-004	2.49540E-002	2.21728E-002	-1.06202E-003	-1.51715E-003	2.89794E-002	-1.80714E-003
	62	62	1.10032E+000	4.12156E-002	0.00000E+000	4.53506E-002	4.10864E-001	4.15890E-002	4.58631E+001	11	...........	6.96510E-002	-5.39847E-003	6.08362E-001	5.40458E-001	-2.58667E-002	-3.69353E-002	7.06317E-001	-4.40992E-002	2.87071E-003	-2.22501E-004	2.50740E-002	2.22753E-002	-1.06611E-003	-1.52231E-003	2.91113E-002	-1.81757E-003
	63	63	1.10041E+000	4.11132E-002	0.00000E+000	4.52415E-002	4.09848E-001	4.14383E-002	4.69117E+001	11	...........	6.93904E-002	-5.38042E-003	6.08177E-001	5.40469E-001	-2.58872E-002	-3.69757E-002	7.06358E-001	-4.40767E-002	2.85286E-003	-2.21206E-004	2.50041E-002	2.22204E-002	-1.06431E-003	-1.52019E-003	2.90406E-002	-1.81213E-003
	64	64	1.10034E+000	4.07650E-002	0.00000E+000	4.48552E-002	4.06378E-001	4.18727E-002	4.91965E+001	11	...........	7.01289E-002	-5.46611E-003	6.08211E-001	5.40565E-001	-2.58410E-002	-3.69211E-002	7.06405E-001	-4.40118E-002	2.85881E-003	-2.22826E-004	2.47937E-002	2.20361E-002	-1.05341E-003	-1.50509E-003	2.87966E-002	-1.79414E-003
	65	65	1.10032E+000	4.09799E-002	0.00000E+000	4.50911E-002	4.08519E-001	4.16413E-002	4.91387E+001	11	...........	6.97376E-002	-5.42819E-003	6.08094E-001	5.40398E-001	-2.58672E-002	-3.69304E-002	7.06435E-001	-4.41271E-002	2.85784E-003	-2.22447E-004	2.49196E-002	2.21455E-002	-1.06004E-003	-1.51340E-003	2.89496E-002	-1.80832E-003
	66	66	1.10041E+000	4.08184E-002	0.00000E+000	4.49172E-002	4.06907E-001	4.16019E-002	4.84838E+001	11	...........	6.96535E-002	-5.28972E-003	6.07992E-001	5.40279E-001	-2.58174E-002	-3.68911E-002	7.06518E-001	-4.40332E-002	2.84315E-003	-2.15918E-004	2.48173E-002	2.20533E-002	-1.05382E-003	-1.50584E-003	2.88389E-002	-1.79737E-003
	67	67	1.10034E+000	4.03959E-002	0.00000E+000	4.44491E-002	4.02702E-001	4.16721E-002	4.86267E+001	11	...........	6.97622E-002	-5.30208E-003	6.07930E-001	5.40215E-001	-2.58060E-002	-3.68774E-002	7.06435E-001	-4.40035E-002	2.81811E-003	-2.14182E-004	2.45579E-002	2.18224E-002	-1.04245E-003	-1.48969E-003	2.85371E-002	-1.77756E-003
	68	68	1.10032E+000	4.05971E-002	0.00000E+000	4.46700E-002	4.04698E-001	4.14599E-002	4.63343E+001	11	...........	6.93693E-002	-5.13514E-003	6.07961E-001	5.40309E-001	-2.57406E-002	-3.68276E-002	7.06523E-001	-4.40192E-002	2.81619E-003	-2.08472E-004	2.46815E-002	2.19350E-002	-1.04499E-003	-1.49510E-003	2.86828E-002	-1.78705E-003
	69	69	1.10041E+000	4.05847E-002	0.00000E+000	4.46597E-002	4.04573E-001	4.16102E-002	4.83414E+001	11	...........	6.96606E-002	-5.21181E-003	6.07893E-001	5.40256E-001	-2.57051E-002	-3.68267E-002	7.06507E-001	-4.39711E-002	2.82715E-003	-2.11519E-004	2.46711E-002	2.19261E-002	-1.04323E-003	-1.49460E-003	2.86734E-002	-1.78455E-003
	70	70	1.10034E+000	4.01698E-002	0.00000E+000	4.42006E-002	4.00451E-001	4.15645E-002	4.92071E+001	11	...........	6.95671E-002	-5.25486E-003	6.08083E-001	5.40413E-001	-2.57274E-002	-3.68365E-002	7.06462E-001	-4.40062E-002	2.79450E-003	-2.11087E-004	2.44266E-002	2.17083E-002	-1.03346E-003	-1.47972E-003	2.83785E-002	-1.76772E-003
	71	71	1.10032E+000	4.03795E-002	0.00000E+000	4.44303E-002	4.02535E-001	4.15627E-002	4.92852E+001	11	...........	6.95685E-002	-5.32806E-003	6.08050E-001	5.40454E-001	-2.57544E-002	-3.68410E-002	7.06715E-001	-4.40824E-002	2.80914E-003	-2.15144E-004	2.45528E-002	2.18233E-002	-1.03995E-003	-1.48762E-003	2.85368E-002	-1.78002E-003
	72	72	1.10041E+000	4.02654E-002	0.00000E+000	4.43084E-002	4.01411E-001	4.15623E-002	4.66865E+001	11	...........	6.95456E-002	-5.38444E-003	6.08003E-001	5.40416E-001	-2.57829E-002	-3.68860E-002	7.06594E-001	-4.40551E-002	2.80028E-003	-2.16807E-004	2.44815E-002	2.17601E-002	-1.03816E-003	-1.48523E-003	2.84512E-002	-1.77390E-003
	73	73	1.10034E+000	3.97967E-002	0.00000E+000	4.37901E-002	3.96740E-001	4.11614E-002	4.73533E+001	11	...........	6.88894E-002	-5.28611E-003	6.07964E-001	5.40486E-001	-2.57267E-002	-3.67928E-002	7.06596E-001	-4.38860E-002	2.74157E-003	-2.10370E-004	2.41950E-002	2.15096E-002	-1.02384E-003	-1.46423E-003	2.81202E-002	-1.74652E-003
	74	74	1.10032E+000	4.01061E-002	0.00000E+000	4.41295E-002	3.99817E-001	4.17327E-002	4.85923E+001	11	...........	6.98446E-002	-5.31542E-003	6.07975E-001	5.40397E-001	-2.57168E-002	-3.67910E-002	7.06561E-001	-4.40187E-002	2.80119E-003	-2.13181E-004	2.43835E-002	2.16732E-002	-1.03140E-003	-1.47554E-003	2.83374E-002	-1.76542E-003
	75	75	1.10041E+000	3.99084E-002	0.00000E+000	4.39154E-002	3.97845E-001	4.12711E-002	4.75925E+001	11	...........	6.90739E-002	-5.25361E-003	6.07718E-001	5.40477E-001	-2.56972E-002	-3.67843E-002	7.06628E-001	-4.40708E-002	2.75663E-003	-2.09663E-004	2.42531E-002	2.15696E-002	-1.02554E-003	-1.46800E-003	2.82004E-002	-1.75880E-003
	76	76	1.10035E+000	3.95781E-002	0.00000E+000	4.35498E-002	3.94566E-001	4.15681E-002	4.90282E+001	11	...........	6.95807E-002	-5.16069E-003	6.07788E-001	5.40432E-001	-2.57172E-002	-3.67850E-002	7.06474E-001	-4.40100E-002	2.75387E-003	-2.04250E-004	2.40551E-002	2.13893E-002	-1.01784E-003	-1.45588E-003	2.79609E-002	-1.74183E-003
	77	77	1.10032E+000	3.97938E-002	0.00000E+000	4.37859E-002	3.96711E-001	4.14874E-002	4.85255E+001	11	...........	6.94560E-002	-5.13722E-003	6.07695E-001	5.40517E-001	-2.57172E-002	-3.67935E-002	7.06425E-001	-4.41112E-002	2.76392E-003	-2.04429E-004	2.41825E-002	2.15092E-002	-1.02339E-003	-1.46415E-003	2.81113E-002	-1.75535E-003
	78	78	1.10040E+000	3.96228E-002	0.00000E+000	4.36010E-002	3.95013E-001	4.10337E-002	4.64864E+001	11	...........	6.86539E-002	-5.14083E-003	6.07638E-001	5.40377E-001	-2.57003E-002	-3.67261E-002	7.06486E-001	-4.40814E-002	2.72026E-003	-2.03694E-004	2.40764E-002	2.14113E-002	-1.01832E-003	-1.45519E-003	2.79930E-002	-1.74663E-003
	79	79	1.10035E+000	3.93093E-002	0.00000E+000	4.32541E-002	3.91899E-001	4.15388E-002	4.75858E+001	11	...........	6.95250E-002	-5.11069E-003	6.07722E-001	5.40254E-001	-2.57293E-002	-3.67621E-002	7.06495E-001	-4.39417E-002	2.73298E-003	-2.00898E-004	2.38891E-002	2.12370E-002	-1.01140E-003	-1.44509E-003	2.77718E-002	-1.72732E-003
	80	80	1.10032E+000	3.95116E-002	0.00000E+000	4.34752E-002	3.93912E-001	4.13105E-002	4.91911E+001	11	...........	6.91410E-002	-5.03417E-003	6.07558E-001	5.40374E-001	-2.57729E-002	-3.67878E-002	7.06469E-001	-4.40224E-002	2.73187E-003	-1.98908E-004	2.40056E-002	2.13510E-002	-1.01833E-003	-1.45354E-003	2.79137E-002	-1.73939E-003
	81	81	1.10040E+000	3.94216E-002	0.00000E+000	4.33796E-002	3.93026E-001	4.13810E-002	4.88540E+001	11	...........	6.92454E-002	-5.25361E-003	6.07685E-001	5.40282E-001	-2.57872E-002	-3.68160E-002	7.06498E-001	-4.41412E-002	2.72976E-003	-2.07106E-004	2.39559E-002	2.12988E-002	-1.01657E-003	-1.45134E-003	2.78513E-002	-1.74012E-003
	82	82	1.10035E+000	3.89328E-002	0.00000E+000	4.28399E-002	3.88164E-001	4.10923E-002	4.63565E+001	11	...........	6.87851E-002	-5.22875E-003	6.07710E-001	5.40296E-001	-2.57918E-002	-3.68411E-002	7.06462E-001	-4.41504E-002	2.67800E-003	-2.03570E-004	2.36598E-002	2.10352E-002	-1.00415E-003	-1.43433E-003	2.75045E-002	-1.71890E-003
	83	83	1.10031E+000	3.92423E-002	0.00000E+000	4.31789E-002	3.91245E-001	4.14072E-002	4.86380E+001	11	...........	6.93033E-002	-5.22458E-003	6.07836E-001	5.40176E-001	-2.57786E-002	-3.68418E-002	7.06443E-001	-4.41015E-002	2.71962E-003	-2.05025E-004	2.38529E-002	2.11978E-002	-1.01161E-003	-1.44576E-003	2.77225E-002	-1.73065E-003
	84	84	1.10040E+000	3.91489E-002	0.00000E+000	4.30794E-002	3.90323E-001	4.11683E-002	4.90626E+001	11	...........	6.89437E-002	-5.27611E-003	6.08122E-001	5.40068E-001	-2.57950E-002	-3.68706E-002	7.06413E-001	-4.41203E-002	2.69907E-003	-2.06554E-004	2.38073E-002	2.11430E-002	-1.00984E-003	-1.44344E-003	2.76553E-002	-1.72726E-003
	85	85	1.10036E+000	3.86864E-002	0.00000E+000	4.25690E-002	3.85717E-001	4.12957E-002	4.69424E+001	11	...........	6.91111E-002	-5.11972E-003	6.08456E-001	5.40185E-001	-2.57256E-002	-3.68008E-002	7.06380E-001	-4.40621E-002	2.67366E-003	-1.98064E-004	2.35390E-002	2.08978E-002	-9.95229E-004	-1.42369E-003	2.73273E-002	-1.70460E-003
	86	86	1.10032E+000	3.89874E-002	0.00000E+000	4.28985E-002	3.88711E-001	4.12857E-002	4.76089E+001	11	...........	6.91312E-002	-5.25889E-003	6.08532E-001	5.40104E-001	-2.57436E-002	-3.67989E-002	7.06333E-001	-4.40289E-002	2.69525E-003	-2.05031E-004	2.37251E-002	2.10572E-002	-1.00368E-003	-1.43469E-003	2.75381E-002	-1.71657E-003
	87	87	1.10039E+000	3.89032E-002	0.00000E+000	4.28088E-002	3.87869E-001	4.10530E-002	4.89667E+001	11	...........	6.87332E-002	-5.26222E-003	6.08532E-001	5.40143E-001	-2.57593E-002	-3.68015E-002	7.06269E-001	-4.39953E-002	2.67394E-003	-2.04717E-004	2.36738E-002	2.10133E-002	-1.00212E-003	-1.43170E-003	2.74761E-002	-1.71156E-003
	88	88	1.10036E+000	3.84452E-002	0.00000E+000	4.23036E-002	3.83323E-001	4.11803E-002	4.88225E+001	11	...........	6.89365E-002	-5.39347E-003	6.08571E-001	5.40140E-001	-2.57617E-002	-3.68237E-002	7.06347E-001	-4.40840E-002	2.65028E-003	-2.07353E-004	2.33966E-002	2.07658E-002	-9.90412E-004	-1.41570E-003	2.71556E-002	-1.69482E-003
	89	89	1.10031E+000	3.86712E-002	0.00000E+000	4.25504E-002	3.85576E-001	4.11028E-002	4.88001E+001	11	...........	6.88249E-002	-5.43153E-003	6.08534E-001	5.40232E-001	-2.58025E-002	-3.68622E-002	7.06399E-001	-4.41136E-002	2.66154E-003	-2.10044E-004	2.35327E-002	2.08914E-002	-9.97813E-004	-1.42551E-003	2.73173E-002	-1.70593E-003
	90	90	1.10039E+000	3.85720E-002	0.00000E+000	4.24443E-002	3.84589E-001	4.10079E-002	4.72757E+001	11	...........	6.86557E-002	-5.37111E-003	6.08261E-001	5.40397E-001	-2.57812E-002	-3.68276E-002	7.06379E-001	-4.41214E-002	2.64819E-003	-2.07175E-004	2.34619E-002	2.08442E-002	-9.94435E-004	-1.42052E-003	2.72465E-002	-1.70185E-003
	91	91	1.10037E+000	3.81218E-002	0.00000E+000	4.19481E-002	3.80109E-001	4.08580E-002	4.74169E+001	11	...........	6.84193E-002	-5.34472E-003	6.08148E-001	5.40521E-001	-2.57769E-002	-3.67849E-002	7.06422E-001	-4.39775E-002	2.60827E-003	-2.03751E-004	2.31837E-002	2.06057E-002	-9.82664E-004	-1.40231E-003	2.69301E-002	-1.67650E-003
	92	92	1.10031E+000	3.84244E-002	0.00000E+000	4.22789E-002	3.83118E-001	4.13047E-002	4.94820E+001	11	...........	6.91537E-002	-5.35278E-003	6.08157E-001	5.40490E-001	-2.57906E-002	-3.68222E-002	7.06301E-001	-4.40832E-002	2.65719E-003	-2.05677E-004	2.33681E-002	2.07680E-002	-9.90988E-004	-1.41487E-003	2.71392E-002	-1.69387E-003
	93	93	1.10039E+000	3.83148E-002	0.00000E+000	4.21612E-002	3.82033E-001	4.09517E-002	4.71580E+001	11	...........	6.85560E-002	-5.39931E-003	6.08041E-001	5.40412E-001	-2.57775E-002	-3.68278E-002	7.06208E-001	-4.40804E-002	2.62671E-003	-2.06874E-004	2.32970E-002	2.07058E-002	-9.87661E-004	-1.41105E-003	2.70583E-002	-1.68893E-003
	94	94	1.10037E+000	3.79345E-002	0.00000E+000	4.17421E-002	3.78246E-001	4.10967E-002	4.89409E+001	11	...........	6.88343E-002	-5.29750E-003	6.08199E-001	5.40493E-001	-2.57286E-002	-3.67792E-002	7.06312E-001	-4.40246E-002	2.61119E-003	-2.00958E-004	2.30717E-002	2.05033E-002	-9.76001E-004	-1.39520E-003	2.67936E-002	-1.67005E-003
	95	95	1.10031E+000	3.80476E-002	0.00000E+000	4.18643E-002	3.79369E-001	4.09743E-002	4.85766E+001	11	...........	6.85674E-002	-5.28528E-003	6.08261E-001	5.40532E-001	-2.57419E-002	-3.67228E-002	7.06203E-001	-4.41699E-002	2.60883E-003	-2.01092E-004	2.31429E-002	2.05659E-002	-9.79420E-004	-1.39721E-003	2.68693E-002	-1.68056E-003
	96	96	1.10039E+000	3.80865E-002	0.00000E+000	4.19098E-002	3.79759E-001	4.10669E-002	4.67345E+001	11	...........	6.87514E-002	-5.39583E-003	6.08232E-001	5.40392E-001	-2.57758E-002	-3.67935E-002	7.06178E-001	-4.42085E-002	2.61850E-003	-2.05508E-004	2.31654E-002	2.05816E-002	-9.81710E-004	-1.40133E-003	2.68958E-002	-1.68374E-003
	97	97	1.10038E+000	3.76106E-002	0.00000E+000	4.13858E-002	3.75029E-001	4.06776E-002	4.77694E+001	11	...........	6.81028E-002	-5.43194E-003	6.08154E-001	5.40433E-001	-2.58006E-002	-3.67712E-002	7.06179E-001	-4.42396E-002	2.56139E-003	-2.04299E-004	2.28731E-002	2.03260E-002	-9.70375E-004	-1.38299E-003	2.65598E-002	-1.66388E-003
	98	98	1.10031E+000	3.78465E-002	0.00000E+000	4.16429E-002	3.77363E-001	4.11419E-002	4.90348E+001	11	...........	6.88839E-002	-5.47903E-003	6.08143E-001	5.40456E-001	-2.57278E-002	-3.67076E-002	7.06314E-001	-4.40782E-002	2.60702E-003	-2.07362E-004	2.30161E-002	2.04544E-002	-9.73707E-004	-1.38926E-003	2.67315E-002	-1.66821E-003
	99	99	1.10038E+000	3.77975E-002	0.00000E+000	4.15917E-002	3.76879E-001	4.09142E-002	4.87069E+001	11	...........	6.84933E-002	-5.43333E-003	6.08195E-001	5.40394E-001	-2.57425E-002	-3.67047E-002	7.06271E-001	-4.41274E-002	2.58887E-003	-2.05366E-004	2.29882E-002	2.04255E-002	-9.73001E-004	-1.38735E-003	2.66952E-002	-1.66790E-003
	100	100	1.10038E+000	3.73628E-002	0.00000E+000	4.11134E-002	3.72557E-001	4.09197E-002	4.82989E+001	11	...........	6.85096E-002	-5.43319E-003	6.08084E-001	5.40381E-001	-2.57749E-002	-3.66754E-002	7.06264E-001	-4.41811E-002	2.55971E-003	-2.02999E-004	2.27197E-002	2.01901E-002	-9.63021E-004	-1.37030E-003	2.63880E-002	-1.65073E-003
	101	101	1.10031E+000	3.75501E-002	0.00000E+000	4.13167E-002	3.74411E-001	4.10557E-002	4.87411E+001	11	...........	6.87167E-002	-5.33722E-003	6.08206E-001	5.40442E-001	-2.57221E-002	-3.66433E-002	7.06311E-001	-4.41917E-002	2.58032E-003	-2.00413E-004	2.28382E-002	2.02937E-002	-9.65868E-004	-1.37596E-003	2.65221E-002	-1.65940E-003
	102	102	1.10038E+000	3.74725E-002	0.00000E+000	4.12339E-002	3.73633E-001	4.07618E-002	4.54958E+001	11	...........	6.82132E-002	-5.24542E-003	6.08512E-001	5.40415E-001	-2.56922E-002	-3.66044E-002	7.06394E-001	-4.41033E-002	2.55612E-003	-1.96559E-004	2.28024E-002	2.02507E-002	-9.62751E-004	-1.37166E-003	2.64703E-002	-1.65266E-003
	103	103	1.10038E+000	3.71344E-002	0.00000E+000	4.08621E-002	3.70283E-001	4.08595E-002	4.86936E+001	11	...........	6.83792E-002	-5.31958E-003	6.08402E-001	5.40289E-001	-2.57797E-002	-3.66879E-002	7.06308E-001	-4.39940E-002	2.53922E-003	-1.97540E-004	2.25926E-002	2.00633E-002	-9.57315E-004	-1.36238E-003	2.62283E-002	-1.63369E-003
	104	104	1.10031E+000	3.73014E-002	0.00000E+000	4.10430E-002	3.71948E-001	4.09449E-002	4.95167E+001	11	...........	6.85608E-002	-5.35708E-003	6.08425E-001	5.40405E-001	-2.58208E-002	-3.67122E-002	7.06309E-001	-4.40050E-002	2.55741E-003	-1.99826E-004	2.26951E-002	2.01579E-002	-9.63152E-004	-1.36942E-003	2.63463E-002	-1.64145E-003
	105	105	1.10038E+000	3.72688E-002	0.00000E+000	4.10097E-002	3.71623E-001	4.07806E-002	4.76190E+001	11	...........	6.82762E-002	-5.40514E-003	6.08310E-001	5.40557E-001	-2.58339E-002	-3.67106E-002	7.06374E-001	-4.40112E-002	2.54457E-003	-2.01443E-004	2.26710E-002	2.01459E-002	-9.62798E-004	-1.36816E-003	2.63257E-002	-1.64025E-003
	106	106	1.10039E+000	3.68352E-002	0.00000E+000	4.05330E-002	3.67309E-001	4.07203E-002	4.77204E+001	11	...........	6.81550E-002	-5.43181E-003	6.08409E-001	5.40488E-001	-2.58290E-002	-3.67217E-002	7.06378E-001	-4.41825E-002	2.51050E-003	-2.00082E-004	2.24108E-002	1.99090E-002	-9.51417E-004	-1.35265E-003	2.60196E-002	-1.62747E-003
	107	107	1.10031E+000	3.70442E-002	0.00000E+000	4.07600E-002	3.69387E-001	4.09274E-002	4.87704E+001	11	...........	6.85369E-002	-5.36625E-003	6.08415E-001	5.40505E-001	-2.57831E-002	-3.66917E-002	7.06399E-001	-4.40244E-002	2.53890E-003	-1.98788E-004	2.25382E-002	2.00226E-002	-9.55113E-004	-1.35921E-003	2.61680E-002	-1.63085E-003
	108	108	1.10037E+000	3.69736E-002	0.00000E+000	4.06847E-002	3.68680E-001	4.05249E-002	4.68331E+001	11	...........	6.78415E-002	-5.31722E-003	6.08474E-001	5.40360E-001	-2.57543E-002	-3.66794E-002	7.06398E-001	-4.39472E-002	2.50834E-003	-1.96597E-004	2.24975E-002	1.99790E-002	-9.52229E-004	-1.35617E-003	2.61180E-002	-1.62489E-003
	109	109	1.10039E+000	3.66156E-002	0.00000E+000	4.02916E-002	3.65128E-001	4.07408E-002	4.81631E+001	11	...........	6.82050E-002	-5.36694E-003	6.08533E-001	5.40119E-001	-2.57794E-002	-3.66812E-002	7.06331E-001	-4.40137E-002	2.49737E-003	-1.96514E-004	2.22818E-002	1.97768E-002	-9.43930E-004	-1.34311E-003	2.58627E-002	-1.61159E-003
	110	110	1.10030E+000	3.67602E-002	0.00000E+000	4.04474E-002	3.66579E-001	4.08330E-002	4.94522E+001	11	...........	6.83869E-002	-5.35111E-003	6.08504E-001	5.39807E-001	-2.58579E-002	-3.67500E-002	7.06294E-001	-4.41451E-002	2.51392E-003	-1.96708E-004	2.23688E-002	1.98434E-002	-9.50543E-004	-1.35094E-003	2.59635E-002	-1.62279E-003
	111	111	1.10037E+000	3.67831E-002	0.00000E+000	4.04751E-002	3.66797E-001	4.06364E-002	4.83576E+001	11	...........	6.80233E-002	-5.24361E-003	6.08408E-001	5.39778E-001	-2.58171E-002	-3.66858E-002	7.06421E-001	-4.42304E-002	2.50211E-003	-1.92876E-004	2.23792E-002	1.98547E-002	-9.49633E-004	-1.34942E-003	2.59844E-002	-1.62693E-003
	112	112	1.10040E+000	3.63150E-002	0.00000E+000	3.99610E-002	3.62144E-001	4.05742E-002	4.78560E+001	11	...........	6.79512E-002	-5.25708E-003	6.08355E-001	5.39643E-001	-2.58110E-002	-3.66897E-002	7.06502E-001	-4.41196E-002	2.46765E-003	-1.90911E-004	2.20924E-002	1.95971E-002	-9.37326E-004	-1.33239E-003	2.56567E-002	-1.60220E-003
	113	113	1.10030E+000	3.64394E-002	0.00000E+000	4.00945E-002	3.63387E-001	4.04808E-002	4.71848E+001	11	...........	6.78118E-002	-5.38056E-003	6.08329E-001	5.39478E-001	-2.58662E-002	-3.67401E-002	7.06429E-001	-4.42581E-002	2.47102E-003	-1.96064E-004	2.21672E-002	1.96583E-002	-9.42552E-004	-1.33879E-003	2.57419E-002	-1.61274E-003
	114	114	1.10037E+000	3.65230E-002	0.00000E+000	4.01887E-002	3.64214E-001	4.07679E-002	4.91802E+001	11	...........	6.82814E-002	-5.39917E-003	6.08532E-001	5.39384E-001	-2.58611E-002	-3.67312E-002	7.06445E-001	-4.42717E-002	2.49384E-003	-1.97194E-004	2.22254E-002	1.96999E-002	-9.44526E-004	-1.34154E-003	2.58015E-002	-1.61693E-003
	115	115	1.10040E+000	3.61172E-002	0.00000E+000	3.97435E-002	3.60165E-001	4.06634E-002	4.87365E+001	11	...........	6.80724E-002	-5.32181E-003	6.08540E-001	5.39428E-001	-2.57811E-002	-3.66700E-002	7.06552E-001	-4.41331E-002	2.45859E-003	-1.92209E-004	2.19788E-002	1.94827E-002	-9.31143E-004	-1.32442E-003	2.55187E-002	-1.59396E-003
	116	116	1.10030E+000	3.62590E-002	0.00000E+000	3.98959E-002	3.61578E-001	4.06047E-002	4.85747E+001	11	...........	6.79575E-002	-5.37181E-003	6.08578E-001	5.39449E-001	-2.57786E-002	-3.66819E-002	7.06501E-001	-4.42592E-002	2.46407E-003	-1.94776E-004	2.20664E-002	1.95599E-002	-9.34707E-004	-1.33005E-003	2.56170E-002	-1.60479E-003
	117	117	1.10036E+000	3.62693E-002	0.00000E+000	3.99094E-002	3.61683E-001	4.06443E-002	4.83048E+001	11	...........	6.80653E-002	-5.47125E-003	6.08531E-001	5.39485E-001	-2.57772E-002	-3.67254E-002	7.06489E-001	-4.42732E-002	2.46868E-003	-1.98438E-004	2.20710E-002	1.95667E-002	-9.34922E-004	-1.33201E-003	2.56239E-002	-1.60576E-003
	118	118	1.10040E+000	3.58070E-002	0.00000E+000	3.94021E-002	3.57087E-001	4.04311E-002	4.85574E+001	11	...........	6.76914E-002	-5.33167E-003	6.08443E-001	5.39653E-001	-2.57521E-002	-3.67785E-002	7.06393E-001	-4.41539E-002	2.42382E-003	-1.90911E-004	2.17865E-002	1.93233E-002	-9.22104E-004	-1.31693E-003	2.52938E-002	-1.58102E-003
	119	119	1.10030E+000	3.59085E-002	0.00000E+000	3.95102E-002	3.58091E-001	4.05599E-002	4.63786E+001	11	...........	6.78811E-002	-5.28056E-003	6.08444E-001	5.39816E-001	-2.57450E-002	-3.67540E-002	7.06466E-001	-4.40307E-002	2.43751E-003	-1.89617E-004	2.18483E-002	1.93840E-002	-9.24464E-004	-1.31978E-003	2.53681E-002	-1.58108E-003
	120	120	1.10036E+000	3.60237E-002	0.00000E+000	3.96391E-002	3.59247E-001	4.05303E-002	4.89533E+001	11	...........	6.78819E-002	-5.25861E-003	6.08413E-001	5.39925E-001	-2.58210E-002	-3.68414E-002	7.06411E-001	-4.39450E-002	2.44536E-003	-1.89434E-004	2.19173E-002	1.94501E-002	-9.30166E-004	-1.32716E-003	2.54475E-002	-1.58306E-003
	121	121	1.10041E+000	3.56095E-002	0.00000E+000	3.91850E-002	3.55127E-001	4.05124E-002	4.96150E+001	11	...........	6.78388E-002	-5.34403E-003	6.08546E-001	5.39755E-001	-2.58489E-002	-3.67926E-002	7.06317E-001	-4.40167E-002	2.41570E-003	-1.90298E-004	2.16700E-002	1.92204E-002	-9.20466E-004	-1.31017E-003	2.51516E-002	-1.56741E-003
	122	122	1.10030E+000	3.57229E-002	0.00000E+000	3.93060E-002	3.56251E-001	4.04737E-002	4.78564E+001	11	...........	6.77647E-002	-5.25917E-003	6.08611E-001	5.39695E-001	-2.58535E-002	-3.68071E-002	7.06534E-001	-4.40639E-002	2.42075E-003	-1.87873E-004	2.17413E-002	1.92795E-002	-9.23561E-004	-1.31486E-003	2.52394E-002	-1.57409E-003
	123	123	1.10036E+000	3.57555E-002	0.00000E+000	3.93439E-002	3.56571E-001	4.05234E-002	4.82893E+001	11	...........	6.78430E-002	-5.26514E-003	6.08810E-001	5.39722E-001	-2.57814E-002	-3.67428E-002	7.06541E-001	-4.41033E-002	2.42576E-003	-1.88258E-004	2.17683E-002	1.92980E-002	-9.21826E-004	-1.31376E-003	2.52627E-002	-1.57694E-003
	124	124	1.10041E+000	3.53053E-002	0.00000E+000	3.88503E-002	3.52092E-001	4.02168E-002	4.72444E+001	11	...........	6.73289E-002	-5.28833E-003	6.08914E-001	5.39784E-001	-2.57994E-002	-3.67165E-002	7.06603E-001	-4.40372E-002	2.37707E-003	-1.86706E-004	2.14979E-002	1.90572E-002	-9.10857E-004	-1.29629E-003	2.49468E-002	-1.55475E-003
	125	125	1.10030E+000	3.54548E-002	0.00000E+000	3.90110E-002	3.53579E-001	4.06203E-002	4.92311E+001	11	...........	6.79876E-002	-5.21792E-003	6.08776E-001	5.39802E-001	-2.58082E-002	-3.67257E-002	7.06593E-001	-4.41147E-002	2.41049E-003	-1.85000E-004	2.15840E-002	1.91386E-002	-9.15024E-004	-1.30210E-003	2.50521E-002	-1.56408E-003
	126	126	1.10036E+000	3.55370E-002	0.00000E+000	3.91034E-002	3.54397E-001	4.04975E-002	4.87825E+001	11	...........	6.77822E-002	-5.24528E-003	6.08788E-001	5.39784E-001	-2.58150E-002	-3.67400E-002	7.06512E-001	-4.40074E-002	2.40878E-003	-1.86401E-004	2.16345E-002	1.91823E-002	-9.17387E-004	-1.30563E-003	2.51073E-002	-1.56389E-003
	127	127	1.10041E+000	3.51336E-002	0.00000E+000	3.86615E-002	3.50389E-001	4.03529E-002	4.91315E+001	11	...........	6.75678E-002	-5.34319E-003	6.08764E-001	5.39715E-001	-2.58300E-002	-3.67718E-002	7.06385E-001	-4.40664E-002	2.37390E-003	-1.87726E-004	2.13881E-002	1.89621E-002	-9.07501E-004	-1.29193E-003	2.48178E-002	-1.54821E-003
	128	128	1.10030E+000	3.51850E-002	0.00000E+000	3.87141E-002	3.50897E-001	4.05194E-002	4.77571E+001	11	...........	6.78494E-002	-5.38778E-003	6.09061E-001	5.39549E-001	-2.58119E-002	-3.67228E-002	7.06446E-001	-4.40786E-002	2.38728E-003	-1.89569E-004	2.14298E-002	1.89840E-002	-9.08193E-004	-1.29209E-003	2.48563E-002	-1.55091E-003
	129	129	1.10035E+000	3.52082E-002	0.00000E+000	3.87415E-002	3.51123E-001	4.00248E-002	4.58402E+001	11	...........	6.70037E-002	-5.38833E-003	6.09033E-001	5.39554E-001	-2.58025E-002	-3.66940E-002	7.06400E-001	-4.40240E-002	2.35908E-003	-1.89713E-004	2.14429E-002	1.89967E-002	-9.08459E-004	-1.29193E-003	2.48711E-002	-1.55001E-003
	130	130	1.10041E+000	3.49200E-002	0.00000E+000	3.84265E-002	3.48257E-001	4.06490E-002	4.89006E+001	11	...........	6.80710E-002	-5.33014E-003	6.09011E-001	5.39455E-001	-2.57681E-002	-3.67028E-002	7.06468E-001	-4.39481E-002	2.37704E-003	-1.86128E-004	2.12667E-002	1.88378E-002	-8.99821E-004	-1.28166E-003	2.46699E-002	-1.53467E-003
	131	131	1.10030E+000	3.49537E-002	0.00000E+000	3.84596E-002	3.48597E-001	4.04285E-002	4.71876E+001	11	...........	6.76821E-002	-5.28403E-003	6.08935E-001	5.39404E-001	-2.58318E-002	-3.67864E-002	7.06467E-001	-4.40569E-002	2.36574E-003	-1.84696E-004	2.12846E-002	1.88542E-002	-9.02918E-004	-1.28582E-003	2.46937E-002	-1.53995E-003
	132	132	1.10035E+000	3.50182E-002	0.00000E+000	3.85324E-002	3.49239E-001	3.99523E-002	4.79139E+001	11	...........	6.69250E-002	-5.07847E-003	6.08958E-001	5.39483E-001	-2.58192E-002	-3.67436E-002	7.06543E-001	-4.40592E-002	2.34359E-003	-1.77839E-004	2.13246E-002	1.88917E-002	-9.04140E-004	-1.28669E-003	2.47419E-002	-1.54287E-003
	133	133	1.10042E+000	3.46643E-002	0.00000E+000	3.81452E-002	3.45717E-001	4.05185E-002	4.91319E+001	11	...........	6.77850E-002	-5.15264E-003	6.09084E-001	5.39439E-001	-2.58254E-002	-3.67532E-002	7.06645E-001	-4.40385E-002	2.34972E-003	-1.78612E-004	2.11134E-002	1.86993E-002	-8.95219E-004	-1.27402E-003	2.44953E-002	-1.52656E-003
	134	134	1.10030E+000	3.46876E-002	0.00000E+000	3.81668E-002	3.45954E-001	4.03455E-002	4.94274E+001	11	...........	6.75542E-002	-5.29208E-003	6.09051E-001	5.39332E-001	-2.58251E-002	-3.67900E-002	7.06616E-001	-4.40564E-002	2.34329E-003	-1.83570E-004	2.11265E-002	1.87082E-002	-8.95812E-004	-1.27616E-003	2.45108E-002	-1.52821E-003
	135	135	1.10035E+000	3.47495E-002	0.00000E+000	3.82368E-002	3.46576E-001	4.03083E-002	4.68340E+001	11	...........	6.75110E-002	-5.35944E-003	6.09058E-001	5.39304E-001	-2.58507E-002	-3.68440E-002	7.06521E-001	-4.40583E-002	2.34597E-003	-1.86238E-004	2.11645E-002	1.87406E-002	-8.98300E-004	-1.28031E-003	2.45513E-002	-1.53101E-003
	136	136	1.10042E+000	3.43953E-002	0.00000E+000	3.78491E-002	3.43056E-001	4.01278E-002	4.86351E+001	11	...........	6.71937E-002	-5.41458E-003	6.08920E-001	5.39392E-001	-2.58862E-002	-3.68642E-002	7.06366E-001	-4.41206E-002	2.31115E-003	-1.86236E-004	2.09440E-002	1.85525E-002	-8.90364E-004	-1.26795E-003	2.42957E-002	-1.51754E-003
	137	137	1.10030E+000	3.44669E-002	0.00000E+000	3.79239E-002	3.43769E-001	4.02317E-002	4.95751E+001	11	...........	6.73562E-002	-5.40111E-003	6.08811E-001	5.39488E-001	-2.58749E-002	-3.68864E-002	7.06392E-001	-4.41542E-002	2.32156E-003	-1.86159E-004	2.09838E-002	1.85945E-002	-8.91826E-004	-1.27136E-003	2.43471E-002	-1.52186E-003
	138	138	1.10035E+000	3.45618E-002	0.00000E+000	3.80301E-002	3.44714E-001	4.02736E-002	4.87370E+001	11	...........	6.73867E-002	-5.34236E-003	6.08676E-001	5.39482E-001	-2.58835E-002	-3.69062E-002	7.06390E-001	-4.41751E-002	2.32901E-003	-1.84642E-004	2.10369E-002	1.86455E-002	-8.94580E-004	-1.27555E-003	2.44141E-002	-1.52677E-003
	139	139	1.10042E+000	3.41685E-002	0.00000E+000	3.75997E-002	3.40799E-001	4.00047E-002	4.79515E+001	11	...........	6.69993E-002	-5.41208E-003	6.08634E-001	5.39645E-001	-2.59028E-002	-3.69011E-002	7.06493E-001	-4.41282E-002	2.28927E-003	-1.84923E-004	2.07961E-002	1.84389E-002	-8.85060E-004	-1.26086E-003	2.41398E-002	-1.50780E-003
	140	140	1.10030E+000	3.42085E-002	0.00000E+000	3.76396E-002	3.41192E-001	4.03873E-002	4.68729E+001	11	...........	6.76312E-002	-5.29069E-003	6.08874E-001	5.39828E-001	-2.58983E-002	-3.69031E-002	7.06459E-001	-4.40767E-002	2.31356E-003	-1.80987E-004	2.08286E-002	1.84667E-002	-8.85942E-004	-1.26240E-003	2.41669E-002	-1.50780E-003
	141	141	1.10035E+000	3.43016E-002	0.00000E+000	3.77437E-002	3.42117E-001	4.00282E-002	4.89813E+001	11	...........	6.70311E-002	-5.31278E-003	6.08907E-001	5.39886E-001	-2.58564E-002	-3.69004E-002	7.06637E-001	-4.40862E-002	2.29928E-003	-1.82237E-004	2.08865E-002	1.85190E-002	-8.86916E-004	-1.26574E-003	2.42388E-002	-1.51223E-003
	142	142	1.10042E+000	3.39663E-002	0.00000E+000	3.73773E-002	3.38791E-001	4.02243E-002	4.88893E+001	11	...........	6.73781E-002	-5.24986E-003	6.08949E-001	5.39788E-001	-2.58604E-002	-3.69260E-002	7.06657E-001	-4.40283E-002	2.28858E-003	-1.78318E-004	2.06838E-002	1.83346E-002	-8.78383E-004	-1.25424E-003	2.40025E-002	-1.49548E-003
	143	143	1.10030E+000	3.39402E-002	0.00000E+000	3.73444E-002	3.38534E-001	4.01286E-002	4.90775E+001	11	...........	6.71917E-002	-5.28611E-003	6.08894E-001	5.39779E-001	-2.59082E-002	-3.69761E-002	7.06490E-001	-4.42192E-002	2.28050E-003	-1.79412E-004	2.06660E-002	1.83202E-002	-8.79329E-004	-1.25498E-003	2.39784E-002	-1.50081E-003
	144	144	1.10035E+000	3.40443E-002	0.00000E+000	3.74606E-002	3.39577E-001	4.01061E-002	4.89005E+001	11	...........	6.71624E-002	-5.38819E-003	6.08746E-001	5.39618E-001	-2.59433E-002	-3.70446E-002	7.06470E-001	-4.42286E-002	2.28650E-003	-1.83437E-004	2.07243E-002	1.83709E-002	-8.83223E-004	-1.26116E-003	2.40513E-002	-1.50573E-003
	145	145	1.10042E+000	3.37077E-002	0.00000E+000	3.70927E-002	3.36225E-001	3.98033E-002	4.71551E+001	11	...........	6.66739E-002	-5.50708E-003	6.08757E-001	5.39595E-001	-2.59326E-002	-3.70428E-002	7.06465E-001	-4.41368E-002	2.24743E-003	-1.85631E-004	2.05198E-002	1.81885E-002	-8.74130E-004	-1.24863E-003	2.38133E-002	-1.48775E-003
	146	146	1.10030E+000	3.37245E-002	0.00000E+000	3.71071E-002	3.36398E-001	4.01997E-002	4.83629E+001	11	...........	6.73401E-002	-5.57236E-003	6.08744E-001	5.39506E-001	-2.59639E-002	-3.71085E-002	7.06324E-001	-4.41906E-002	2.27101E-003	-1.87925E-004	2.05296E-002	1.81946E-002	-8.75619E-004	-1.25146E-003	2.38204E-002	-1.49030E-003
	147	147	1.10035E+000	3.38502E-002	0.00000E+000	3.72470E-002	3.37651E-001	4.01118E-002	4.67665E+001	11	...........	6.71857E-002	-5.59264E-003	6.08668E-001	5.39528E-001	-2.59679E-002	-3.70704E-002	7.06290E-001	-4.42833E-002	2.27425E-003	-1.89312E-004	2.06035E-002	1.82631E-002	-8.79018E-004	-1.25484E-003	2.39081E-002	-1.49900E-003
	148	148	1.10042E+000	3.34788E-002	0.00000E+000	3.68408E-002	3.33954E-001	3.98608E-002	4.89840E+001	11	...........	6.67711E-002	-5.58125E-003	6.08733E-001	5.39320E-001	-2.59333E-002	-3.70576E-002	7.06408E-001	-4.42267E-002	2.23542E-003	-1.86854E-004	2.03797E-002	1.80558E-002	-8.68218E-004	-1.24065E-003	2.36497E-002	-1.48066E-003
	149	149	1.10030E+000	3.34909E-002	0.00000E+000	3.68501E-002	3.34080E-001	3.99468E-002	4.91751E+001	11	...........	6.69101E-002	-5.58986E-003	6.08873E-001	5.39310E-001	-2.59628E-002	-3.70651E-002	7.06365E-001	-4.41621E-002	2.24088E-003	-1.87210E-004	2.03917E-002	1.80620E-002	-8.69517E-004	-1.24135E-003	2.36568E-002	-1.47903E-003
	150	150	1.10035E+000	3.35865E-002	0.00000E+000	3.69568E-002	3.35024E-001	4.00597E-002	4.85365E+001	11	...........	6.70694E-002	-5.40333E-003	6.08825E-001	5.39397E-001	-2.59246E-002	-3.70662E-002	7.06364E-001	-4.41464E-002	2.25263E-003	-1.81479E-004	2.04483E-002	1.81165E-002	-8.70717E-004	-1.24493E-003	2.37243E-002	-1.48272E-003
	151	151	1.10042E+000	3.32158E-002	0.00000E+000	3.65514E-002	3.31340E-001	3.96203E-002	4.67158E+001	11	...........	6.63531E-002	-5.49444E-003	6.08767E-001	5.39383E-001	-2.59428E-002	-3.70707E-002	7.06388E-001	-4.41929E-002	2.20397E-003	-1.82502E-004	2.02207E-002	1.79161E-002	-8.61711E-004	-1.23133E-003	2.34633E-002	-1.46790E-003
	152	152	1.10030E+000	3.32463E-002	0.00000E+000	3.65810E-002	3.31645E-001	4.00782E-002	4.87172E+001	11	...........	6.71496E-002	-5.50111E-003	6.08724E-001	5.39497E-001	-2.59396E-002	-3.70518E-002	7.06404E-001	-4.42000E-002	2.23248E-003	-1.82892E-004	2.02378E-002	1.79363E-002	-8.62396E-004	-1.23184E-003	2.34853E-002	-1.46949E-003
	153	153	1.10034E+000	3.33487E-002	0.00000E+000	3.66950E-002	3.32661E-001	3.98958E-002	4.95351E+001	11	...........	6.68081E-002	-5.44208E-003	6.08775E-001	5.39515E-001	-2.59651E-002	-3.70521E-002	7.06452E-001	-4.41272E-002	2.22796E-003	-1.81486E-004	2.03018E-002	1.79921E-002	-8.65903E-004	-1.23564E-003	2.35592E-002	-1.47158E-003
	154	154	1.10042E+000	3.30453E-002	0.00000E+000	3.63639E-002	3.29643E-001	3.99371E-002	4.95075E+001	11	...........	6.68865E-002	-5.46125E-003	6.08670E-001	5.39595E-001	-2.59331E-002	-3.70475E-002	7.06545E-001	-4.41344E-002	2.21029E-003	-1.80469E-004	2.01137E-002	1.78311E-002	-8.56966E-004	-1.22425E-003	2.33480E-002	-1.45844E-003
	155	155	1.10030E+000	3.30008E-002	0.00000E+000	3.63109E-002	3.29203E-001	3.99778E-002	4.84988E+001	11	...........	6.69367E-002	-5.43417E-003	6.08757E-001	5.39723E-001	-2.59637E-002	-3.70385E-002	7.06416E-001	-4.41668E-002	2.20896E-003	-1.79332E-004	2.00895E-002	1.78113E-002	-8.56825E-004	-1.22230E-003	2.33123E-002	-1.45754E-003
	156	156	1.10034E+000	3.30890E-002	0.00000E+000	3.64092E-002	3.30079E-001	3.96199E-002	4.72550E+001	11	...........	6.63362E-002	-5.60319E-003	6.08837E-001	5.39689E-001	-2.59418E-002	-3.69739E-002	7.06412E-001	-4.41001E-002	2.19500E-003	-1.85404E-004	2.01458E-002	1.78578E-002	-8.58389E-004	-1.22343E-003	2.33745E-002	-1.45923E-003
	157	157	1.10042E+000	3.28192E-002	0.00000E+000	3.61150E-002	3.27389E-001	4.00070E-002	4.75595E+001	11	...........	6.69949E-002	-5.50778E-003	6.08816E-001	5.39614E-001	-2.58704E-002	-3.69253E-002	7.06485E-001	-4.39485E-002	2.19872E-003	-1.80761E-004	1.99809E-002	1.77097E-002	-8.49047E-004	-1.21186E-003	2.31863E-002	-1.44235E-003
	158	158	1.10031E+000	3.27587E-002	0.00000E+000	3.60448E-002	3.26791E-001	4.00115E-002	4.77758E+001	11	...........	6.70212E-002	-5.52625E-003	6.08913E-001	5.39649E-001	-2.58804E-002	-3.69685E-002	7.06281E-001	-4.39490E-002	2.19553E-003	-1.81033E-004	1.99472E-002	1.76782E-002	-8.47810E-004	-1.21104E-003	2.31369E-002	-1.43971E-003
	159	159	1.10034E+000	3.29060E-002	0.00000E+000	3.62077E-002	3.28257E-001	3.97813E-002	4.90035E+001	11	...........	6.66346E-002	-5.41403E-003	6.08916E-001	5.39621E-001	-2.59328E-002	-3.69790E-002	7.06229E-001	-4.40419E-002	2.19268E-003	-1.78154E-004	2.00370E-002	1.77568E-002	-8.53343E-004	-1.21683E-003	2.32392E-002	-1.44924E-003
	160	160	1.10042E+000	3.25986E-002	0.00000E+000	3.58723E-002	3.25198E-001	3.98790E-002	4.86705E+001	11	...........	6.68147E-002	-5.44444E-003	6.09019E-001	5.39637E-001	-2.59328E-002	-3.69940E-002	7.06222E-001	-4.40225E-002	2.17807E-003	-1.77481E-004	1.98532E-002	1.75914E-002	-8.45373E-004	-1.20595E-003	2.30219E-002	-1.43507E-003
	161	161	1.10031E+000	3.24972E-002	0.00000E+000	3.57569E-002	3.24191E-001	3.95778E-002	4.58081E+001	11	...........	6.62701E-002	-5.44597E-003	6.09117E-001	5.39686E-001	-2.59267E-002	-3.70212E-002	7.06268E-001	-4.41133E-002	2.15360E-003	-1.76979E-004	1.97946E-002	1.75383E-002	-8.42545E-004	-1.20309E-003	2.29517E-002	-1.43356E-003
	162	162	1.10034E+000	3.26720E-002	0.00000E+000	3.59504E-002	3.25941E-001	3.97608E-002	4.69286E+001	11	...........	6.65897E-002	-5.48542E-003	6.09038E-001	5.39831E-001	-2.60064E-002	-3.70874E-002	7.06244E-001	-4.42137E-002	2.17562E-003	-1.79220E-004	1.98985E-002	1.76374E-002	-8.49682E-004	-1.21172E-003	2.30744E-002	-1.44455E-003
	163	163	1.10042E+000	3.24082E-002	0.00000E+000	3.56627E-002	3.23319E-001	3.97981E-002	4.89189E+001	11	...........	6.66750E-002	-5.56694E-003	6.09053E-001	5.39679E-001	-2.59889E-002	-3.70721E-002	7.06294E-001	-4.42389E-002	2.16082E-003	-1.80415E-004	1.97383E-002	1.74900E-002	-8.42253E-004	-1.20144E-003	2.28897E-002	-1.43370E-003
	164	164	1.10031E+000	3.23049E-002	0.00000E+000	3.55454E-002	3.22294E-001	3.97460E-002	4.92084E+001	11	...........	6.65926E-002	-5.62764E-003	6.09124E-001	5.39486E-001	-2.59907E-002	-3.71375E-002	7.06160E-001	-4.44222E-002	2.15127E-003	-1.81800E-004	1.96777E-002	1.74280E-002	-8.39626E-004	-1.19972E-003	2.28124E-002	-1.43505E-003
	165	165	1.10034E+000	3.24456E-002	0.00000E+000	3.57012E-002	3.23691E-001	3.97124E-002	4.84979E+001	11	...........	6.65342E-002	-5.49083E-003	6.09229E-001	5.39492E-001	-2.59921E-002	-3.71360E-002	7.06252E-001	-4.43140E-002	2.15874E-003	-1.78153E-004	1.97668E-002	1.75041E-002	-8.43328E-004	-1.20490E-003	2.29147E-002	-1.43779E-003
	166	166	1.10042E+000	3.22057E-002	0.00000E+000	3.54398E-002	3.21308E-001	3.97482E-002	4.89987E+001	11	...........	6.65575E-002	-5.50319E-003	6.09312E-001	5.39468E-001	-2.59614E-002	-3.70624E-002	7.06291E-001	-4.42925E-002	2.14353E-003	-1.77234E-004	1.96233E-002	1.73740E-002	-8.36106E-004	-1.19362E-003	2.27466E-002	-1.42647E-003
	167	167	1.10031E+000	3.20799E-002	0.00000E+000	3.52978E-002	3.20065E-001	3.97456E-002	4.90094E+001	11	...........	6.65883E-002	-5.50542E-003	6.09301E-001	5.39424E-001	-2.60428E-002	-3.71119E-002	7.06164E-001	-4.42385E-002	2.13614E-003	-1.76613E-004	1.95463E-002	1.73046E-002	-8.35449E-004	-1.19055E-003	2.26537E-002	-1.41916E-003
	168	168	1.10034E+000	3.22158E-002	0.00000E+000	3.54484E-002	3.21416E-001	3.95602E-002	4.69629E+001	11	...........	6.62751E-002	-5.44556E-003	6.09407E-001	5.39356E-001	-2.60537E-002	-3.71337E-002	7.06184E-001	-4.42982E-002	2.13511E-003	-1.75433E-004	1.96325E-002	1.73758E-002	-8.39343E-004	-1.19629E-003	2.27503E-002	-1.42710E-003
	169	169	1.10042E+000	3.19594E-002	0.00000E+000	3.51686E-002	3.18868E-001	3.92864E-002	4.67531E+001	11	...........	6.58275E-002	-5.38250E-003	6.09270E-001	5.39348E-001	-2.60639E-002	-3.71333E-002	7.06165E-001	-4.41515E-002	2.10381E-003	-1.72021E-004	1.94719E-002	1.72372E-002	-8.32986E-004	-1.18676E-003	2.25686E-002	-1.41106E-003
	170	170	1.10031E+000	3.18797E-002	0.00000E+000	3.50777E-002	3.18069E-001	4.00545E-002	4.91835E+001	11	...........	6.71104E-002	-5.43556E-003	6.09411E-001	5.39530E-001	-2.60143E-002	-3.71135E-002	7.06177E-001	-4.41686E-002	2.13946E-003	-1.73284E-004	1.94278E-002	1.72000E-002	-8.29328E-004	-1.18317E-003	2.25127E-002	-1.40808E-003
	171	171	1.10034E+000	3.19918E-002	0.00000E+000	3.52019E-002	3.19173E-001	3.96266E-002	4.85414E+001	11	...........	6.63487E-002	-5.41319E-003	6.09668E-001	5.39522E-001	-2.59456E-002	-3.70365E-002	7.06290E-001	-4.40601E-002	2.12262E-003	-1.73178E-004	1.95044E-002	1.72603E-002	-8.30045E-004	-1.18487E-003	2.25955E-002	-1.40956E-003
	172	172	1.10042E+000	3.17621E-002	0.00000E+000	3.49515E-002	3.16890E-001	3.96638E-002	4.87432E+001	11	...........	6.64271E-002	-5.40194E-003	6.09445E-001	5.39540E-001	-2.59318E-002	-3.70522E-002	7.06236E-001	-4.41722E-002	2.10986E-003	-1.71577E-004	1.93573E-002	1.71369E-002	-8.23648E-004	-1.17686E-003	2.24315E-002	-1.40300E-003
	173	173	1.10032E+000	3.16036E-002	0.00000E+000	3.47740E-002	3.15316E-001	3.93892E-002	4.65122E+001	11	...........	6.60000E-002	-5.44722E-003	6.09419E-001	5.39647E-001	-2.59074E-002	-3.70654E-002	7.06237E-001	-4.42901E-002	2.08584E-003	-1.72152E-004	1.92598E-002	1.70548E-002	-8.18767E-004	-1.17140E-003	2.23196E-002	-1.39973E-003
	174	174	1.10034E+000	3.17701E-002	0.00000E+000	3.49579E-002	3.16969E-001	3.96936E-002	4.90216E+001	11	...........	6.65272E-002	-5.41153E-003	6.09461E-001	5.39853E-001	-2.59586E-002	-3.70946E-002	7.06238E-001	-4.41939E-002	2.11358E-003	-1.71925E-004	1.93627E-002	1.71512E-002	-8.24709E-004	-1.17850E-003	2.24373E-002	-1.40405E-003
	175	175	1.10042E+000	3.15827E-002	0.00000E+000	3.47541E-002	3.15109E-001	3.96077E-002	4.95926E+001	11	...........	6.63562E-002	-5.43028E-003	6.09312E-001	5.39850E-001	-2.59656E-002	-3.71707E-002	7.06359E-001	-4.42164E-002	2.09571E-003	-1.71503E-004	1.92437E-002	1.70499E-002	-8.20063E-004	-1.17395E-003	2.23087E-002	-1.39647E-003
	176	176	1.10032E+000	3.13964E-002	0.00000E+000	3.45461E-002	3.13254E-001	3.95617E-002	4.65017E+001	11	...........	6.62403E-002	-5.41514E-003	6.09334E-001	5.39907E-001	-2.59360E-002	-3.71304E-002	7.06308E-001	-4.42203E-002	2.07970E-003	-1.70016E-004	1.91309E-002	1.69511E-002	-8.14295E-004	-1.16576E-003	2.21755E-002	-1.38836E-003
	177	177	1.10033E+000	3.15498E-002	0.00000E+000	3.47153E-002	3.14779E-001	3.94165E-002	4.88675E+001	11	...........	6.60181E-002	-5.34389E-003	6.09393E-001	5.39889E-001	-2.59368E-002	-3.71632E-002	7.06303E-001	-4.42428E-002	2.08286E-003	-1.68599E-004	1.92262E-002	1.70334E-002	-8.18301E-004	-1.17249E-003	2.22837E-002	-1.39585E-003
	178	178	1.10041E+000	3.13639E-002	0.00000E+000	3.45132E-002	3.12934E-001	3.95775E-002	4.76091E+001	11	...........	6.63021E-002	-5.48972E-003	6.09588E-001	5.39701E-001	-2.59649E-002	-3.71840E-002	7.06322E-001	-4.41908E-002	2.07949E-003	-1.72179E-004	1.91190E-002	1.69271E-002	-8.14358E-004	-1.16623E-003	2.21530E-002	-1.38599E-003
	179	179	1.10032E+000	3.11884E-002	0.00000E+000	3.43172E-002	3.11187E-001	3.93377E-002	4.84323E+001	11	...........	6.58965E-002	-5.47347E-003	6.09630E-001	5.39647E-001	-2.59408E-002	-3.71849E-002	7.06307E-001	-4.42467E-002	2.05521E-003	-1.70709E-004	1.90134E-002	1.68307E-002	-8.09052E-004	-1.15974E-003	2.20286E-002	-1.37998E-003
	180	180	1.10034E+000	3.13578E-002	0.00000E+000	3.45042E-002	3.12877E-001	3.95534E-002	4.92875E+001	11	...........	6.62597E-002	-5.40611E-003	6.09535E-001	5.39628E-001	-2.60106E-002	-3.72092E-002	7.06303E-001	-4.42893E-002	2.07776E-003	-1.69524E-004	1.91137E-002	1.69216E-002	-8.15635E-004	-1.16680E-003	2.21481E-002	-1.38882E-003
	181	181	1.10041E+000	3.11560E-002	0.00000E+000	3.42844E-002	3.10867E-001	3.94777E-002	4.83634E+001	11	...........	6.61543E-002	-5.51750E-003	6.09323E-001	5.39501E-001	-2.60060E-002	-3.72082E-002	7.06339E-001	-4.43889E-002	2.06110E-003	-1.71903E-004	1.89840E-002	1.68087E-002	-8.10241E-004	-1.15926E-003	2.20067E-002	-1.38298E-003
	182	182	1.10032E+000	3.09464E-002	0.00000E+000	3.40510E-002	3.08789E-001	3.92867E-002	4.64295E+001	11	...........	6.58182E-002	-5.56694E-003	6.09177E-001	5.39410E-001	-2.60254E-002	-3.72229E-002	7.06295E-001	-4.44196E-002	2.03683E-003	-1.72277E-004	1.88518E-002	1.66928E-002	-8.05392E-004	-1.15191E-003	2.18573E-002	-1.37462E-003
	183	183	1.10034E+000	3.11139E-002	0.00000E+000	3.42357E-002	3.10455E-001	3.94780E-002	4.87683E+001	11	...........	6.61262E-002	-5.44944E-003	6.09074E-001	5.39452E-001	-2.59979E-002	-3.72149E-002	7.06328E-001	-4.42981E-002	2.05744E-003	-1.69553E-004	1.89507E-002	1.67844E-002	-8.08896E-004	-1.15790E-003	2.19766E-002	-1.37828E-003
	184	184	1.10041E+000	3.09741E-002	0.00000E+000	3.40842E-002	3.09058E-001	3.95097E-002	4.93632E+001	11	...........	6.62044E-002	-5.53681E-003	6.09220E-001	5.39428E-001	-2.59442E-002	-3.71586E-002	7.06340E-001	-4.42000E-002	2.05062E-003	-1.71498E-004	1.88700E-002	1.67083E-002	-8.03598E-004	-1.15096E-003	2.18783E-002	-1.36906E-003
	185	185	1.10033E+000	3.07622E-002	0.00000E+000	3.38485E-002	3.06947E-001	3.93707E-002	4.92944E+001	11	...........	6.59665E-002	-5.33806E-003	6.09309E-001	5.39373E-001	-2.58939E-002	-3.71175E-002	7.06361E-001	-4.42637E-002	2.02928E-003	-1.64210E-004	1.87437E-002	1.65923E-002	-7.96553E-004	-1.14182E-003	2.17292E-002	-1.36165E-003
	186	186	1.10034E+000	3.09115E-002	0.00000E+000	3.40130E-002	3.08435E-001	3.94285E-002	4.70131E+001	11	...........	6.60335E-002	-5.34347E-003	6.09422E-001	5.39435E-001	-2.58843E-002	-3.70801E-002	7.06359E-001	-4.42822E-002	2.04119E-003	-1.65175E-004	1.88381E-002	1.66747E-002	-8.00122E-004	-1.14620E-003	2.18346E-002	-1.36883E-003
	187	187	1.10041E+000	3.06968E-002	0.00000E+000	3.37789E-002	3.06299E-001	3.90454E-002	4.67887E+001	11	...........	6.54087E-002	-5.35194E-003	6.09368E-001	5.39354E-001	-2.58982E-002	-3.70769E-002	7.06408E-001	-4.43818E-002	2.00784E-003	-1.64287E-004	1.87056E-002	1.65564E-002	-7.94991E-004	-1.13814E-003	2.16845E-002	-1.36238E-003
	188	188	1.10033E+000	3.05863E-002	0.00000E+000	3.36550E-002	3.05196E-001	3.96343E-002	4.89491E+001	11	...........	6.63621E-002	-5.53389E-003	6.09352E-001	5.39355E-001	-2.58375E-002	-3.70481E-002	7.06477E-001	-4.43379E-002	2.02977E-003	-1.69261E-004	1.86378E-002	1.64968E-002	-7.90273E-004	-1.13316E-003	2.16085E-002	-1.35613E-003
	189	189	1.10033E+000	3.07378E-002	0.00000E+000	3.38218E-002	3.06704E-001	3.93902E-002	4.91183E+001	11	...........	6.59839E-002	-5.58444E-003	6.09226E-001	5.39217E-001	-2.58893E-002	-3.70746E-002	7.06445E-001	-4.44537E-002	2.02820E-003	-1.71653E-004	1.87263E-002	1.65743E-002	-7.95779E-004	-1.13959E-003	2.17145E-002	-1.36641E-003
	190	190	1.10041E+000	3.05601E-002	0.00000E+000	3.36286E-002	3.04938E-001	3.93449E-002	4.91487E+001	11	...........	6.59210E-002	-5.54653E-003	6.09233E-001	5.39164E-001	-2.58669E-002	-3.70747E-002	7.06373E-001	-4.45300E-002	2.01455E-003	-1.69502E-004	1.86182E-002	1.64769E-002	-7.90496E-004	-1.13301E-003	2.15868E-002	-1.36084E-003
	191	191	1.10033E+000	3.03135E-002	0.00000E+000	3.33549E-002	3.02481E-001	3.94477E-002	4.64235E+001	11	...........	6.60325E-002	-5.35069E-003	6.09213E-001	5.39086E-001	-2.57897E-002	-3.70315E-002	7.06486E-001	-4.42725E-002	2.00168E-003	-1.62198E-004	1.84674E-002	1.63416E-002	-7.81777E-004	-1.12256E-003	2.14161E-002	-1.34205E-003
	192	192	1.10033E+000	3.04439E-002	0.00000E+000	3.34984E-002	3.03767E-001	3.89818E-002	4.74447E+001	11	...........	6.52836E-002	-5.14125E-003	6.09113E-001	5.39111E-001	-2.57871E-002	-3.69872E-002	7.06561E-001	-4.41535E-002	1.98749E-003	-1.56520E-004	1.85438E-002	1.64126E-002	-7.85059E-004	-1.12603E-003	2.15105E-002	-1.34420E-003
	193	193	1.10040E+000	3.03662E-002	0.00000E+000	3.34151E-002	3.03001E-001	3.96724E-002	4.88439E+001	11	...........	6.64762E-002	-5.21694E-003	6.09264E-001	5.39266E-001	-2.58060E-002	-3.70087E-002	7.06517E-001	-4.41760E-002	2.01863E-003	-1.58419E-004	1.85010E-002	1.63754E-002	-7.83629E-004	-1.12381E-003	2.14542E-002	-1.34146E-003
	194	194	1.10033E+000	3.01156E-002	0.00000E+000	3.31372E-002	3.00513E-001	3.93097E-002	4.85644E+001	11	...........	6.58124E-002	-5.25139E-003	6.09258E-001	5.39371E-001	-2.58315E-002	-3.70382E-002	7.06636E-001	-4.42136E-002	1.98198E-003	-1.58149E-004	1.83481E-002	1.62435E-002	-7.77931E-004	-1.11543E-003	2.12807E-002	-1.33152E-003
	195	195	1.10033E+000	3.02665E-002	0.00000E+000	3.33032E-002	3.02007E-001	3.92233E-002	4.86922E+001	11	...........	6.56992E-002	-5.02181E-003	6.09278E-001	5.39374E-001	-2.57721E-002	-3.69704E-002	7.06604E-001	-4.41706E-002	1.98848E-003	-1.51992E-004	1.84407E-002	1.63250E-002	-7.80030E-004	-1.11896E-003	2.13864E-002	-1.33689E-003
	196	196	1.10040E+000	3.01505E-002	0.00000E+000	3.31777E-002	3.00860E-001	3.94902E-002	4.94034E+001	11	...........	6.61129E-002	-5.12639E-003	6.09391E-001	5.39287E-001	-2.58407E-002	-3.70026E-002	7.06589E-001	-4.42754E-002	1.99333E-003	-1.54563E-004	1.83734E-002	1.62598E-002	-7.79109E-004	-1.11565E-003	2.13040E-002	-1.33492E-003
	197	197	1.10034E+000	2.98857E-002	0.00000E+000	3.28843E-002	2.98230E-001	3.93370E-002	4.58505E+001	11	...........	6.58847E-002	-5.21861E-003	6.09347E-001	5.39240E-001	-2.58622E-002	-3.70094E-002	7.06511E-001	-4.42419E-002	1.96901E-003	-1.55962E-004	1.82107E-002	1.61156E-002	-7.72910E-004	-1.10605E-003	2.11146E-002	-1.32220E-003
	198	198	1.10033E+000	3.00484E-002	0.00000E+000	3.30631E-002	2.99845E-001	3.91018E-002	4.83336E+001	11	...........	6.54804E-002	-5.17667E-003	6.09393E-001	5.39275E-001	-2.58715E-002	-3.69911E-002	7.06481E-001	-4.41757E-002	1.96758E-003	-1.55550E-004	1.83113E-002	1.62043E-002	-7.77397E-004	-1.11152E-003	2.12286E-002	-1.32741E-003
	199	199	1.10040E+000	2.99520E-002	0.00000E+000	3.29593E-002	2.98889E-001	3.93210E-002	4.96121E+001	11	...........	6.58636E-002	-5.31375E-003	6.09402E-001	5.39172E-001	-2.58515E-002	-3.69550E-002	7.06630E-001	-4.40983E-002	1.97275E-003	-1.59158E-004	1.82528E-002	1.61493E-002	-7.74306E-004	-1.10688E-003	2.11650E-002	-1.32083E-003
	200	200	1.10034E+000	2.97166E-002	0.00000E+000	3.26983E-002	2.96555E-001	3.92551E-002	4.86285E+001	11	...........	6.57585E-002	-5.41347E-003	6.09302E-001	5.39152E-001	-2.58996E-002	-3.69731E-002	7.06585E-001	-4.41939E-002	1.95412E-003	-1.60870E-004	1.81064E-002	1.60217E-002	-7.69647E-004	-1.09871E-003	2.09973E-002	-1.31329E-003
	201	201	1.10033E+000	2.98619E-002	0.00000E+000	3.28580E-002	2.97999E-001	3.90503E-002	4.80716E+001	11	...........	6.54143E-002	-5.37597E-003	6.09207E-001	5.39161E-001	-2.59379E-002	-3.69374E-002	7.06398E-001	-4.43532E-002	1.95340E-003	-1.60537E-004	1.81921E-002	1.61004E-002	-7.74556E-004	-1.10302E-003	2.10944E-002	-1.32447E-003
	202	202	1.10040E+000	2.97398E-002	0.00000E+000	3.27257E-002	2.96787E-001	3.94138E-002	4.88063E+001	11	...........	6.60031E-002	-5.34778E-003	6.09244E-001	5.38985E-001	-2.59101E-002	-3.69292E-002	7.06422E-001	-4.43768E-002	1.96292E-003	-1.59042E-004	1.81188E-002	1.60293E-002	-7.70563E-004	-1.09827E-003	2.10089E-002	-1.31976E-003
	203	203	1.10034E+000	2.94704E-002	0.00000E+000	3.24275E-002	2.94107E-001	3.89662E-002	4.76071E+001	11	...........	6.52805E-002	-5.35111E-003	6.09143E-001	5.39051E-001	-2.59104E-002	-3.69435E-002	7.06431E-001	-4.44147E-002	1.92384E-003	-1.57699E-004	1.79517E-002	1.58860E-002	-7.63589E-004	-1.08874E-003	2.08188E-002	-1.30892E-003
	204	204	1.10033E+000	2.96485E-002	0.00000E+000	3.26231E-002	2.95878E-001	3.89997E-002	4.75447E+001	11	...........	6.53099E-002	-5.29250E-003	6.09115E-001	5.39098E-001	-2.59290E-002	-3.69543E-002	7.06441E-001	-4.40847E-002	1.93634E-003	-1.56915E-004	1.80593E-002	1.59834E-002	-7.68756E-004	-1.09564E-003	2.09449E-002	-1.30704E-003
	205	205	1.10040E+000	2.95885E-002	0.00000E+000	3.25592E-002	2.95277E-001	3.94827E-002	4.93701E+001	11	...........	6.61235E-002	-5.37528E-003	6.09336E-001	5.39191E-001	-2.58822E-002	-3.69169E-002	7.06571E-001	-4.41381E-002	1.95649E-003	-1.59046E-004	1.80293E-002	1.59538E-002	-7.65815E-004	-1.09232E-003	2.09063E-002	-1.30598E-003
	206	206	1.10034E+000	2.93071E-002	0.00000E+000	3.22479E-002	2.92480E-001	3.91769E-002	4.94912E+001	11	...........	6.56085E-002	-5.38486E-003	6.09327E-001	5.39054E-001	-2.59042E-002	-3.69294E-002	7.06607E-001	-4.42065E-002	1.92280E-003	-1.57815E-004	1.78576E-002	1.57981E-002	-7.59177E-004	-1.08230E-003	2.07086E-002	-1.29557E-003
	207	207	1.10033E+000	2.94599E-002	0.00000E+000	3.24156E-002	2.93996E-001	3.90875E-002	4.79453E+001	11	...........	6.54649E-002	-5.31264E-003	6.09314E-001	5.39049E-001	-2.58685E-002	-3.68968E-002	7.06489E-001	-4.41294E-002	1.92859E-003	-1.56510E-004	1.79503E-002	1.58803E-002	-7.62082E-004	-1.08698E-003	2.08131E-002	-1.30005E-003
	208	208	1.10040E+000	2.93499E-002	0.00000E+000	3.22965E-002	2.92905E-001	3.89664E-002	4.75088E+001	11	...........	6.52587E-002	-5.23542E-003	6.09214E-001	5.39093E-001	-2.58735E-002	-3.68936E-002	7.06501E-001	-4.40482E-002	1.91534E-003	-1.53659E-004	1.78804E-002	1.58223E-002	-7.59384E-004	-1.08282E-003	2.07358E-002	-1.29281E-003
	209	209	1.10035E+000	2.91049E-002	0.00000E+000	3.20255E-002	2.90464E-001	3.88220E-002	4.79314E+001	11	...........	6.55675E-002	-5.26028E-003	6.09075E-001	5.39009E-001	-2.58493E-002	-3.68897E-002	7.06472E-001	-4.41049E-002	1.90833E-003	-1.53100E-004	1.77271E-002	1.56878E-002	-7.52341E-004	-1.07367E-003	2.05618E-002	-1.28367E-003
	210	210	1.10033E+000	2.92685E-002	0.00000E+000	3.22050E-002	2.92093E-001	3.89903E-002	4.88582E+001	11	...........	6.53193E-002	-5.28250E-003	6.08938E-001	5.38967E-001	-2.58903E-002	-3.68983E-002	7.06423E-001	-4.41093E-002	1.91180E-003	-1.54611E-004	1.78227E-002	1.57748E-002	-7.57770E-004	-1.07996E-003	2.06759E-002	-1.29101E-003
	211	211	1.10039E+000	2.91480E-002	0.00000E+000	3.20743E-002	2.90901E-001	3.92038E-002	4.69470E+001	11	...........	6.56475E-002	-5.31833E-003	6.08878E-001	5.38986E-001	-2.58864E-002	-3.68810E-002	7.06413E-001	-4.41557E-002	1.91349E-003	-1.55019E-004	1.77476E-002	1.57104E-002	-7.54537E-004	-1.07501E-003	2.05905E-002	-1.28705E-003
	212	212	1.10035E+000	2.89300E-002	0.00000E+000	3.18331E-002	2.88726E-001	3.91250E-002	4.90928E+001	11	...........	6.55406E-002	-5.21875E-003	6.08922E-001	5.39047E-001	-2.58606E-002	-3.68557E-002	7.06496E-001	-4.41739E-002	1.89609E-003	-1.50979E-004	1.76162E-002	1.55946E-002	-7.48147E-004	-1.06624E-003	2.04390E-002	-1.27795E-003
	213	213	1.10033E+000	2.90402E-002	0.00000E+000	3.19537E-002	2.89822E-001	3.91389E-002	4.82205E+001	11	...........	6.55504E-002	-5.22639E-003	6.08954E-001	5.39110E-001	-2.58511E-002	-3.68340E-002	7.06528E-001	-4.41658E-002	1.90360E-003	-1.51775E-004	1.76841E-002	1.56559E-002	-7.50721E-004	-1.06967E-003	2.05177E-002	-1.28258E-003
	214	214	1.10039E+000	2.89369E-002	0.00000E+000	3.18419E-002	2.88793E-001	3.88574E-002	4.69830E+001	11	...........	6.50465E-002	-5.21681E-003	6.08956E-001	5.39120E-001	-2.58087E-002	-3.68065E-002	7.06491E-001	-4.40757E-002	1.88224E-003	-1.50958E-004	1.76213E-002	1.56004E-002	-7.46824E-004	-1.06507E-003	2.04436E-002	-1.27541E-003
	215	215	1.10035E+000	2.87251E-002	0.00000E+000	3.16077E-002	2.86686E-001	3.91939E-002	4.79321E+001	11	...........	6.56271E-002	-5.18889E-003	6.09061E-001	5.39023E-001	-2.57993E-002	-3.67822E-002	7.06542E-001	-4.39996E-002	1.88515E-003	-1.49051E-004	1.74954E-002	1.54835E-002	-7.41088E-004	-1.05657E-003	2.02955E-002	-1.26389E-003
	216	216	1.10033E+000	2.88358E-002	0.00000E+000	3.17289E-002	2.87787E-001	3.90684E-002	4.83474E+001	11	...........	6.54204E-002	-5.25528E-003	6.09296E-001	5.38952E-001	-2.58403E-002	-3.67908E-002	7.06480E-001	-4.39679E-002	1.88645E-003	-1.51540E-004	1.75695E-002	1.55411E-002	-7.45125E-004	-1.06089E-003	2.03719E-002	-1.26785E-003
	217	217	1.10039E+000	2.87978E-002	0.00000E+000	3.16887E-002	2.87406E-001	3.90010E-002	4.86730E+001	11	...........	6.52846E-002	-5.31667E-003	6.09356E-001	5.39013E-001	-2.58392E-002	-3.67953E-002	7.06545E-001	-4.39436E-002	1.88005E-003	-1.53108E-004	1.75481E-002	1.55224E-002	-7.44111E-004	-1.05962E-003	2.03469E-002	-1.26548E-003
	218	217.778	1.10039E+000	2.85685E-002	0.00000E+000	3.14364E-002	2.85127E-001	3.91654E-002	4.87914E+001	11	...........	6.55608E-002	-5.33565E-003	6.09327E-001	5.39083E-001	-2.58139E-002	-3.67868E-002	7.06519E-001	-4.40812E-002	1.87298E-003	-1.52432E-004	1.74076E-002	1.54008E-002	-7.37464E-004	-1.05094E-003	2.01842E-002	-1.25933E-003
STARTTIMEOFFSET	QUANT	654957.1	Start Time Offset (s)
