EXPLAIN
TAG	PWR800_CHARGE
TITLE	LABEL	PWR Charge	Test Identifier
DATE	LABEL	10/17/2022	Date
TIME	LABEL	3:38:38	Time
NOTES	NOTES	1	Notes...
	
PSTAT	PSTAT	REF3000-21114	Potentiostat
CAPACITY	QUANT	5.30000E-002	Capacity (A-hr)
CELLTYPE	SELECTOR	1	Cell Type
WORKINGCONNECTION	SELECTOR	0	Working Connection
MAXCHARGETIME	VARIABLEANDUNITS	7.20000E+003	s	2.00000E+000	hour(s)	Max Charge Time
CHARGEMODE	MULTIPARAM	0	1.00000E-001	Charge Mode	Constant Current	Amp(s)
CHARGECURRENT	QUANT	0.1	Charge Current (A)
VOLTAGEFINISH	TWOPARAM	T	2.50000E-002	7.20000E+003	Voltage Finish	I (A) <	Max Time(s)
SAMPLETIME	QUANT	1.00000E+000	Sample Period (s)
CHARGESTOPAT1	MULTIPARAM	2	1.10000E+000	Stop At 1	|Voltage| > Limit	V
CHARGESTOPAT2	MULTIPARAM	0	0.00000E+000	Stop At 2	None	N/A
AESELECTOR	AESELECTOR	0x1	T	Set Limits	AE Channels
AESBHCSELECTOR	TOGGLE	F	Save Both Half Cells
IRCOMP	TOGGLE	F	IR Measure
EOC	QUANT	0.2744925	Open Circuit (V)
SEQUENCER	TOGGLE	TRUE	Run as Sequence
PSTATMODEL	IQUANT	5	Pstat Model
PSTATSECTION	LABEL	REF3000-21114	Pstat Section
PSTATSERIALNO	LABEL	21114	Pstat Serial Number
CTRLMODE	IQUANT	0	Control Mode
ELECTROMETER	IQUANT	0	RE=0 or CS=1
IESTAB	IQUANT	0	I/E Stability
CASPEED	IQUANT	4	Control Amp Speed
CONVENTION	IQUANT	1	Current Convention
ICHRANGE	IQUANT	2	Ich Range
ICHRANGEMODE	TOGGLE	T	Ich Auto Range
ICHOFFSETENABLE	TOGGLE	F	Ich Offset Enable
ICHOFFSET	QUANT	0	Ich Offset (V)
ICHFILTER	IQUANT	1	Ich Filter
VCHRANGE	IQUANT	3	Vch Range
VCHRANGEMODE	TOGGLE	T	Vch Auto Range
VCHOFFSETENABLE	TOGGLE	F	Vch Offset Enable
VCHOFFSET	QUANT	0	Vch Offset (V)
VCHFILTER	IQUANT	1	Vch Filter
ACHRANGE	IQUANT	2	Ach Range
ACHOFFSETENABLE	TOGGLE	F	Ach Offset Enable
ACHOFFSET	QUANT	0	Ach Offset (V)
ACHFILTER	IQUANT	1	Ach Filter
IERANGELOWERLIMIT	IQUANT	9	I/E Range Lower Limit
IERANGEMODE	TOGGLE	F	I/E AutoRange
IERANGE	IQUANT	9	I/E Range
POSFEEDENABLE	TOGGLE	F	Positive Feedback IR Comp
POSFEEDRESISTANCE	QUANT	0	Positive Feedback Resistance (ohm)
ACHSELECT	IQUANT	1	Ach Select
SENSECABLEID	IQUANT	13	Sense Cable ID
PWRCABLEID	IQUANT	13	Power Cable ID
DCCALDATE	LABEL		DC Calibration Date
ACCALDATE	LABEL		AC Calibration Date
THERMOSELECT	IQUANT	1	Thermo Select
FRAMEWORKVERSION	LABEL	7.8.6	Framework Version
INSTRUMENTVERSION	LABEL	4.50	Instrument Version
COMPLIANCEVOLTAGE	IQUANT	0	Compliance Voltage
CURVE	TABLE	47
	Pt	T	Vf	Im	Vu	Pwr	Sig	Ach	Temp	IERange	Over	Vf1	Vf2	Vf3	Vf4	Vf5	Vf6	Vf7	Vf8	Pwr1	Pwr2	Pwr3	Pwr4	Pwr5	Pwr6	Pwr7	Pwr8
	#	s	V	A	V	W	V	V	deg C	#	bits	V	V	V	V	V	V	V	V	W	W	W	W	W	W	W	W
	0	1	5.71153E-001	9.98636E-002	0.00000E+000	5.70375E-002	9.94000E-001	3.78371E-002	3.94402E+001	11	...........	6.20462E-002	-4.39208E-003	5.81928E-001	6.11863E-001	-2.90935E-002	-3.88467E-002	6.71583E-001	-4.31256E-002	6.19616E-003	-4.38609E-004	5.81135E-002	6.11029E-002	-2.90538E-003	-3.87937E-003	6.70667E-002	-4.30668E-003
	1	2	8.32021E-001	9.98642E-002	0.00000E+000	8.30891E-002	9.94000E-001	3.85872E-002	4.41072E+001	11	...........	6.31975E-002	-4.47958E-003	5.81906E-001	6.11732E-001	-2.90885E-002	-3.88692E-002	6.71581E-001	-4.31450E-002	6.31117E-003	-4.47350E-004	5.81116E-002	6.10901E-002	-2.90490E-003	-3.88164E-003	6.70669E-002	-4.30864E-003
	2	2.055	1.08731E+000	9.98640E-002	0.00000E+000	1.08583E-001	9.94000E-001	3.93818E-002	4.99945E+001	11	...........	6.44520E-002	-4.57071E-003	5.81957E-001	6.11750E-001	-2.91187E-002	-3.88510E-002	6.71646E-001	-4.30657E-002	6.43644E-003	-4.56449E-004	5.81166E-002	6.10918E-002	-2.90791E-003	-3.87982E-003	6.70733E-002	-4.30071E-003
	3	3	1.10093E+000	6.29042E-002	0.00000E+000	6.92534E-002	6.26481E-001	3.86098E-002	4.83299E+001	11	...........	6.31564E-002	-4.49250E-003	5.81992E-001	6.11637E-001	-2.90998E-002	-3.89061E-002	6.71547E-001	-4.30232E-002	3.97280E-003	-2.82597E-004	3.66097E-002	3.84745E-002	-1.83050E-003	-2.44735E-003	4.22431E-002	-2.70634E-003
	4	4	1.10044E+000	4.54125E-002	0.00000E+000	4.99738E-002	4.52559E-001	3.84585E-002	4.78089E+001	11	...........	6.28908E-002	-4.36236E-003	5.81924E-001	6.11674E-001	-2.90897E-002	-3.88853E-002	6.71500E-001	-4.29654E-002	2.85603E-003	-1.98106E-004	2.64266E-002	2.77777E-002	-1.32104E-003	-1.76588E-003	3.04945E-002	-1.95117E-003
	5	5	1.10044E+000	4.01162E-002	0.00000E+000	4.41455E-002	3.99900E-001	3.83902E-002	4.51051E+001	11	...........	6.28389E-002	-4.30361E-003	5.81862E-001	6.11859E-001	-2.90839E-002	-3.88740E-002	6.71416E-001	-4.30203E-002	2.52086E-003	-1.72645E-004	2.33421E-002	2.45455E-002	-1.16674E-003	-1.55948E-003	2.69347E-002	-1.72581E-003
	6	6	1.10034E+000	3.74919E-002	0.00000E+000	4.12537E-002	3.73813E-001	3.82986E-002	4.63414E+001	11	...........	6.26575E-002	-4.17583E-003	5.81783E-001	6.11745E-001	-2.90981E-002	-3.89043E-002	6.71479E-001	-4.30278E-002	2.34915E-003	-1.56560E-004	2.18122E-002	2.29355E-002	-1.09094E-003	-1.45860E-003	2.51750E-002	-1.61319E-003
	7	7	1.10037E+000	3.58386E-002	0.00000E+000	3.94358E-002	3.57372E-001	3.86142E-002	4.72951E+001	11	...........	6.31858E-002	-4.18931E-003	5.81774E-001	6.11786E-001	-2.90885E-002	-3.88883E-002	6.71307E-001	-4.29821E-002	2.26449E-003	-1.50139E-004	2.08500E-002	2.19255E-002	-1.04249E-003	-1.39370E-003	2.40587E-002	-1.54042E-003
	8	8	1.10041E+000	3.43097E-002	0.00000E+000	3.77548E-002	3.42169E-001	3.84340E-002	4.49026E+001	11	...........	6.28958E-002	-4.16056E-003	5.81722E-001	6.11610E-001	-2.90961E-002	-3.88687E-002	6.71310E-001	-4.28707E-002	2.15794E-003	-1.42747E-004	1.99587E-002	2.09842E-002	-9.98279E-004	-1.33357E-003	2.30324E-002	-1.47088E-003
	9	9	1.10032E+000	3.34403E-002	0.00000E+000	3.67952E-002	3.33526E-001	3.83936E-002	4.56688E+001	11	...........	6.28600E-002	-4.26708E-003	5.81763E-001	6.11608E-001	-2.90778E-002	-3.88649E-002	6.71261E-001	-4.29543E-002	2.10206E-003	-1.42693E-004	1.94543E-002	2.04524E-002	-9.72370E-004	-1.29965E-003	2.24472E-002	-1.43641E-003
	10	10	1.10036E+000	3.28220E-002	0.00000E+000	3.61160E-002	3.27380E-001	3.82434E-002	4.47391E+001	11	...........	6.26553E-002	-4.17611E-003	5.81691E-001	6.11572E-001	-2.90604E-002	-3.88524E-002	6.71273E-001	-4.30665E-002	2.05647E-003	-1.37068E-004	1.90922E-002	2.00730E-002	-9.53821E-004	-1.27521E-003	2.20325E-002	-1.41353E-003
	11	11	1.10041E+000	3.20562E-002	0.00000E+000	3.52749E-002	3.19765E-001	3.84577E-002	4.41612E+001	11	...........	6.30051E-002	-4.25403E-003	5.81442E-001	6.11568E-001	-2.90394E-002	-3.88826E-002	6.71322E-001	-4.31339E-002	2.01971E-003	-1.36368E-004	1.86388E-002	1.96045E-002	-9.30895E-004	-1.24643E-003	2.15200E-002	-1.38271E-003
	12	12	1.10032E+000	3.16713E-002	0.00000E+000	3.48486E-002	3.15938E-001	3.82240E-002	4.41021E+001	11	...........	6.26182E-002	-4.17458E-003	5.81378E-001	6.11516E-001	-2.90304E-002	-3.88871E-002	6.71258E-001	-4.30896E-002	1.98320E-003	-1.32215E-004	1.84130E-002	1.93675E-002	-9.19432E-004	-1.23161E-003	2.12597E-002	-1.36471E-003
	13	13	1.10036E+000	3.14497E-002	0.00000E+000	3.46058E-002	3.13737E-001	3.81262E-002	4.41495E+001	11	...........	6.24497E-002	-4.25986E-003	5.81384E-001	6.11392E-001	-2.90228E-002	-3.88961E-002	6.71095E-001	-4.30178E-002	1.96402E-003	-1.33971E-004	1.82844E-002	1.92281E-002	-9.12757E-004	-1.22327E-003	2.11057E-002	-1.35290E-003
	14	14	1.10040E+000	3.09856E-002	0.00000E+000	3.40967E-002	3.09127E-001	3.86594E-002	4.57316E+001	11	...........	6.33121E-002	-4.33861E-003	5.81540E-001	6.11297E-001	-2.90303E-002	-3.88678E-002	6.71119E-001	-4.29756E-002	1.96177E-003	-1.34435E-004	1.80194E-002	1.89414E-002	-8.99522E-004	-1.20434E-003	2.07951E-002	-1.33163E-003
	15	15	1.10032E+000	3.07888E-002	0.00000E+000	3.38775E-002	3.07167E-001	3.80961E-002	4.42593E+001	11	...........	6.24215E-002	-4.31431E-003	5.81388E-001	6.11202E-001	-2.90325E-002	-3.88287E-002	6.71112E-001	-4.30996E-002	1.92189E-003	-1.32832E-004	1.79003E-002	1.88182E-002	-8.93876E-004	-1.19549E-003	2.06627E-002	-1.32699E-003
	16	16	1.10035E+000	3.07385E-002	0.00000E+000	3.38231E-002	3.06668E-001	3.83593E-002	4.48434E+001	11	...........	6.27954E-002	-4.25639E-003	5.81297E-001	6.11263E-001	-2.90564E-002	-3.88486E-002	6.71200E-001	-4.31197E-002	1.93023E-003	-1.30835E-004	1.78682E-002	1.87893E-002	-8.93148E-004	-1.19415E-003	2.06316E-002	-1.32543E-003
	17	17	1.10040E+000	3.03790E-002	0.00000E+000	3.34292E-002	3.03095E-001	3.83159E-002	4.57139E+001	11	...........	6.27232E-002	-4.21986E-003	5.81315E-001	6.11438E-001	-2.90539E-002	-3.88514E-002	6.71223E-001	-4.31633E-002	1.90547E-003	-1.28195E-004	1.76598E-002	1.85749E-002	-8.82629E-004	-1.18027E-003	2.03911E-002	-1.31126E-003
	18	18	1.10032E+000	3.02671E-002	0.00000E+000	3.33035E-002	3.01985E-001	3.82214E-002	4.57398E+001	11	...........	6.25567E-002	-4.26917E-003	5.81319E-001	6.11488E-001	-2.90361E-002	-3.88532E-002	6.71324E-001	-4.32475E-002	1.89341E-003	-1.29215E-004	1.75948E-002	1.85080E-002	-8.78839E-004	-1.17597E-003	2.03190E-002	-1.30898E-003
	19	19	1.10035E+000	3.02656E-002	0.00000E+000	3.33027E-002	3.01969E-001	3.82320E-002	4.46837E+001	11	...........	6.26154E-002	-4.36667E-003	5.81259E-001	6.11487E-001	-2.90508E-002	-3.88293E-002	6.71246E-001	-4.32193E-002	1.89509E-003	-1.32160E-004	1.75921E-002	1.85070E-002	-8.79240E-004	-1.17519E-003	2.03156E-002	-1.30806E-003
	20	20	1.10040E+000	2.99616E-002	0.00000E+000	3.29698E-002	2.98952E-001	3.80364E-002	4.51181E+001	11	...........	6.27212E-002	-4.48625E-003	5.81341E-001	6.11470E-001	-2.90917E-002	-3.88347E-002	6.71223E-001	-4.33042E-002	1.87923E-003	-1.34415E-004	1.74179E-002	1.83206E-002	-8.71632E-004	-1.16355E-003	2.01109E-002	-1.29746E-003
	21	21	1.10032E+000	2.98749E-002	0.00000E+000	3.28719E-002	2.98089E-001	3.77192E-002	4.47394E+001	11	...........	6.24978E-002	-4.45819E-003	5.81310E-001	6.11474E-001	-2.91200E-002	-3.88458E-002	6.71190E-001	-4.32557E-002	1.86711E-003	-1.33188E-004	1.73666E-002	1.82677E-002	-8.69957E-004	-1.16052E-003	2.00517E-002	-1.29226E-003
	22	22	1.10035E+000	2.98805E-002	0.00000E+000	3.28790E-002	2.98143E-001	3.75818E-002	4.46276E+001	11	...........	6.22628E-002	-4.42583E-003	5.81239E-001	6.11490E-001	-2.91154E-002	-3.88425E-002	6.71186E-001	-4.30965E-002	1.86044E-003	-1.32246E-004	1.73677E-002	1.82716E-002	-8.69983E-004	-1.16063E-003	2.00553E-002	-1.28774E-003
	23	23	1.10040E+000	2.96141E-002	0.00000E+000	3.25874E-002	2.95500E-001	3.75265E-002	4.29157E+001	11	...........	6.21847E-002	-4.43125E-003	5.81199E-001	6.11360E-001	-2.91087E-002	-3.88421E-002	6.71155E-001	-4.30999E-002	1.84154E-003	-1.31227E-004	1.72117E-002	1.81049E-002	-8.62029E-004	-1.15027E-003	1.98756E-002	-1.27636E-003
	24	24	1.10032E+000	2.95722E-002	0.00000E+000	3.25389E-002	2.95084E-001	3.79273E-002	4.47090E+001	11	...........	6.28308E-002	-4.50139E-003	5.81235E-001	6.11375E-001	-2.91151E-002	-3.88465E-002	6.71198E-001	-4.31208E-002	1.85805E-003	-1.33116E-004	1.71884E-002	1.80797E-002	-8.61000E-004	-1.14878E-003	1.98488E-002	-1.27518E-003
	25	25	1.10035E+000	2.96109E-002	0.00000E+000	3.25824E-002	2.95470E-001	3.76142E-002	4.46058E+001	11	...........	6.23004E-002	-4.42681E-003	5.81362E-001	6.11465E-001	-2.91279E-002	-3.88411E-002	6.71203E-001	-4.32249E-002	1.84477E-003	-1.31082E-004	1.72147E-002	1.81060E-002	-8.62505E-004	-1.15012E-003	1.98750E-002	-1.27993E-003
	26	26	1.10040E+000	2.93676E-002	0.00000E+000	3.23161E-002	2.93048E-001	3.76197E-002	4.50563E+001	11	...........	6.23210E-002	-4.30306E-003	5.81370E-001	6.11459E-001	-2.91522E-002	-3.88194E-002	6.71123E-001	-4.32221E-002	1.83021E-003	-1.26370E-004	1.70734E-002	1.79571E-002	-8.56129E-004	-1.14003E-003	1.97092E-002	-1.26933E-003
	27	27	1.10032E+000	2.92827E-002	0.00000E+000	3.22203E-002	2.92203E-001	3.77002E-002	4.46832E+001	11	...........	6.24821E-002	-4.28250E-003	5.81383E-001	6.11553E-001	-2.91574E-002	-3.88039E-002	6.71159E-001	-4.30914E-002	1.82964E-003	-1.25403E-004	1.70245E-002	1.79079E-002	-8.53805E-004	-1.13628E-003	1.96533E-002	-1.26183E-003
	28	28	1.10035E+000	2.93564E-002	0.00000E+000	3.23022E-002	2.92934E-001	3.75737E-002	4.44716E+001	11	...........	6.22499E-002	-4.36125E-003	5.81389E-001	6.11802E-001	-2.91675E-002	-3.87826E-002	6.71248E-001	-4.31532E-002	1.82743E-003	-1.28031E-004	1.70675E-002	1.79603E-002	-8.56252E-004	-1.13852E-003	1.97054E-002	-1.26682E-003
	29	29	1.10040E+000	2.91313E-002	0.00000E+000	3.20561E-002	2.90699E-001	3.75321E-002	4.55272E+001	11	...........	6.21825E-002	-4.30125E-003	5.81404E-001	6.11859E-001	-2.91446E-002	-3.87737E-002	6.71177E-001	-4.31915E-002	1.81145E-003	-1.25301E-004	1.69370E-002	1.78242E-002	-8.49018E-004	-1.12953E-003	1.95522E-002	-1.25822E-003
	30	30	1.10032E+000	2.90548E-002	0.00000E+000	3.19695E-002	2.89938E-001	3.75840E-002	4.55586E+001	11	...........	6.22681E-002	-4.31056E-003	5.81413E-001	6.11960E-001	-2.91476E-002	-3.87735E-002	6.71136E-001	-4.31658E-002	1.80918E-003	-1.25242E-004	1.68928E-002	1.77803E-002	-8.46877E-004	-1.12655E-003	1.94997E-002	-1.25417E-003
	31	31	1.10035E+000	2.91192E-002	0.00000E+000	3.20413E-002	2.90580E-001	3.75770E-002	4.47490E+001	11	...........	6.22719E-002	-4.25111E-003	5.81392E-001	6.12067E-001	-2.91489E-002	-3.87965E-002	6.71160E-001	-4.32212E-002	1.81331E-003	-1.23789E-004	1.69297E-002	1.78229E-002	-8.48793E-004	-1.12973E-003	1.95436E-002	-1.25857E-003
	32	32	1.10040E+000	2.88753E-002	0.00000E+000	3.17745E-002	2.88158E-001	3.75131E-002	4.37829E+001	11	...........	6.21257E-002	-4.27722E-003	5.81201E-001	6.12006E-001	-2.91393E-002	-3.87837E-002	6.71295E-001	-4.32550E-002	1.79390E-003	-1.23506E-004	1.67824E-002	1.76719E-002	-8.41407E-004	-1.11989E-003	1.93839E-002	-1.24900E-003
	33	33	1.10032E+000	2.88294E-002	0.00000E+000	3.17216E-002	2.87704E-001	3.75488E-002	4.54588E+001	11	...........	6.22037E-002	-4.16056E-003	5.81126E-001	6.12026E-001	-2.91426E-002	-3.87976E-002	6.71375E-001	-4.31667E-002	1.79330E-003	-1.19946E-004	1.67535E-002	1.76443E-002	-8.40164E-004	-1.11851E-003	1.93553E-002	-1.24447E-003
	34	34	1.10035E+000	2.88974E-002	0.00000E+000	3.17971E-002	2.88380E-001	3.74799E-002	4.52310E+001	11	...........	6.20987E-002	-4.17292E-003	5.81025E-001	6.11951E-001	-2.91489E-002	-3.88147E-002	6.71254E-001	-4.31533E-002	1.79449E-003	-1.20586E-004	1.67901E-002	1.76838E-002	-8.42327E-004	-1.12164E-003	1.93975E-002	-1.24702E-003
	35	35	1.10040E+000	2.86869E-002	0.00000E+000	3.15672E-002	2.86287E-001	3.74660E-002	4.47621E+001	11	...........	6.20824E-002	-4.35542E-003	5.81014E-001	6.11930E-001	-2.91510E-002	-3.88272E-002	6.71092E-001	-4.31217E-002	1.78095E-003	-1.24944E-004	1.66675E-002	1.75544E-002	-8.36252E-004	-1.11383E-003	1.92516E-002	-1.23703E-003
	36	36	1.10032E+000	2.85816E-002	0.00000E+000	3.14489E-002	2.85242E-001	3.75542E-002	4.45388E+001	11	...........	6.22210E-002	-4.36389E-003	5.80952E-001	6.11902E-001	-2.91565E-002	-3.88183E-002	6.71241E-001	-4.31806E-002	1.77837E-003	-1.24727E-004	1.66045E-002	1.74891E-002	-8.33339E-004	-1.10949E-003	1.91851E-002	-1.23417E-003
	37	37	1.10035E+000	2.86566E-002	0.00000E+000	3.15321E-002	2.85984E-001	3.73157E-002	4.44170E+001	11	...........	6.18183E-002	-4.25514E-003	5.80854E-001	6.11931E-001	-2.91406E-002	-3.88207E-002	6.71246E-001	-4.32133E-002	1.77150E-003	-1.21938E-004	1.66453E-002	1.75358E-002	-8.35068E-004	-1.11247E-003	1.92356E-002	-1.23835E-003
	38	38	1.10040E+000	2.84564E-002	0.00000E+000	3.13135E-002	2.83996E-001	3.76718E-002	4.21489E+001	11	...........	6.24472E-002	-4.31583E-003	5.80910E-001	6.12035E-001	-2.91362E-002	-3.88082E-002	6.71253E-001	-4.31751E-002	1.77702E-003	-1.22813E-004	1.65306E-002	1.74163E-002	-8.29112E-004	-1.10434E-003	1.91014E-002	-1.22861E-003
	39	39	1.10032E+000	2.83703E-002	0.00000E+000	3.12164E-002	2.83135E-001	3.71441E-002	4.39684E+001	11	...........	6.15471E-002	-4.27750E-003	5.80939E-001	6.11963E-001	-2.91458E-002	-3.87926E-002	6.71307E-001	-4.30696E-002	1.74611E-003	-1.21354E-004	1.64814E-002	1.73615E-002	-8.26875E-004	-1.10056E-003	1.90452E-002	-1.22190E-003
	40	40	1.10034E+000	2.84671E-002	0.00000E+000	3.13237E-002	2.84100E-001	3.75346E-002	4.40154E+001	11	...........	6.21886E-002	-4.42083E-003	5.80979E-001	6.11976E-001	-2.91585E-002	-3.88161E-002	6.71269E-001	-4.31856E-002	1.77033E-003	-1.25848E-004	1.65388E-002	1.74212E-002	-8.30058E-004	-1.10498E-003	1.91091E-002	-1.22937E-003
	41	41	1.10040E+000	2.82562E-002	0.00000E+000	3.10932E-002	2.82004E-001	3.74310E-002	4.29653E+001	11	...........	6.19933E-002	-4.37667E-003	5.81048E-001	6.11821E-001	-2.91837E-002	-3.88379E-002	6.71232E-001	-4.31757E-002	1.75170E-003	-1.23668E-004	1.64182E-002	1.72877E-002	-8.24622E-004	-1.09741E-003	1.89665E-002	-1.21998E-003
	42	42	1.10032E+000	2.81628E-002	0.00000E+000	3.09882E-002	2.81075E-001	3.74241E-002	4.34727E+001	11	...........	6.20218E-002	-4.36056E-003	5.80974E-001	6.11866E-001	-2.91667E-002	-3.88637E-002	6.71147E-001	-4.31932E-002	1.74671E-003	-1.22805E-004	1.63618E-002	1.72318E-002	-8.21414E-004	-1.09451E-003	1.89014E-002	-1.21644E-003
	43	43	1.10034E+000	2.82785E-002	0.00000E+000	3.11161E-002	2.82221E-001	3.74633E-002	4.46895E+001	11	...........	6.20762E-002	-4.34972E-003	5.81108E-001	6.12062E-001	-2.91526E-002	-3.88632E-002	6.71295E-001	-4.31158E-002	1.75542E-003	-1.23004E-004	1.64329E-002	1.73082E-002	-8.24393E-004	-1.09899E-003	1.89832E-002	-1.21925E-003
	44	44	1.10040E+000	2.80719E-002	0.00000E+000	3.08904E-002	2.80169E-001	3.74037E-002	4.43538E+001	11	...........	6.19564E-002	-4.32611E-003	5.81156E-001	6.12134E-001	-2.91472E-002	-3.88785E-002	6.71320E-001	-4.31346E-002	1.73923E-003	-1.21442E-004	1.63141E-002	1.71838E-002	-8.18217E-004	-1.09139E-003	1.88452E-002	-1.21087E-003
	45	45	1.10033E+000	2.79529E-002	0.00000E+000	3.07573E-002	2.78985E-001	3.73420E-002	4.35155E+001	11	...........	6.18872E-002	-4.27986E-003	5.81142E-001	6.12198E-001	-2.91343E-002	-3.88617E-002	6.71315E-001	-4.32108E-002	1.72993E-003	-1.19634E-004	1.62446E-002	1.71127E-002	-8.14388E-004	-1.08630E-003	1.87652E-002	-1.20787E-003
	46	45.6933	1.10041E+000	2.80675E-002	0.00000E+000	3.08857E-002	2.80125E-001	3.74148E-002	4.45056E+001	11	...........	6.20104E-002	-4.18490E-003	5.81247E-001	6.12085E-001	-2.90843E-002	-3.88656E-002	6.71313E-001	-4.31813E-002	1.74048E-003	-1.17460E-004	1.63141E-002	1.71797E-002	-8.16325E-004	-1.09086E-003	1.88421E-002	-1.21199E-003
STARTTIMEOFFSET	QUANT	890829.4	Start Time Offset (s)
