EXPLAIN
TAG	PWR800_CHARGE
TITLE	LABEL	PWR Charge	Test Identifier
DATE	LABEL	10/13/2022	Date
TIME	LABEL	11:31:22	Time
NOTES	NOTES	1	Notes...
	
PSTAT	PSTAT	REF3000-21114	Potentiostat
CAPACITY	QUANT	5.30000E-002	Capacity (A-hr)
CELLTYPE	SELECTOR	1	Cell Type
WORKINGCONNECTION	SELECTOR	0	Working Connection
MAXCHARGETIME	VARIABLEANDUNITS	7.20000E+003	s	2.00000E+000	hour(s)	Max Charge Time
CHARGEMODE	MULTIPARAM	0	1.00000E-001	Charge Mode	Constant Current	Amp(s)
CHARGECURRENT	QUANT	0.1	Charge Current (A)
VOLTAGEFINISH	TWOPARAM	T	2.50000E-002	7.20000E+003	Voltage Finish	I (A) <	Max Time(s)
SAMPLETIME	QUANT	1.00000E+000	Sample Period (s)
CHARGESTOPAT1	MULTIPARAM	2	1.10000E+000	Stop At 1	|Voltage| > Limit	V
CHARGESTOPAT2	MULTIPARAM	0	0.00000E+000	Stop At 2	None	N/A
AESELECTOR	AESELECTOR	0x1	T	Set Limits	AE Channels
AESBHCSELECTOR	TOGGLE	F	Save Both Half Cells
IRCOMP	TOGGLE	F	IR Measure
EOC	QUANT	0.1834106	Open Circuit (V)
SEQUENCER	TOGGLE	TRUE	Run as Sequence
PSTATMODEL	IQUANT	5	Pstat Model
PSTATSECTION	LABEL	REF3000-21114	Pstat Section
PSTATSERIALNO	LABEL	21114	Pstat Serial Number
CTRLMODE	IQUANT	0	Control Mode
ELECTROMETER	IQUANT	0	RE=0 or CS=1
IESTAB	IQUANT	0	I/E Stability
CASPEED	IQUANT	4	Control Amp Speed
CONVENTION	IQUANT	1	Current Convention
ICHRANGE	IQUANT	2	Ich Range
ICHRANGEMODE	TOGGLE	T	Ich Auto Range
ICHOFFSETENABLE	TOGGLE	F	Ich Offset Enable
ICHOFFSET	QUANT	0	Ich Offset (V)
ICHFILTER	IQUANT	1	Ich Filter
VCHRANGE	IQUANT	3	Vch Range
VCHRANGEMODE	TOGGLE	T	Vch Auto Range
VCHOFFSETENABLE	TOGGLE	F	Vch Offset Enable
VCHOFFSET	QUANT	0	Vch Offset (V)
VCHFILTER	IQUANT	1	Vch Filter
ACHRANGE	IQUANT	2	Ach Range
ACHOFFSETENABLE	TOGGLE	F	Ach Offset Enable
ACHOFFSET	QUANT	0	Ach Offset (V)
ACHFILTER	IQUANT	1	Ach Filter
IERANGELOWERLIMIT	IQUANT	9	I/E Range Lower Limit
IERANGEMODE	TOGGLE	F	I/E AutoRange
IERANGE	IQUANT	9	I/E Range
POSFEEDENABLE	TOGGLE	F	Positive Feedback IR Comp
POSFEEDRESISTANCE	QUANT	0	Positive Feedback Resistance (ohm)
ACHSELECT	IQUANT	1	Ach Select
SENSECABLEID	IQUANT	13	Sense Cable ID
PWRCABLEID	IQUANT	13	Power Cable ID
DCCALDATE	LABEL		DC Calibration Date
ACCALDATE	LABEL		AC Calibration Date
THERMOSELECT	IQUANT	1	Thermo Select
FRAMEWORKVERSION	LABEL	7.8.6	Framework Version
INSTRUMENTVERSION	LABEL	4.50	Instrument Version
COMPLIANCEVOLTAGE	IQUANT	0	Compliance Voltage
CURVE	TABLE	198
	Pt	T	Vf	Im	Vu	Pwr	Sig	Ach	Temp	IERange	Over	Vf1	Vf2	Vf3	Vf4	Vf5	Vf6	Vf7	Vf8	Pwr1	Pwr2	Pwr3	Pwr4	Pwr5	Pwr6	Pwr7	Pwr8
	#	s	V	A	V	W	V	V	deg C	#	bits	V	V	V	V	V	V	V	V	W	W	W	W	W	W	W	W
	0	1	4.60567E-001	9.98422E-002	0.00000E+000	4.59841E-002	9.94000E-001	4.31688E-002	4.19324E+001	11	...........	7.16947E-002	-5.16056E-003	5.96869E-001	5.67379E-001	-2.82035E-002	-3.87992E-002	6.94182E-001	-4.38578E-002	7.15816E-003	-5.15241E-004	5.95927E-002	5.66484E-002	-2.81590E-003	-3.87379E-003	6.93086E-002	-4.37886E-003
	1	2	6.07917E-001	9.98425E-002	0.00000E+000	6.06960E-002	9.94000E-001	4.32990E-002	4.35147E+001	11	...........	7.18882E-002	-5.19014E-003	5.96689E-001	5.67456E-001	-2.81807E-002	-3.88022E-002	6.94114E-001	-4.37485E-002	7.17750E-003	-5.18196E-004	5.95749E-002	5.66562E-002	-2.81363E-003	-3.87411E-003	6.93021E-002	-4.36796E-003
	2	3	8.76034E-001	9.98425E-002	0.00000E+000	8.74655E-002	9.94000E-001	4.41584E-002	4.88432E+001	11	...........	7.32911E-002	-5.20444E-003	5.96754E-001	5.67450E-001	-2.81633E-002	-3.88007E-002	6.94078E-001	-4.37956E-002	7.31757E-003	-5.19625E-004	5.95814E-002	5.66556E-002	-2.81190E-003	-3.87396E-003	6.92985E-002	-4.37266E-003
	3	3.095	1.08446E+000	9.98438E-002	0.00000E+000	1.08277E-001	9.94000E-001	4.45842E-002	5.35529E+001	11	...........	7.40073E-002	-5.35088E-003	5.96941E-001	5.67411E-001	-2.80058E-002	-3.88655E-002	6.94013E-001	-4.38860E-002	7.38917E-003	-5.34252E-004	5.96009E-002	5.66525E-002	-2.79621E-003	-3.88048E-003	6.92929E-002	-4.38174E-003
	4	4	1.10127E+000	7.35575E-002	0.00000E+000	8.10068E-002	7.32608E-001	4.40290E-002	5.29162E+001	11	...........	7.30514E-002	-5.34500E-003	5.96935E-001	5.67394E-001	-2.81685E-002	-3.88059E-002	6.94095E-001	-4.38507E-002	5.37348E-003	-3.93164E-004	4.39091E-002	4.17360E-002	-2.07200E-003	-2.85446E-003	5.10558E-002	-3.22554E-003
	5	5	1.10108E+000	5.99385E-002	0.00000E+000	6.59968E-002	5.97180E-001	4.39275E-002	5.18320E+001	11	...........	7.29060E-002	-5.18250E-003	5.96843E-001	5.67363E-001	-2.81396E-002	-3.88087E-002	6.94076E-001	-4.38369E-002	4.36987E-003	-3.10631E-004	3.57739E-002	3.40069E-002	-1.68664E-003	-2.32614E-003	4.16018E-002	-2.62752E-003
	6	6	1.10093E+000	5.46778E-002	0.00000E+000	6.01962E-002	5.44870E-001	4.39228E-002	5.11222E+001	11	...........	7.29017E-002	-5.07736E-003	5.96790E-001	5.67500E-001	-2.81244E-002	-3.88081E-002	6.94147E-001	-4.38157E-002	3.98610E-003	-2.77619E-004	3.26312E-002	3.10296E-002	-1.53778E-003	-2.12194E-003	3.79544E-002	-2.39575E-003
	7	7	1.10092E+000	5.21756E-002	0.00000E+000	5.74413E-002	5.19989E-001	4.38556E-002	5.06222E+001	11	...........	7.28064E-002	-5.06819E-003	5.96917E-001	5.67506E-001	-2.81231E-002	-3.88129E-002	6.94154E-001	-4.38535E-002	3.79872E-003	-2.64436E-004	3.11445E-002	2.96100E-002	-1.46734E-003	-2.02509E-003	3.62179E-002	-2.28808E-003
	8	8	1.10102E+000	5.00961E-002	0.00000E+000	5.51566E-002	4.99308E-001	4.38517E-002	5.01572E+001	11	...........	7.27901E-002	-5.12639E-003	5.96807E-001	5.67568E-001	-2.81249E-002	-3.87890E-002	6.93943E-001	-4.38776E-002	3.64650E-003	-2.56812E-004	2.98977E-002	2.84330E-002	-1.40895E-003	-1.94318E-003	3.47638E-002	-2.19810E-003
	9	9	1.10091E+000	4.84751E-002	0.00000E+000	5.33666E-002	4.83198E-001	4.37904E-002	4.97904E+001	11	...........	7.26793E-002	-5.12694E-003	5.96653E-001	5.67536E-001	-2.81692E-002	-3.87793E-002	6.93938E-001	-4.37867E-002	3.52314E-003	-2.48529E-004	2.89228E-002	2.75114E-002	-1.36550E-003	-1.87983E-003	3.36387E-002	-2.12256E-003
	10	10	1.10091E+000	4.78907E-002	0.00000E+000	5.27231E-002	4.77389E-001	4.38269E-002	4.96469E+001	11	...........	7.27406E-002	-5.11708E-003	5.96793E-001	5.67532E-001	-2.82085E-002	-3.88000E-002	6.93920E-001	-4.37032E-002	3.48360E-003	-2.45061E-004	2.85808E-002	2.71795E-002	-1.35092E-003	-1.85816E-003	3.32323E-002	-2.09298E-003
	11	11	1.10100E+000	4.70874E-002	0.00000E+000	5.18433E-002	4.69403E-001	4.38122E-002	4.94579E+001	11	...........	7.26746E-002	-5.11806E-003	5.96863E-001	5.67677E-001	-2.82118E-002	-3.88189E-002	6.94148E-001	-4.36192E-002	3.42206E-003	-2.40996E-004	2.81048E-002	2.67305E-002	-1.32842E-003	-1.82788E-003	3.26856E-002	-2.05392E-003
	12	12	1.10091E+000	4.62921E-002	0.00000E+000	5.09635E-002	4.61490E-001	4.37404E-002	4.93196E+001	11	...........	7.26078E-002	-5.06000E-003	5.96967E-001	5.67722E-001	-2.82197E-002	-3.88046E-002	6.94061E-001	-4.36496E-002	3.36117E-003	-2.34238E-004	2.76349E-002	2.62811E-002	-1.30635E-003	-1.79635E-003	3.21296E-002	-2.02063E-003
	13	13	1.10090E+000	4.62936E-002	0.00000E+000	5.09646E-002	4.61507E-001	4.37316E-002	4.92132E+001	11	...........	7.25879E-002	-5.08486E-003	5.96970E-001	5.67572E-001	-2.82264E-002	-3.87746E-002	6.94127E-001	-4.37646E-002	3.36036E-003	-2.35396E-004	2.76359E-002	2.62750E-002	-1.30670E-003	-1.79501E-003	3.21337E-002	-2.02602E-003
	14	14	1.10099E+000	4.58887E-002	0.00000E+000	5.05232E-002	4.57479E-001	4.37117E-002	4.72762E+001	11	...........	7.25660E-002	-5.02500E-003	5.96975E-001	5.67478E-001	-2.82143E-002	-3.87639E-002	6.94125E-001	-4.37614E-002	3.32996E-003	-2.30591E-004	2.73944E-002	2.60409E-002	-1.29472E-003	-1.77883E-003	3.18525E-002	-2.00815E-003
	15	15	1.10091E+000	4.52582E-002	0.00000E+000	4.98253E-002	4.51209E-001	4.34617E-002	4.81775E+001	11	...........	7.21324E-002	-5.02722E-003	5.97000E-001	5.67379E-001	-2.82165E-002	-3.87637E-002	6.94010E-001	-4.36407E-002	3.26458E-003	-2.27523E-004	2.70191E-002	2.56785E-002	-1.27703E-003	-1.75438E-003	3.14096E-002	-1.97510E-003
	16	16	1.10090E+000	4.54347E-002	0.00000E+000	5.00189E-002	4.52964E-001	4.36998E-002	4.88886E+001	11	...........	7.25360E-002	-4.97861E-003	5.97030E-001	5.67381E-001	-2.82056E-002	-3.87829E-002	6.93992E-001	-4.36301E-002	3.29565E-003	-2.26202E-004	2.71259E-002	2.57788E-002	-1.28151E-003	-1.76209E-003	3.15313E-002	-1.98232E-003
	17	17	1.10099E+000	4.52308E-002	0.00000E+000	4.97985E-002	4.50940E-001	4.36052E-002	4.88943E+001	11	...........	7.23797E-002	-4.95208E-003	5.97008E-001	5.67514E-001	-2.82153E-002	-3.87929E-002	6.94048E-001	-4.36935E-002	3.27379E-003	-2.23987E-004	2.70031E-002	2.56691E-002	-1.27620E-003	-1.75464E-003	3.13924E-002	-1.97629E-003
	18	18	1.10092E+000	4.47411E-002	0.00000E+000	4.92562E-002	4.46068E-001	4.35142E-002	4.88538E+001	11	...........	7.23761E-002	-4.98292E-003	5.96988E-001	5.67645E-001	-2.82119E-002	-3.88189E-002	6.94060E-001	-4.36639E-002	3.23819E-003	-2.22941E-004	2.67099E-002	2.53970E-002	-1.26223E-003	-1.73680E-003	3.10530E-002	-1.95357E-003
	19	19	1.10090E+000	4.49298E-002	0.00000E+000	4.94630E-002	4.47946E-001	4.35825E-002	4.88709E+001	11	...........	7.23315E-002	-4.97639E-003	5.97110E-001	5.67734E-001	-2.82218E-002	-3.88589E-002	6.94093E-001	-4.37453E-002	3.24984E-003	-2.23588E-004	2.68280E-002	2.55082E-002	-1.26800E-003	-1.74592E-003	3.11854E-002	-1.96547E-003
	20	20	1.10099E+000	4.46911E-002	0.00000E+000	4.92042E-002	4.45572E-001	4.33777E-002	4.88006E+001	11	...........	7.22601E-002	-5.07514E-003	5.97201E-001	5.67679E-001	-2.82097E-002	-3.88626E-002	6.94260E-001	-4.38578E-002	3.22938E-003	-2.26813E-004	2.66896E-002	2.53702E-002	-1.26072E-003	-1.73681E-003	3.10272E-002	-1.96005E-003
	21	21	1.10092E+000	4.42070E-002	0.00000E+000	4.86683E-002	4.40761E-001	4.32113E-002	4.87703E+001	11	...........	7.21175E-002	-5.08681E-003	5.97268E-001	5.67578E-001	-2.82221E-002	-3.88489E-002	6.94231E-001	-4.38462E-002	3.18810E-003	-2.24872E-004	2.64034E-002	2.50909E-002	-1.24761E-003	-1.71739E-003	3.06899E-002	-1.93831E-003
	22	22	1.10089E+000	4.44202E-002	0.00000E+000	4.89019E-002	4.42883E-001	4.31917E-002	4.87533E+001	11	...........	7.20868E-002	-5.07667E-003	5.97291E-001	5.67599E-001	-2.82212E-002	-3.88437E-002	6.94178E-001	-4.37782E-002	3.20211E-003	-2.25507E-004	2.65318E-002	2.52129E-002	-1.25359E-003	-1.72545E-003	3.08355E-002	-1.94464E-003
	23	23	1.10098E+000	4.42788E-002	0.00000E+000	4.87501E-002	4.41477E-001	4.31767E-002	4.87991E+001	11	...........	7.20544E-002	-5.12403E-003	5.97313E-001	5.67422E-001	-2.82179E-002	-3.88447E-002	6.94133E-001	-4.37554E-002	3.19048E-003	-2.26886E-004	2.64483E-002	2.51248E-002	-1.24946E-003	-1.72000E-003	3.07354E-002	-1.93744E-003
	24	24	1.10093E+000	4.38022E-002	0.00000E+000	4.82230E-002	4.36738E-001	4.31151E-002	4.87672E+001	11	...........	7.19761E-002	-5.27403E-003	5.97156E-001	5.67466E-001	-2.82311E-002	-3.88551E-002	6.94220E-001	-4.37335E-002	3.15271E-003	-2.31014E-004	2.61568E-002	2.48563E-002	-1.23659E-003	-1.70194E-003	3.04084E-002	-1.91562E-003
	25	25	1.10089E+000	4.40161E-002	0.00000E+000	4.84570E-002	4.38865E-001	4.30655E-002	4.87494E+001	11	...........	7.18869E-002	-5.17361E-003	5.97020E-001	5.67577E-001	-2.82336E-002	-3.88554E-002	6.94193E-001	-4.38564E-002	3.16419E-003	-2.27722E-004	2.62785E-002	2.49825E-002	-1.24273E-003	-1.71027E-003	3.05557E-002	-1.93039E-003
	26	26	1.10098E+000	4.38106E-002	0.00000E+000	4.82345E-002	4.36823E-001	4.30533E-002	4.69774E+001	11	...........	7.18469E-002	-5.12083E-003	5.96929E-001	5.67570E-001	-2.82661E-002	-3.88710E-002	6.94177E-001	-4.39367E-002	3.14765E-003	-2.24347E-004	2.61518E-002	2.48655E-002	-1.23835E-003	-1.70296E-003	3.04123E-002	-1.92489E-003
	27	27	1.10093E+000	4.33616E-002	0.00000E+000	4.77381E-002	4.32354E-001	4.29552E-002	4.77936E+001	11	...........	7.17004E-002	-5.07208E-003	5.96895E-001	5.67591E-001	-2.82624E-002	-3.88593E-002	6.94230E-001	-4.38657E-002	3.10905E-003	-2.19934E-004	2.58823E-002	2.46117E-002	-1.22550E-003	-1.68500E-003	3.01030E-002	-1.90209E-003
	28	28	1.10089E+000	4.35960E-002	0.00000E+000	4.79944E-002	4.34684E-001	4.29513E-002	4.85869E+001	11	...........	7.16986E-002	-5.03986E-003	5.96824E-001	5.67601E-001	-2.82675E-002	-3.88806E-002	6.94295E-001	-4.39026E-002	3.12577E-003	-2.19718E-004	2.60191E-002	2.47451E-002	-1.23235E-003	-1.69504E-003	3.02685E-002	-1.91398E-003
	29	29	1.10098E+000	4.35199E-002	0.00000E+000	4.79143E-002	4.33926E-001	4.29745E-002	4.86568E+001	11	...........	7.17408E-002	-5.07917E-003	5.96819E-001	5.67711E-001	-2.82569E-002	-3.88822E-002	6.94215E-001	-4.38215E-002	3.12215E-003	-2.21045E-004	2.59735E-002	2.47067E-002	-1.22974E-003	-1.69215E-003	3.02121E-002	-1.90711E-003
	30	30	1.10093E+000	4.30105E-002	0.00000E+000	4.73517E-002	4.28860E-001	4.29307E-002	4.86506E+001	11	...........	7.16467E-002	-5.15014E-003	5.96667E-001	5.67774E-001	-2.82500E-002	-3.88650E-002	6.94333E-001	-4.38639E-002	3.08156E-003	-2.21510E-004	2.56630E-002	2.44203E-002	-1.21505E-003	-1.67160E-003	2.98637E-002	-1.88661E-003
	31	31	1.10089E+000	4.32300E-002	0.00000E+000	4.75914E-002	4.31044E-001	4.28758E-002	4.86557E+001	11	...........	7.15631E-002	-5.09153E-003	5.96611E-001	5.67700E-001	-2.82101E-002	-3.88751E-002	6.94366E-001	-4.38743E-002	3.09367E-003	-2.20107E-004	2.57915E-002	2.45416E-002	-1.21952E-003	-1.68057E-003	3.00174E-002	-1.89668E-003
	32	32	1.10097E+000	4.31311E-002	0.00000E+000	4.74861E-002	4.30058E-001	4.28384E-002	4.85755E+001	11	...........	7.14967E-002	-4.98569E-003	5.96578E-001	5.67728E-001	-2.81911E-002	-3.88604E-002	6.94247E-001	-4.38921E-002	3.08373E-003	-2.15039E-004	2.57311E-002	2.44867E-002	-1.21591E-003	-1.67609E-003	2.99437E-002	-1.89311E-003
	33	33	1.10094E+000	4.26293E-002	0.00000E+000	4.69322E-002	4.25072E-001	4.28096E-002	4.85737E+001	11	...........	7.14426E-002	-5.07958E-003	5.96685E-001	5.67709E-001	-2.81944E-002	-3.88603E-002	6.94098E-001	-4.38992E-002	3.04555E-003	-2.16539E-004	2.54363E-002	2.42011E-002	-1.20191E-003	-1.65659E-003	2.95889E-002	-1.87139E-003
	34	34	1.10089E+000	4.28473E-002	0.00000E+000	4.71701E-002	4.27238E-001	4.28068E-002	4.86087E+001	11	...........	7.14361E-002	-5.12181E-003	5.96834E-001	5.67772E-001	-2.82182E-002	-3.88546E-002	6.94145E-001	-4.38296E-002	3.06084E-003	-2.19456E-004	2.55727E-002	2.43275E-002	-1.20907E-003	-1.66481E-003	2.97423E-002	-1.87798E-003
	35	35	1.10097E+000	4.27657E-002	0.00000E+000	4.70838E-002	4.26430E-001	4.27608E-002	4.85843E+001	11	...........	7.13632E-002	-5.07514E-003	5.96901E-001	5.67713E-001	-2.82062E-002	-3.88583E-002	6.94128E-001	-4.38665E-002	3.05190E-003	-2.17042E-004	2.55269E-002	2.42786E-002	-1.20626E-003	-1.66180E-003	2.96849E-002	-1.87598E-003
	36	36	1.10094E+000	4.22795E-002	0.00000E+000	4.65473E-002	4.21595E-001	4.27288E-002	4.85763E+001	11	...........	7.13312E-002	-5.05931E-003	5.96854E-001	5.67520E-001	-2.81846E-002	-3.88796E-002	6.94212E-001	-4.38296E-002	3.01585E-003	-2.13905E-004	2.52347E-002	2.39945E-002	-1.19163E-003	-1.64381E-003	2.93510E-002	-1.85309E-003
	37	37	1.10089E+000	4.25204E-002	0.00000E+000	4.68101E-002	4.23986E-001	4.26899E-002	4.85961E+001	11	...........	7.12586E-002	-5.05278E-003	5.96745E-001	5.67370E-001	-2.82001E-002	-3.88694E-002	6.94133E-001	-4.37211E-002	3.02994E-003	-2.14846E-004	2.53738E-002	2.41248E-002	-1.19908E-003	-1.65274E-003	2.95148E-002	-1.85904E-003
	38	38	1.10097E+000	4.24344E-002	0.00000E+000	4.67189E-002	4.23135E-001	4.26557E-002	4.85842E+001	11	...........	7.12093E-002	-5.21000E-003	5.96728E-001	5.67263E-001	-2.82040E-002	-3.88762E-002	6.94165E-001	-4.37675E-002	3.02172E-003	-2.21083E-004	2.53218E-002	2.40715E-002	-1.19682E-003	-1.64969E-003	2.94565E-002	-1.85725E-003
	39	39	1.10095E+000	4.19383E-002	0.00000E+000	4.61718E-002	4.18200E-001	4.26334E-002	4.85213E+001	11	...........	7.11642E-002	-5.21042E-003	5.96713E-001	5.67215E-001	-2.81946E-002	-3.88906E-002	6.94132E-001	-4.38008E-002	2.98450E-003	-2.18516E-004	2.50251E-002	2.37880E-002	-1.18243E-003	-1.63100E-003	2.91107E-002	-1.83693E-003
	40	40	1.10088E+000	4.21420E-002	0.00000E+000	4.63935E-002	4.20222E-001	4.25919E-002	4.85534E+001	11	...........	7.10917E-002	-5.19056E-003	5.96768E-001	5.67065E-001	-2.81957E-002	-3.88949E-002	6.94021E-001	-4.38096E-002	2.99595E-003	-2.18741E-004	2.51490E-002	2.38973E-002	-1.18822E-003	-1.63911E-003	2.92474E-002	-1.84622E-003
	41	41	1.10096E+000	4.21071E-002	0.00000E+000	4.63584E-002	4.19876E-001	4.25874E-002	4.85505E+001	11	...........	7.10711E-002	-5.11569E-003	5.96739E-001	5.66931E-001	-2.81862E-002	-3.88844E-002	6.94125E-001	-4.38214E-002	2.99260E-003	-2.15407E-004	2.51270E-002	2.38719E-002	-1.18684E-003	-1.63731E-003	2.92276E-002	-1.84519E-003
	42	42	1.10095E+000	4.16200E-002	0.00000E+000	4.58216E-002	4.15035E-001	4.25323E-002	4.85567E+001	11	...........	7.09801E-002	-5.13778E-003	5.96899E-001	5.67031E-001	-2.82096E-002	-3.88757E-002	6.94146E-001	-4.37650E-002	2.95419E-003	-2.13834E-004	2.48429E-002	2.35998E-002	-1.17408E-003	-1.61801E-003	2.88904E-002	-1.82150E-003
	43	43	1.10089E+000	4.18389E-002	0.00000E+000	4.60598E-002	4.17210E-001	4.25243E-002	4.85655E+001	11	...........	7.09568E-002	-5.17250E-003	5.96827E-001	5.67240E-001	-2.82454E-002	-3.88772E-002	6.94119E-001	-4.36919E-002	2.96875E-003	-2.16412E-004	2.49706E-002	2.37327E-002	-1.18176E-003	-1.62658E-003	2.90412E-002	-1.82802E-003
	44	44	1.10096E+000	4.18091E-002	0.00000E+000	4.60301E-002	4.16919E-001	4.24374E-002	4.84963E+001	11	...........	7.08310E-002	-5.16167E-003	5.96781E-001	5.67167E-001	-2.82062E-002	-3.88711E-002	6.94140E-001	-4.38465E-002	2.96138E-003	-2.15805E-004	2.49509E-002	2.37128E-002	-1.17928E-003	-1.62517E-003	2.90214E-002	-1.83318E-003
	45	45	1.10095E+000	4.13152E-002	0.00000E+000	4.54862E-002	4.12006E-001	4.24486E-002	4.85616E+001	11	...........	7.08335E-002	-5.09667E-003	5.96951E-001	5.67108E-001	-2.82146E-002	-3.88560E-002	6.94093E-001	-4.38456E-002	2.92650E-003	-2.10570E-004	2.46631E-002	2.34302E-002	-1.16569E-003	-1.60534E-003	2.86766E-002	-1.81149E-003
	46	46	1.10088E+000	4.14995E-002	0.00000E+000	4.56861E-002	4.13836E-001	4.24017E-002	4.85617E+001	11	...........	7.07836E-002	-5.19431E-003	5.97064E-001	5.67117E-001	-2.82251E-002	-3.88465E-002	6.93949E-001	-4.36637E-002	2.93749E-003	-2.15561E-004	2.47779E-002	2.35351E-002	-1.17133E-003	-1.61211E-003	2.87985E-002	-1.81203E-003
	47	47	1.10096E+000	4.15042E-002	0.00000E+000	4.56942E-002	4.13881E-001	4.23764E-002	4.85453E+001	11	...........	7.07249E-002	-5.21222E-003	5.97046E-001	5.66971E-001	-2.82442E-002	-3.88472E-002	6.93971E-001	-4.36603E-002	2.93538E-003	-2.16329E-004	2.47799E-002	2.35317E-002	-1.17225E-003	-1.61232E-003	2.88027E-002	-1.81208E-003
	48	48	1.10096E+000	4.09954E-002	0.00000E+000	4.51343E-002	4.08822E-001	4.23548E-002	4.85447E+001	11	...........	7.06971E-002	-5.19125E-003	5.96991E-001	5.66975E-001	-2.82178E-002	-3.88340E-002	6.93934E-001	-4.37343E-002	2.89826E-003	-2.12817E-004	2.44739E-002	2.32434E-002	-1.15680E-003	-1.59202E-003	2.84481E-002	-1.79291E-003
	49	49	1.10088E+000	4.11671E-002	0.00000E+000	4.53201E-002	4.10527E-001	4.23010E-002	4.85822E+001	11	...........	7.06108E-002	-5.14403E-003	5.96972E-001	5.66975E-001	-2.82053E-002	-3.88237E-002	6.93869E-001	-4.38004E-002	2.90684E-003	-2.11765E-004	2.45756E-002	2.33407E-002	-1.16113E-003	-1.59826E-003	2.85646E-002	-1.80314E-003
	50	50	1.10095E+000	4.11327E-002	0.00000E+000	4.52852E-002	4.10187E-001	4.22978E-002	4.85481E+001	11	...........	7.05967E-002	-5.02778E-003	5.96978E-001	5.66979E-001	-2.82004E-002	-3.88047E-002	6.93915E-001	-4.37119E-002	2.90383E-003	-2.06806E-004	2.45553E-002	2.33214E-002	-1.15996E-003	-1.59614E-003	2.85426E-002	-1.79799E-003
	51	51	1.10096E+000	4.06441E-002	0.00000E+000	4.47477E-002	4.05326E-001	4.22321E-002	4.85697E+001	11	...........	7.05143E-002	-5.12431E-003	5.96870E-001	5.67201E-001	-2.81933E-002	-3.88157E-002	6.93992E-001	-4.37406E-002	2.86599E-003	-2.08273E-004	2.42592E-002	2.30534E-002	-1.14589E-003	-1.57763E-003	2.82067E-002	-1.77779E-003
	52	52	1.10088E+000	4.08542E-002	0.00000E+000	4.49756E-002	4.07412E-001	4.22520E-002	4.85217E+001	11	...........	7.05351E-002	-5.07931E-003	5.96720E-001	5.67171E-001	-2.81882E-002	-3.88062E-002	6.93943E-001	-4.38408E-002	2.88166E-003	-2.07511E-004	2.43785E-002	2.31713E-002	-1.15161E-003	-1.58540E-003	2.83505E-002	-1.79108E-003
	53	53	1.10095E+000	4.07906E-002	0.00000E+000	4.49085E-002	4.06783E-001	4.21093E-002	4.64680E+001	11	...........	7.02882E-002	-5.05264E-003	5.96942E-001	5.67235E-001	-2.81657E-002	-3.87700E-002	6.93927E-001	-4.38232E-002	2.86710E-003	-2.06100E-004	2.43496E-002	2.31378E-002	-1.14890E-003	-1.58145E-003	2.83057E-002	-1.78757E-003
	54	54	1.10097E+000	4.03518E-002	0.00000E+000	4.44260E-002	4.02423E-001	4.20832E-002	4.79248E+001	11	...........	7.02410E-002	-5.10667E-003	5.96896E-001	5.67111E-001	-2.81590E-002	-3.87861E-002	6.93956E-001	-4.39479E-002	2.83435E-003	-2.06063E-004	2.40859E-002	2.28840E-002	-1.13627E-003	-1.56509E-003	2.80024E-002	-1.77338E-003
	55	55	1.10088E+000	4.05588E-002	0.00000E+000	4.46504E-002	4.04481E-001	4.21940E-002	4.83881E+001	11	...........	7.04193E-002	-5.17444E-003	5.96971E-001	5.67097E-001	-2.81714E-002	-3.87992E-002	6.93977E-001	-4.37751E-002	2.85613E-003	-2.09869E-004	2.42124E-002	2.30008E-002	-1.14260E-003	-1.57365E-003	2.81469E-002	-1.77547E-003
	56	56	1.10095E+000	4.05851E-002	0.00000E+000	4.46820E-002	4.04739E-001	4.21642E-002	4.84113E+001	11	...........	7.03707E-002	-5.21681E-003	5.96863E-001	5.67092E-001	-2.81753E-002	-3.87942E-002	6.94010E-001	-4.38724E-002	2.85600E-003	-2.11725E-004	2.42238E-002	2.30155E-002	-1.14350E-003	-1.57447E-003	2.81665E-002	-1.78057E-003
	57	57	1.10097E+000	4.00933E-002	0.00000E+000	4.41416E-002	3.99850E-001	4.21749E-002	4.84268E+001	11	...........	7.03987E-002	-5.03764E-003	5.96802E-001	5.67280E-001	-2.81854E-002	-3.87953E-002	6.94116E-001	-4.40315E-002	2.82252E-003	-2.01976E-004	2.39278E-002	2.27441E-002	-1.13005E-003	-1.55543E-003	2.78294E-002	-1.76537E-003
	58	58	1.10088E+000	4.02271E-002	0.00000E+000	4.42852E-002	4.01182E-001	4.20843E-002	4.84232E+001	11	...........	7.02533E-002	-5.11750E-003	5.96686E-001	5.67266E-001	-2.82172E-002	-3.87651E-002	6.94110E-001	-4.38887E-002	2.82609E-003	-2.05862E-004	2.40030E-002	2.28195E-002	-1.13510E-003	-1.55941E-003	2.79220E-002	-1.76552E-003
	59	59	1.10094E+000	4.02656E-002	0.00000E+000	4.43301E-002	4.01565E-001	4.20982E-002	4.84506E+001	11	...........	7.02603E-002	-5.12861E-003	5.96585E-001	5.67064E-001	-2.82274E-002	-3.87753E-002	6.94237E-001	-4.39101E-002	2.82907E-003	-2.06506E-004	2.40218E-002	2.28331E-002	-1.13659E-003	-1.56131E-003	2.79539E-002	-1.76807E-003
	60	60	1.10098E+000	3.97879E-002	0.00000E+000	4.38056E-002	3.96811E-001	4.20451E-002	4.76629E+001	11	...........	7.01804E-002	-5.05667E-003	5.96525E-001	5.67024E-001	-2.82065E-002	-3.87856E-002	6.94293E-001	-4.40021E-002	2.79233E-003	-2.01194E-004	2.37345E-002	2.25607E-002	-1.12228E-003	-1.54320E-003	2.76245E-002	-1.75075E-003
	61	61	1.10088E+000	3.98250E-002	0.00000E+000	4.38425E-002	3.97182E-001	4.18783E-002	4.68689E+001	11	...........	6.98936E-002	-5.03875E-003	5.96639E-001	5.66971E-001	-2.82092E-002	-3.87774E-002	6.94174E-001	-4.38865E-002	2.78352E-003	-2.00668E-004	2.37612E-002	2.25797E-002	-1.12343E-003	-1.54431E-003	2.76455E-002	-1.74778E-003
	62	62	1.10094E+000	3.99460E-002	0.00000E+000	4.39781E-002	3.98384E-001	4.20377E-002	4.82320E+001	11	...........	7.01646E-002	-4.96681E-003	5.96691E-001	5.66836E-001	-2.81932E-002	-3.87728E-002	6.94149E-001	-4.38037E-002	2.80279E-003	-1.98404E-004	2.38354E-002	2.26428E-002	-1.12620E-003	-1.54882E-003	2.77284E-002	-1.74978E-003
	63	63	1.10098E+000	3.94721E-002	0.00000E+000	4.34580E-002	3.93674E-001	4.20056E-002	4.84297E+001	11	...........	7.01056E-002	-4.93153E-003	5.96769E-001	5.66856E-001	-2.81993E-002	-3.87625E-002	6.94167E-001	-4.39179E-002	2.76721E-003	-1.94658E-004	2.35557E-002	2.23750E-002	-1.11309E-003	-1.53004E-003	2.74002E-002	-1.73353E-003
	64	64	1.10088E+000	3.95934E-002	0.00000E+000	4.35875E-002	3.94878E-001	4.19565E-002	4.84003E+001	11	...........	7.00217E-002	-5.00236E-003	5.96709E-001	5.66813E-001	-2.82151E-002	-3.87493E-002	6.94237E-001	-4.38942E-002	2.77240E-003	-1.98061E-004	2.36257E-002	2.24420E-002	-1.11713E-003	-1.53422E-003	2.74872E-002	-1.73792E-003
	65	65	1.10094E+000	3.96397E-002	0.00000E+000	4.36408E-002	3.95340E-001	4.19102E-002	4.84035E+001	11	...........	6.99500E-002	-4.99542E-003	5.96771E-001	5.66836E-001	-2.82249E-002	-3.87258E-002	6.94257E-001	-4.38649E-002	2.77279E-003	-1.98017E-004	2.36558E-002	2.24692E-002	-1.11882E-003	-1.53508E-003	2.75201E-002	-1.73879E-003
	66	66	1.10098E+000	3.91813E-002	0.00000E+000	4.31380E-002	3.90785E-001	4.19021E-002	4.83802E+001	11	...........	6.99382E-002	-5.00292E-003	5.96666E-001	5.66864E-001	-2.82379E-002	-3.87308E-002	6.94254E-001	-4.37521E-002	2.74027E-003	-1.96021E-004	2.33782E-002	2.22105E-002	-1.10640E-003	-1.51752E-003	2.72018E-002	-1.71426E-003
	67	67	1.10088E+000	3.92832E-002	0.00000E+000	4.32459E-002	3.91797E-001	4.18611E-002	4.83622E+001	11	...........	6.98694E-002	-5.10222E-003	5.96492E-001	5.66780E-001	-2.82418E-002	-3.87225E-002	6.94200E-001	-4.37849E-002	2.74469E-003	-2.00431E-004	2.34321E-002	2.22649E-002	-1.10943E-003	-1.52114E-003	2.72704E-002	-1.72001E-003
	68	68	1.10093E+000	3.93305E-002	0.00000E+000	4.33003E-002	3.92269E-001	4.18331E-002	4.84011E+001	11	...........	6.98349E-002	-5.02042E-003	5.96482E-001	5.66811E-001	-2.82347E-002	-3.87237E-002	6.94235E-001	-4.37936E-002	2.74664E-003	-1.97455E-004	2.34599E-002	2.22930E-002	-1.11048E-003	-1.52302E-003	2.73046E-002	-1.72242E-003
	69	69	1.10099E+000	3.88537E-002	0.00000E+000	4.27774E-002	3.87528E-001	4.17847E-002	4.84227E+001	11	...........	6.97536E-002	-5.00333E-003	5.96562E-001	5.66781E-001	-2.82179E-002	-3.87289E-002	6.94328E-001	-4.37990E-002	2.71019E-003	-1.94398E-004	2.31787E-002	2.20216E-002	-1.09637E-003	-1.50476E-003	2.69772E-002	-1.70175E-003
	70	70	1.10087E+000	3.89779E-002	0.00000E+000	4.29098E-002	3.88762E-001	4.17768E-002	4.84388E+001	11	...........	6.97142E-002	-5.03250E-003	5.96527E-001	5.66761E-001	-2.82176E-002	-3.87397E-002	6.94316E-001	-4.38208E-002	2.71731E-003	-1.96156E-004	2.32514E-002	2.20911E-002	-1.09986E-003	-1.50999E-003	2.70630E-002	-1.70804E-003
	71	71	1.10093E+000	3.90178E-002	0.00000E+000	4.29560E-002	3.89159E-001	4.17319E-002	4.84685E+001	11	...........	6.96571E-002	-5.10153E-003	5.96491E-001	5.66770E-001	-2.82172E-002	-3.87442E-002	6.94304E-001	-4.37751E-002	2.71787E-003	-1.99051E-004	2.32738E-002	2.21141E-002	-1.10097E-003	-1.51171E-003	2.70902E-002	-1.70801E-003
	72	72	1.10099E+000	3.85911E-002	0.00000E+000	4.24884E-002	3.84915E-001	4.17112E-002	4.84587E+001	11	...........	6.96226E-002	-5.09181E-003	5.96449E-001	5.66693E-001	-2.82133E-002	-3.87633E-002	6.94198E-001	-4.37631E-002	2.68681E-003	-1.96498E-004	2.30176E-002	2.18693E-002	-1.08878E-003	-1.49592E-003	2.67898E-002	-1.68886E-003
	73	73	1.10088E+000	3.86576E-002	0.00000E+000	4.25573E-002	3.85577E-001	4.16706E-002	4.84638E+001	11	...........	6.95651E-002	-4.98056E-003	5.96408E-001	5.66728E-001	-2.82418E-002	-3.87843E-002	6.94142E-001	-4.36646E-002	2.68922E-003	-1.92537E-004	2.30557E-002	2.19084E-002	-1.09176E-003	-1.49931E-003	2.68339E-002	-1.68797E-003
	74	74	1.10093E+000	3.87244E-002	0.00000E+000	4.26329E-002	3.86241E-001	4.16429E-002	4.84215E+001	11	...........	6.95261E-002	-4.96444E-003	5.96531E-001	5.66871E-001	-2.82671E-002	-3.87814E-002	6.94232E-001	-4.37083E-002	2.69236E-003	-1.92245E-004	2.31003E-002	2.19518E-002	-1.09463E-003	-1.50179E-003	2.68837E-002	-1.69258E-003
	75	75	1.10099E+000	3.83018E-002	0.00000E+000	4.21700E-002	3.82040E-001	4.16332E-002	4.84623E+001	11	...........	6.94929E-002	-5.03278E-003	5.96580E-001	5.66822E-001	-2.82550E-002	-3.87935E-002	6.94200E-001	-4.38210E-002	2.66170E-003	-1.92764E-004	2.28501E-002	2.17103E-002	-1.08222E-003	-1.48586E-003	2.65891E-002	-1.67842E-003
	76	76	1.10087E+000	3.83607E-002	0.00000E+000	4.22303E-002	3.82626E-001	4.15787E-002	4.84461E+001	11	...........	6.94021E-002	-4.98986E-003	5.96745E-001	5.66863E-001	-2.82610E-002	-3.87992E-002	6.94263E-001	-4.37779E-002	2.66231E-003	-1.91414E-004	2.28915E-002	2.17452E-002	-1.08411E-003	-1.48836E-003	2.66324E-002	-1.67935E-003
	77	77	1.10093E+000	3.84581E-002	0.00000E+000	4.23397E-002	3.83594E-001	4.15751E-002	4.84408E+001	11	...........	6.93846E-002	-5.03139E-003	5.96792E-001	5.66970E-001	-2.82582E-002	-3.87974E-002	6.94166E-001	-4.38419E-002	2.66840E-003	-1.93498E-004	2.29515E-002	2.18046E-002	-1.08676E-003	-1.49207E-003	2.66963E-002	-1.68608E-003
	78	78	1.10099E+000	3.80085E-002	0.00000E+000	4.18471E-002	3.79122E-001	4.15770E-002	4.70275E+001	11	...........	6.93939E-002	-5.05181E-003	5.96716E-001	5.67022E-001	-2.82493E-002	-3.87792E-002	6.94213E-001	-4.38683E-002	2.63756E-003	-1.92012E-004	2.26803E-002	2.15516E-002	-1.07371E-003	-1.47394E-003	2.63860E-002	-1.66737E-003
	79	79	1.10087E+000	3.80185E-002	0.00000E+000	4.18536E-002	3.79225E-001	4.13237E-002	4.73252E+001	11	...........	6.89726E-002	-5.00625E-003	5.96779E-001	5.66916E-001	-2.82618E-002	-3.87722E-002	6.94094E-001	-4.38228E-002	2.62224E-003	-1.90330E-004	2.26886E-002	2.15533E-002	-1.07447E-003	-1.47406E-003	2.63884E-002	-1.66608E-003
	80	80	1.10093E+000	3.81396E-002	0.00000E+000	4.19889E-002	3.80432E-001	4.15807E-002	4.82238E+001	11	...........	6.94218E-002	-4.95097E-003	5.96758E-001	5.66981E-001	-2.82789E-002	-3.87661E-002	6.94154E-001	-4.38161E-002	2.64772E-003	-1.88828E-004	2.27601E-002	2.16244E-002	-1.07854E-003	-1.47852E-003	2.64748E-002	-1.67113E-003
	81	81	1.10100E+000	3.77253E-002	0.00000E+000	4.15354E-002	3.76313E-001	4.15217E-002	4.83059E+001	11	...........	6.93076E-002	-5.00694E-003	5.96796E-001	5.66997E-001	-2.82622E-002	-3.87592E-002	6.94146E-001	-4.38500E-002	2.61465E-003	-1.88888E-004	2.25143E-002	2.13901E-002	-1.06620E-003	-1.46220E-003	2.61868E-002	-1.65425E-003
	82	82	1.10087E+000	3.77948E-002	0.00000E+000	4.16073E-002	3.77005E-001	4.15318E-002	4.83056E+001	11	...........	6.93142E-002	-5.05250E-003	5.96768E-001	5.67073E-001	-2.82592E-002	-3.87786E-002	6.94075E-001	-4.38446E-002	2.61972E-003	-1.90958E-004	2.25547E-002	2.14324E-002	-1.06805E-003	-1.46563E-003	2.62324E-002	-1.65710E-003
	83	83	1.10093E+000	3.78958E-002	0.00000E+000	4.17204E-002	3.78007E-001	4.14353E-002	4.82863E+001	11	...........	6.91736E-002	-4.98681E-003	5.96729E-001	5.67078E-001	-2.82472E-002	-3.87722E-002	6.94053E-001	-4.39453E-002	2.62139E-003	-1.88979E-004	2.26135E-002	2.14899E-002	-1.07045E-003	-1.46930E-003	2.63017E-002	-1.66534E-003
	84	84	1.10100E+000	3.74175E-002	0.00000E+000	4.11966E-002	3.73252E-001	4.14727E-002	4.82985E+001	11	...........	6.92264E-002	-4.98403E-003	5.96824E-001	5.66874E-001	-2.82329E-002	-3.87621E-002	6.93996E-001	-4.39518E-002	2.59028E-003	-1.86490E-004	2.23317E-002	2.12110E-002	-1.05640E-003	-1.45038E-003	2.59676E-002	-1.64457E-003
	85	85	1.10087E+000	3.74714E-002	0.00000E+000	4.12513E-002	3.73791E-001	4.13951E-002	4.83398E+001	11	...........	6.90890E-002	-4.97722E-003	5.97044E-001	5.66796E-001	-2.82435E-002	-3.87558E-002	6.94077E-001	-4.38664E-002	2.58886E-003	-1.86504E-004	2.23721E-002	2.12386E-002	-1.05832E-003	-1.45224E-003	2.60081E-002	-1.64374E-003
	86	86	1.10092E+000	3.75823E-002	0.00000E+000	4.13752E-002	3.74894E-001	4.13934E-002	4.82979E+001	11	...........	6.90893E-002	-5.02347E-003	5.97069E-001	5.66621E-001	-2.82192E-002	-3.87660E-002	6.94011E-001	-4.38960E-002	2.59654E-003	-1.88794E-004	2.24392E-002	2.12949E-002	-1.06054E-003	-1.45691E-003	2.60825E-002	-1.64971E-003
	87	87	1.10100E+000	3.72160E-002	0.00000E+000	4.09748E-002	3.71249E-001	4.13750E-002	4.83177E+001	11	...........	6.90621E-002	-4.96000E-003	5.96964E-001	5.66682E-001	-2.82251E-002	-3.87621E-002	6.93991E-001	-4.38461E-002	2.57021E-003	-1.84591E-004	2.22166E-002	2.10896E-002	-1.05043E-003	-1.44257E-003	2.58276E-002	-1.63178E-003
	88	88	1.10087E+000	3.72136E-002	0.00000E+000	4.09675E-002	3.71224E-001	4.13181E-002	4.83187E+001	11	...........	6.89721E-002	-5.01625E-003	5.97025E-001	5.66689E-001	-2.82337E-002	-3.87435E-002	6.93967E-001	-4.37435E-002	2.56670E-003	-1.86673E-004	2.22174E-002	2.10886E-002	-1.05068E-003	-1.44178E-003	2.58250E-002	-1.62785E-003
	89	89	1.10092E+000	3.72971E-002	0.00000E+000	4.10612E-002	3.72054E-001	4.13119E-002	4.82910E+001	11	...........	6.89492E-002	-5.11583E-003	5.97034E-001	5.66789E-001	-2.82225E-002	-3.87594E-002	6.93938E-001	-4.38639E-002	2.57161E-003	-1.90806E-004	2.22676E-002	2.11396E-002	-1.05262E-003	-1.44562E-003	2.58819E-002	-1.63600E-003
	90	90	1.10100E+000	3.69361E-002	0.00000E+000	4.06666E-002	3.68462E-001	4.12690E-002	4.83195E+001	11	...........	6.88968E-002	-5.10861E-003	5.96985E-001	5.66727E-001	-2.82267E-002	-3.87790E-002	6.93858E-001	-4.38868E-002	2.54478E-003	-1.88692E-004	2.20503E-002	2.09327E-002	-1.04258E-003	-1.43235E-003	2.56284E-002	-1.62101E-003
	91	91	1.10087E+000	3.69553E-002	0.00000E+000	4.06832E-002	3.68650E-001	4.12560E-002	4.83115E+001	11	...........	6.88575E-002	-4.98875E-003	5.97007E-001	5.66734E-001	-2.82246E-002	-3.87778E-002	6.93867E-001	-4.37740E-002	2.54465E-003	-1.84361E-004	2.20626E-002	2.09438E-002	-1.04305E-003	-1.43305E-003	2.56421E-002	-1.61768E-003
	92	92	1.10092E+000	3.70461E-002	0.00000E+000	4.07849E-002	3.69551E-001	4.12373E-002	4.83318E+001	11	...........	6.88419E-002	-5.02736E-003	5.96995E-001	5.66768E-001	-2.82181E-002	-3.87846E-002	6.93927E-001	-4.37078E-002	2.55033E-003	-1.86244E-004	2.21163E-002	2.09966E-002	-1.04537E-003	-1.43682E-003	2.57073E-002	-1.61920E-003
	93	93	1.10100E+000	3.66555E-002	0.00000E+000	4.03577E-002	3.65672E-001	4.11929E-002	4.83074E+001	11	...........	6.87646E-002	-5.08653E-003	5.97062E-001	5.66821E-001	-2.82253E-002	-3.87901E-002	6.93948E-001	-4.37894E-002	2.52060E-003	-1.86449E-004	2.18856E-002	2.07771E-002	-1.03461E-003	-1.42187E-003	2.54370E-002	-1.60512E-003
	94	94	1.10088E+000	3.66259E-002	0.00000E+000	4.03206E-002	3.65377E-001	4.11954E-002	4.79544E+001	11	...........	6.87575E-002	-5.13972E-003	5.97125E-001	5.66822E-001	-2.82292E-002	-3.88201E-002	6.94012E-001	-4.38790E-002	2.51830E-003	-1.88247E-004	2.18702E-002	2.07604E-002	-1.03392E-003	-1.42182E-003	2.54188E-002	-1.60711E-003
	95	95	1.10092E+000	3.67140E-002	0.00000E+000	4.04192E-002	3.66260E-001	4.10459E-002	4.69882E+001	11	...........	6.85099E-002	-5.09694E-003	5.96955E-001	5.66886E-001	-2.82261E-002	-3.88268E-002	6.93992E-001	-4.37982E-002	2.51527E-003	-1.87129E-004	2.19166E-002	2.08126E-002	-1.03629E-003	-1.42549E-003	2.54792E-002	-1.60801E-003
	96	96	1.10100E+000	3.64126E-002	0.00000E+000	4.00902E-002	3.63257E-001	4.11302E-002	4.78733E+001	11	...........	6.86543E-002	-5.01681E-003	5.96947E-001	5.66921E-001	-2.82001E-002	-3.88231E-002	6.93857E-001	-4.38475E-002	2.49988E-003	-1.82675E-004	2.17364E-002	2.06431E-002	-1.02684E-003	-1.41365E-003	2.52651E-002	-1.59660E-003
	97	97	1.10088E+000	3.63587E-002	0.00000E+000	4.00265E-002	3.62723E-001	4.11052E-002	4.81019E+001	11	...........	6.86197E-002	-5.16722E-003	5.96878E-001	5.66925E-001	-2.81978E-002	-3.88137E-002	6.93854E-001	-4.39125E-002	2.49492E-003	-1.87874E-004	2.17017E-002	2.06127E-002	-1.02523E-003	-1.41122E-003	2.52276E-002	-1.59660E-003
	98	98	1.10092E+000	3.64749E-002	0.00000E+000	4.01559E-002	3.63880E-001	4.10722E-002	4.81144E+001	11	...........	6.85693E-002	-5.28153E-003	5.96812E-001	5.67087E-001	-2.81700E-002	-3.88206E-002	6.93753E-001	-4.37533E-002	2.50106E-003	-1.92643E-004	2.17686E-002	2.06844E-002	-1.02750E-003	-1.41598E-003	2.53046E-002	-1.59590E-003
	99	99	1.10100E+000	3.61409E-002	0.00000E+000	3.97911E-002	3.60557E-001	4.10592E-002	4.81267E+001	11	...........	6.85292E-002	-5.30347E-003	5.96764E-001	5.67128E-001	-2.81592E-002	-3.88121E-002	6.93907E-001	-4.38396E-002	2.47670E-003	-1.91672E-004	2.15676E-002	2.04965E-002	-1.01770E-003	-1.40270E-003	2.50784E-002	-1.58440E-003
	100	100	1.10088E+000	3.61016E-002	0.00000E+000	3.97434E-002	3.60166E-001	4.10157E-002	4.81563E+001	11	...........	6.84593E-002	-5.25861E-003	5.96710E-001	5.67212E-001	-2.81669E-002	-3.88281E-002	6.93953E-001	-4.39114E-002	2.47149E-003	-1.89844E-004	2.15422E-002	2.04773E-002	-1.01687E-003	-1.40176E-003	2.50528E-002	-1.58527E-003
	101	101	1.10092E+000	3.62342E-002	0.00000E+000	3.98909E-002	3.61483E-001	4.09976E-002	4.81451E+001	11	...........	6.84397E-002	-5.10292E-003	5.96563E-001	5.67293E-001	-2.81481E-002	-3.88171E-002	6.94030E-001	-4.38533E-002	2.47986E-003	-1.84900E-004	2.16160E-002	2.05554E-002	-1.01992E-003	-1.40650E-003	2.51476E-002	-1.58899E-003
	102	102	1.10100E+000	3.58936E-002	0.00000E+000	3.95188E-002	3.58099E-001	4.09737E-002	4.81789E+001	11	...........	6.83774E-002	-5.09389E-003	5.96855E-001	5.67202E-001	-2.81112E-002	-3.88010E-002	6.93989E-001	-4.37835E-002	2.45431E-003	-1.82838E-004	2.14233E-002	2.03589E-002	-1.00901E-003	-1.39271E-003	2.49097E-002	-1.57154E-003
	103	103	1.10088E+000	3.58153E-002	0.00000E+000	3.94283E-002	3.57317E-001	4.09363E-002	4.81851E+001	11	...........	6.83374E-002	-5.05972E-003	5.96978E-001	5.67097E-001	-2.81233E-002	-3.87903E-002	6.94026E-001	-4.37643E-002	2.44752E-003	-1.81215E-004	2.13809E-002	2.03108E-002	-1.00724E-003	-1.38928E-003	2.48567E-002	-1.56743E-003
	104	104	1.10092E+000	3.59385E-002	0.00000E+000	3.95653E-002	3.58541E-001	4.09337E-002	4.81756E+001	11	...........	6.83178E-002	-5.09486E-003	5.97046E-001	5.67009E-001	-2.81224E-002	-3.87921E-002	6.93957E-001	-4.38503E-002	2.45524E-003	-1.83102E-004	2.14569E-002	2.03775E-002	-1.01068E-003	-1.39413E-003	2.49398E-002	-1.57591E-003
	105	105	1.10100E+000	3.56293E-002	0.00000E+000	3.92278E-002	3.55466E-001	4.09313E-002	4.77652E+001	11	...........	6.83276E-002	-5.10875E-003	5.97077E-001	5.67019E-001	-2.81317E-002	-3.88029E-002	6.93876E-001	-4.39871E-002	2.43446E-003	-1.82021E-004	2.12734E-002	2.02025E-002	-1.00231E-003	-1.38252E-003	2.47223E-002	-1.56723E-003
	106	106	1.10088E+000	3.55098E-002	0.00000E+000	3.90921E-002	3.54281E-001	4.07735E-002	4.64371E+001	11	...........	6.80547E-002	-5.17069E-003	5.97005E-001	5.66886E-001	-2.81347E-002	-3.88122E-002	6.93908E-001	-4.39514E-002	2.41661E-003	-1.83610E-004	2.11995E-002	2.01300E-002	-9.99059E-004	-1.37822E-003	2.46406E-002	-1.56071E-003
	107	107	1.10092E+000	3.56757E-002	0.00000E+000	3.92760E-002	3.55932E-001	4.08404E-002	4.79909E+001	11	...........	6.81706E-002	-5.07028E-003	5.97001E-001	5.66854E-001	-2.81229E-002	-3.88431E-002	6.93906E-001	-4.39758E-002	2.43203E-003	-1.80886E-004	2.12985E-002	2.02229E-002	-1.00331E-003	-1.38575E-003	2.47556E-002	-1.56887E-003
	108	108	1.10100E+000	3.54317E-002	0.00000E+000	3.90102E-002	3.53506E-001	4.09285E-002	4.81884E+001	11	...........	6.83108E-002	-5.03153E-003	5.97181E-001	5.66961E-001	-2.81476E-002	-3.88931E-002	6.93994E-001	-4.40025E-002	2.42037E-003	-1.78275E-004	2.11591E-002	2.00884E-002	-9.97317E-004	-1.37805E-003	2.45893E-002	-1.55908E-003
	109	109	1.10088E+000	3.52777E-002	0.00000E+000	3.88366E-002	3.51970E-001	4.08527E-002	4.81929E+001	11	...........	6.81899E-002	-5.06194E-003	5.97291E-001	5.67116E-001	-2.81497E-002	-3.89225E-002	6.93946E-001	-4.40175E-002	2.40558E-003	-1.78574E-004	2.10711E-002	2.00065E-002	-9.93057E-004	-1.37310E-003	2.44808E-002	-1.55284E-003
	110	110	1.10092E+000	3.54163E-002	0.00000E+000	3.89904E-002	3.53349E-001	4.07991E-002	4.82159E+001	11	...........	6.81785E-002	-5.07847E-003	5.97278E-001	5.66980E-001	-2.81460E-002	-3.89090E-002	6.93925E-001	-4.40881E-002	2.41463E-003	-1.79861E-004	2.11534E-002	2.00803E-002	-9.96825E-004	-1.37801E-003	2.45762E-002	-1.56143E-003
	111	111	1.10100E+000	3.51159E-002	0.00000E+000	3.86625E-002	3.50360E-001	4.07729E-002	4.80772E+001	11	...........	6.80615E-002	-5.04486E-003	5.97255E-001	5.67022E-001	-2.81329E-002	-3.88776E-002	6.93850E-001	-4.39875E-002	2.39004E-003	-1.77155E-004	2.09732E-002	1.99115E-002	-9.87913E-004	-1.36522E-003	2.43652E-002	-1.54466E-003
	112	112	1.10088E+000	3.49956E-002	0.00000E+000	3.85261E-002	3.49169E-001	4.07682E-002	4.82449E+001	11	...........	6.80385E-002	-4.97569E-003	5.97245E-001	5.66941E-001	-2.81337E-002	-3.88578E-002	6.93895E-001	-4.38482E-002	2.38105E-003	-1.74127E-004	2.09009E-002	1.98404E-002	-9.84558E-004	-1.35985E-003	2.42833E-002	-1.53449E-003
	113	113	1.10092E+000	3.51529E-002	0.00000E+000	3.87004E-002	3.50733E-001	4.07442E-002	4.82856E+001	11	...........	6.79835E-002	-5.07083E-003	5.97300E-001	5.66746E-001	-2.81293E-002	-3.88489E-002	6.93868E-001	-4.37797E-002	2.38982E-003	-1.78255E-004	2.09968E-002	1.99228E-002	-9.88828E-004	-1.36565E-003	2.43915E-002	-1.53899E-003
	114	114	1.10099E+000	3.49024E-002	0.00000E+000	3.84273E-002	3.48239E-001	4.07680E-002	4.83268E+001	11	...........	6.80257E-002	-5.05167E-003	5.97187E-001	5.66678E-001	-2.81369E-002	-3.88342E-002	6.93816E-001	-4.38976E-002	2.37426E-003	-1.76315E-004	2.08433E-002	1.97784E-002	-9.82047E-004	-1.35541E-003	2.42158E-002	-1.53213E-003
	115	115	1.10089E+000	3.47560E-002	0.00000E+000	3.82624E-002	3.46784E-001	4.06909E-002	4.83513E+001	11	...........	6.79208E-002	-5.07639E-003	5.97060E-001	5.66699E-001	-2.81578E-002	-3.88199E-002	6.93759E-001	-4.37943E-002	2.36066E-003	-1.76435E-004	2.07514E-002	1.96962E-002	-9.78653E-004	-1.34922E-003	2.41123E-002	-1.52212E-003
	116	116	1.10091E+000	3.49138E-002	0.00000E+000	3.84371E-002	3.48354E-001	4.06795E-002	4.83509E+001	11	...........	6.79207E-002	-5.00667E-003	5.97035E-001	5.66575E-001	-2.81756E-002	-3.87844E-002	6.93763E-001	-4.36864E-002	2.37137E-003	-1.74802E-004	2.08448E-002	1.97813E-002	-9.83716E-004	-1.35411E-003	2.42219E-002	-1.52526E-003
	117	117	1.10099E+000	3.45946E-002	0.00000E+000	3.80884E-002	3.45176E-001	4.05767E-002	4.63413E+001	11	...........	6.77351E-002	-5.06861E-003	5.97032E-001	5.66400E-001	-2.81728E-002	-3.87912E-002	6.93661E-001	-4.37601E-002	2.34327E-003	-1.75347E-004	2.06541E-002	1.95944E-002	-9.74626E-004	-1.34197E-003	2.39969E-002	-1.51386E-003
	118	118	1.10089E+000	3.45021E-002	0.00000E+000	3.79830E-002	3.44256E-001	4.05603E-002	4.79547E+001	11	...........	6.77078E-002	-5.05903E-003	5.97084E-001	5.66303E-001	-2.81896E-002	-3.88108E-002	6.93713E-001	-4.37186E-002	2.33606E-003	-1.74547E-004	2.06006E-002	1.95386E-002	-9.72600E-004	-1.33906E-003	2.39345E-002	-1.50838E-003
	119	119	1.10091E+000	3.46737E-002	0.00000E+000	3.81728E-002	3.45965E-001	4.06263E-002	4.82341E+001	11	...........	6.78174E-002	-5.17486E-003	5.97233E-001	5.66332E-001	-2.81824E-002	-3.88160E-002	6.93769E-001	-4.37958E-002	2.35148E-003	-1.79432E-004	2.07083E-002	1.96368E-002	-9.77188E-004	-1.34589E-003	2.40556E-002	-1.51856E-003
	120	120	1.10099E+000	3.44234E-002	0.00000E+000	3.78999E-002	3.43481E-001	4.05789E-002	4.82256E+001	11	...........	6.77368E-002	-5.14417E-003	5.97169E-001	5.66381E-001	-2.81649E-002	-3.88292E-002	6.93968E-001	-4.37361E-002	2.33173E-003	-1.77080E-004	2.05566E-002	1.94968E-002	-9.69532E-004	-1.33663E-003	2.38888E-002	-1.50555E-003
	121	121	1.10089E+000	3.42425E-002	0.00000E+000	3.76972E-002	3.41683E-001	4.05722E-002	4.82476E+001	11	...........	6.77197E-002	-5.10931E-003	5.97074E-001	5.66453E-001	-2.81544E-002	-3.88525E-002	6.93929E-001	-4.37664E-002	2.31889E-003	-1.74955E-004	2.04453E-002	1.93967E-002	-9.64078E-004	-1.33041E-003	2.37619E-002	-1.49867E-003
	122	122	1.10091E+000	3.43844E-002	0.00000E+000	3.78542E-002	3.43090E-001	4.05355E-002	4.82409E+001	11	...........	6.76642E-002	-5.16264E-003	5.97027E-001	5.66422E-001	-2.81560E-002	-3.88421E-002	6.94138E-001	-4.38586E-002	2.32659E-003	-1.77514E-004	2.05284E-002	1.94761E-002	-9.68126E-004	-1.33556E-003	2.38675E-002	-1.50805E-003
	123	123	1.10099E+000	3.41501E-002	0.00000E+000	3.75990E-002	3.40759E-001	4.05071E-002	4.82331E+001	11	...........	6.75960E-002	-5.13861E-003	5.96987E-001	5.66337E-001	-2.81619E-002	-3.88246E-002	6.94088E-001	-4.38717E-002	2.30841E-003	-1.75484E-004	2.03872E-002	1.93405E-002	-9.61734E-004	-1.32586E-003	2.37032E-002	-1.49822E-003
	124	124	1.10089E+000	3.39652E-002	0.00000E+000	3.73921E-002	3.38920E-001	4.04921E-002	4.82741E+001	11	...........	6.75775E-002	-5.09944E-003	5.97007E-001	5.66193E-001	-2.81558E-002	-3.87889E-002	6.94048E-001	-4.37624E-002	2.29528E-003	-1.73204E-004	2.02775E-002	1.92309E-002	-9.56318E-004	-1.31747E-003	2.35735E-002	-1.48640E-003
	125	125	1.10091E+000	3.41653E-002	0.00000E+000	3.76130E-002	3.40909E-001	4.04818E-002	4.82549E+001	11	...........	6.75614E-002	-5.27958E-003	5.97035E-001	5.66227E-001	-2.81692E-002	-3.87865E-002	6.94030E-001	-4.38360E-002	2.30825E-003	-1.80378E-004	2.03979E-002	1.93453E-002	-9.62407E-004	-1.32515E-003	2.37117E-002	-1.49767E-003
	126	126	1.10099E+000	3.39225E-002	0.00000E+000	3.73483E-002	3.38497E-001	4.04465E-002	4.82738E+001	11	...........	6.75115E-002	-5.28264E-003	5.97111E-001	5.66215E-001	-2.81699E-002	-3.87940E-002	6.94023E-001	-4.37756E-002	2.29016E-003	-1.79200E-004	2.02555E-002	1.92074E-002	-9.55592E-004	-1.31599E-003	2.35430E-002	-1.48498E-003
	127	127	1.10090E+000	3.37204E-002	0.00000E+000	3.71226E-002	3.36489E-001	4.04272E-002	4.82727E+001	11	...........	6.74956E-002	-5.04333E-003	5.97021E-001	5.66194E-001	-2.81787E-002	-3.87835E-002	6.94108E-001	-4.37179E-002	2.27597E-003	-1.70063E-004	2.01318E-002	1.90923E-002	-9.50198E-004	-1.30779E-003	2.34056E-002	-1.47418E-003
	128	128	1.10091E+000	3.38870E-002	0.00000E+000	3.73066E-002	3.38144E-001	4.04055E-002	4.83228E+001	11	...........	6.74518E-002	-5.01847E-003	5.97092E-001	5.66124E-001	-2.81790E-002	-3.87790E-002	6.94145E-001	-4.36782E-002	2.28574E-003	-1.70061E-004	2.02337E-002	1.91843E-002	-9.54904E-004	-1.31411E-003	2.35225E-002	-1.48012E-003
	129	129	1.10099E+000	3.36724E-002	0.00000E+000	3.70729E-002	3.36010E-001	4.03843E-002	4.82980E+001	11	...........	6.74168E-002	-5.02778E-003	5.97172E-001	5.66076E-001	-2.81642E-002	-3.87683E-002	6.93965E-001	-4.36392E-002	2.27009E-003	-1.69297E-004	2.01082E-002	1.90611E-002	-9.48355E-004	-1.30542E-003	2.33675E-002	-1.46944E-003
	130	130	1.10090E+000	3.34509E-002	0.00000E+000	3.68261E-002	3.33809E-001	4.03432E-002	4.83149E+001	11	...........	6.73492E-002	-5.06069E-003	5.97084E-001	5.66072E-001	-2.81590E-002	-3.87642E-002	6.94076E-001	-4.36208E-002	2.25289E-003	-1.69285E-004	1.99730E-002	1.89356E-002	-9.41946E-004	-1.29670E-003	2.32175E-002	-1.45916E-003
	131	131	1.10091E+000	3.36166E-002	0.00000E+000	3.70088E-002	3.35456E-001	4.03427E-002	4.83155E+001	11	...........	6.73474E-002	-5.11083E-003	5.97181E-001	5.66125E-001	-2.81614E-002	-3.87757E-002	6.94069E-001	-4.37240E-002	2.26399E-003	-1.71809E-004	2.00752E-002	1.90312E-002	-9.46689E-004	-1.30351E-003	2.33322E-002	-1.46985E-003
	132	132	1.10098E+000	3.34274E-002	0.00000E+000	3.68030E-002	3.33574E-001	4.03066E-002	4.83133E+001	11	...........	6.72857E-002	-5.03056E-003	5.97281E-001	5.66061E-001	-2.81621E-002	-3.88069E-002	6.93991E-001	-4.38317E-002	2.24918E-003	-1.68158E-004	1.99655E-002	1.89219E-002	-9.41384E-004	-1.29721E-003	2.31983E-002	-1.46518E-003
	133	133	1.10090E+000	3.31862E-002	0.00000E+000	3.65347E-002	3.31178E-001	4.03048E-002	4.82784E+001	11	...........	6.72787E-002	-5.07458E-003	5.97317E-001	5.65965E-001	-2.81832E-002	-3.87825E-002	6.94025E-001	-4.38194E-002	2.23272E-003	-1.68406E-004	1.98227E-002	1.87822E-002	-9.35293E-004	-1.28704E-003	2.30321E-002	-1.45420E-003
	134	134	1.10091E+000	3.33795E-002	0.00000E+000	3.67479E-002	3.33101E-001	4.02910E-002	4.82811E+001	11	...........	6.72524E-002	-5.01236E-003	5.97395E-001	5.65956E-001	-2.82061E-002	-3.88060E-002	6.93986E-001	-4.37781E-002	2.24485E-003	-1.67310E-004	1.99408E-002	1.88913E-002	-9.41507E-004	-1.29533E-003	2.31649E-002	-1.46129E-003
	135	135	1.10098E+000	3.31928E-002	0.00000E+000	3.65447E-002	3.31245E-001	4.02477E-002	4.82744E+001	11	...........	6.72061E-002	-5.01792E-003	5.97429E-001	5.65999E-001	-2.82111E-002	-3.87825E-002	6.94034E-001	-4.38394E-002	2.23076E-003	-1.66558E-004	1.98303E-002	1.87871E-002	-9.36405E-004	-1.28730E-003	2.30369E-002	-1.45515E-003
	136	136	1.10090E+000	3.29532E-002	0.00000E+000	3.62783E-002	3.28864E-001	4.02199E-002	4.82567E+001	11	...........	6.71394E-002	-5.08639E-003	5.97475E-001	5.65957E-001	-2.82190E-002	-3.87569E-002	6.94036E-001	-4.39054E-002	2.21246E-003	-1.67613E-004	1.96887E-002	1.86501E-002	-9.29908E-004	-1.27717E-003	2.28707E-002	-1.44683E-003
	137	137	1.10091E+000	3.31259E-002	0.00000E+000	3.64686E-002	3.30579E-001	4.01869E-002	4.82753E+001	11	...........	6.70981E-002	-5.08819E-003	5.97444E-001	5.65987E-001	-2.82304E-002	-3.87571E-002	6.94195E-001	-4.38540E-002	2.22268E-003	-1.68551E-004	1.97909E-002	1.87488E-002	-9.35157E-004	-1.28386E-003	2.29958E-002	-1.45270E-003
	138	138	1.10098E+000	3.29584E-002	0.00000E+000	3.62866E-002	3.28914E-001	4.01940E-002	4.82796E+001	11	...........	6.71065E-002	-5.18542E-003	5.97402E-001	5.65853E-001	-2.82125E-002	-3.87654E-002	6.94161E-001	-4.39157E-002	2.21172E-003	-1.70903E-004	1.96894E-002	1.86496E-002	-9.29839E-004	-1.27765E-003	2.28784E-002	-1.44739E-003
	139	139	1.10091E+000	3.27256E-002	0.00000E+000	3.60277E-002	3.26596E-001	4.01673E-002	4.82969E+001	11	...........	6.70671E-002	-5.12375E-003	5.97344E-001	5.65712E-001	-2.82179E-002	-3.87792E-002	6.94286E-001	-4.38801E-002	2.19481E-003	-1.67678E-004	1.95484E-002	1.85132E-002	-9.23447E-004	-1.26907E-003	2.27209E-002	-1.43600E-003
	140	140	1.10091E+000	3.28855E-002	0.00000E+000	3.62040E-002	3.28186E-001	4.01691E-002	4.75502E+001	11	...........	6.70537E-002	-4.88361E-003	5.97334E-001	5.65658E-001	-2.82139E-002	-3.87993E-002	6.94240E-001	-4.38889E-002	2.20510E-003	-1.60600E-004	1.96436E-002	1.86020E-002	-9.27828E-004	-1.27594E-003	2.28304E-002	-1.44331E-003
	141	141	1.10098E+000	3.27168E-002	0.00000E+000	3.60205E-002	3.26507E-001	4.00394E-002	4.77337E+001	11	...........	6.68212E-002	-4.74472E-003	5.97312E-001	5.65523E-001	-2.82249E-002	-3.87951E-002	6.94290E-001	-4.38758E-002	2.18618E-003	-1.55232E-004	1.95421E-002	1.85021E-002	-9.23426E-004	-1.26925E-003	2.27149E-002	-1.43548E-003
	142	142	1.10091E+000	3.25160E-002	0.00000E+000	3.57971E-002	3.24512E-001	4.01195E-002	4.73695E+001	11	...........	6.69678E-002	-4.87278E-003	5.97361E-001	5.65479E-001	-2.82321E-002	-3.87861E-002	6.94410E-001	-4.38881E-002	2.17752E-003	-1.58443E-004	1.94238E-002	1.83871E-002	-9.17995E-004	-1.26117E-003	2.25795E-002	-1.42706E-003
	143	143	1.10091E+000	3.26239E-002	0.00000E+000	3.59159E-002	3.25580E-001	4.00145E-002	4.78364E+001	11	...........	6.68093E-002	-4.87972E-003	5.97230E-001	5.65494E-001	-2.82262E-002	-3.87783E-002	6.94282E-001	-4.38221E-002	2.17958E-003	-1.59195E-004	1.94840E-002	1.84486E-002	-9.20849E-004	-1.26510E-003	2.26502E-002	-1.42965E-003
	144	144	1.10098E+000	3.25464E-002	0.00000E+000	3.58329E-002	3.24812E-001	4.01305E-002	4.80907E+001	11	...........	6.69958E-002	-4.96917E-003	5.97298E-001	5.65382E-001	-2.82379E-002	-3.87871E-002	6.94208E-001	-4.38771E-002	2.18048E-003	-1.61729E-004	1.94399E-002	1.84012E-002	-9.19043E-004	-1.26238E-003	2.25940E-002	-1.42804E-003
	145	145	1.10091E+000	3.22713E-002	0.00000E+000	3.55278E-002	3.22076E-001	4.00686E-002	4.82062E+001	11	...........	6.68868E-002	-5.07750E-003	5.97403E-001	5.65453E-001	-2.82372E-002	-3.87875E-002	6.94228E-001	-4.39643E-002	2.15852E-003	-1.63857E-004	1.92790E-002	1.82479E-002	-9.11251E-004	-1.25172E-003	2.24036E-002	-1.41878E-003
	146	146	1.10091E+000	3.24315E-002	0.00000E+000	3.57041E-002	3.23667E-001	4.00034E-002	4.82155E+001	11	...........	6.67835E-002	-4.99833E-003	5.97305E-001	5.65646E-001	-2.82307E-002	-3.88014E-002	6.94156E-001	-4.40001E-002	2.16589E-003	-1.62103E-004	1.93715E-002	1.83447E-002	-9.15563E-004	-1.25839E-003	2.25125E-002	-1.42699E-003
	147	147	1.10098E+000	3.23343E-002	0.00000E+000	3.55993E-002	3.22705E-001	4.00279E-002	4.82010E+001	11	...........	6.68112E-002	-4.98597E-003	5.97091E-001	5.65786E-001	-2.82201E-002	-3.87922E-002	6.94112E-001	-4.39228E-002	2.16029E-003	-1.61218E-004	1.93065E-002	1.82943E-002	-9.12478E-004	-1.25432E-003	2.24436E-002	-1.42021E-003
	148	148	1.10091E+000	3.20444E-002	0.00000E+000	3.52781E-002	3.19819E-001	3.99967E-002	4.82620E+001	11	...........	6.67649E-002	-5.11347E-003	5.97254E-001	5.65766E-001	-2.82233E-002	-3.87867E-002	6.94026E-001	-4.37199E-002	2.13944E-003	-1.63858E-004	1.91386E-002	1.81296E-002	-9.04399E-004	-1.24289E-003	2.22396E-002	-1.40098E-003
	149	149	1.10091E+000	3.21977E-002	0.00000E+000	3.54466E-002	3.21346E-001	3.99605E-002	4.82563E+001	11	...........	6.66894E-002	-5.08681E-003	5.97345E-001	5.65673E-001	-2.82281E-002	-3.87962E-002	6.94015E-001	-4.38031E-002	2.14725E-003	-1.63783E-004	1.92331E-002	1.82134E-002	-9.08878E-004	-1.24915E-003	2.23457E-002	-1.41036E-003
	150	150	1.10097E+000	3.21024E-002	0.00000E+000	3.53439E-002	3.20397E-001	3.99588E-002	4.58434E+001	11	...........	6.66929E-002	-4.98931E-003	5.97338E-001	5.65784E-001	-2.82247E-002	-3.88143E-002	6.93898E-001	-4.36699E-002	2.14100E-003	-1.60169E-004	1.91760E-002	1.81630E-002	-9.06082E-004	-1.24603E-003	2.22758E-002	-1.40191E-003
	151	151	1.10092E+000	3.17498E-002	0.00000E+000	3.49539E-002	3.16891E-001	3.97752E-002	4.78710E+001	11	...........	6.63946E-002	-5.03236E-003	5.97335E-001	5.65906E-001	-2.82462E-002	-3.88418E-002	6.93818E-001	-4.35914E-002	2.10802E-003	-1.59777E-004	1.89653E-002	1.79674E-002	-8.96813E-004	-1.23322E-003	2.20286E-002	-1.38402E-003
	152	152	1.10091E+000	3.19942E-002	0.00000E+000	3.52226E-002	3.19321E-001	3.99615E-002	4.81906E+001	11	...........	6.67100E-002	-5.12194E-003	5.97397E-001	5.65901E-001	-2.82425E-002	-3.88472E-002	6.93966E-001	-4.37790E-002	2.13433E-003	-1.63873E-004	1.91132E-002	1.81055E-002	-9.03597E-004	-1.24289E-003	2.22029E-002	-1.40068E-003
	153	153	1.10097E+000	3.18642E-002	0.00000E+000	3.50816E-002	3.18029E-001	3.99111E-002	4.82546E+001	11	...........	6.66337E-002	-5.12458E-003	5.97568E-001	5.66013E-001	-2.82322E-002	-3.88489E-002	6.94027E-001	-4.38119E-002	2.12323E-003	-1.63291E-004	1.90410E-002	1.80355E-002	-8.99597E-004	-1.23789E-003	2.21146E-002	-1.39603E-003
	154	154	1.10092E+000	3.15753E-002	0.00000E+000	3.47618E-002	3.15159E-001	3.98747E-002	4.82795E+001	11	...........	6.65547E-002	-5.14806E-003	5.97549E-001	5.66128E-001	-2.82194E-002	-3.88397E-002	6.94066E-001	-4.37256E-002	2.10148E-003	-1.62551E-004	1.88678E-002	1.78756E-002	-8.91036E-004	-1.22637E-003	2.19153E-002	-1.38065E-003
	155	155	1.10090E+000	3.17452E-002	0.00000E+000	3.49485E-002	3.16846E-001	3.98644E-002	4.82908E+001	11	...........	6.65475E-002	-5.12083E-003	5.97723E-001	5.66119E-001	-2.81950E-002	-3.88204E-002	6.94116E-001	-4.38247E-002	2.11257E-003	-1.62562E-004	1.89749E-002	1.79716E-002	-8.95056E-004	-1.23236E-003	2.20349E-002	-1.39123E-003
	156	156	1.10097E+000	3.16072E-002	0.00000E+000	3.47986E-002	3.15473E-001	3.98408E-002	4.82932E+001	11	...........	6.65040E-002	-5.12472E-003	5.97752E-001	5.66058E-001	-2.81907E-002	-3.88243E-002	6.94102E-001	-4.37256E-002	2.10201E-003	-1.61978E-004	1.88933E-002	1.78915E-002	-8.91029E-004	-1.22713E-003	2.19386E-002	-1.38204E-003
	157	157	1.10092E+000	3.13226E-002	0.00000E+000	3.44837E-002	3.12642E-001	3.98170E-002	4.82819E+001	11	...........	6.64449E-002	-5.04958E-003	5.97709E-001	5.65980E-001	-2.81797E-002	-3.88024E-002	6.94033E-001	-4.37171E-002	2.08122E-003	-1.58166E-004	1.87218E-002	1.77279E-002	-8.82661E-004	-1.21539E-003	2.17389E-002	-1.36933E-003
	158	158	1.10090E+000	3.14957E-002	0.00000E+000	3.46737E-002	3.14368E-001	3.98045E-002	4.82802E+001	11	...........	6.64403E-002	-5.12764E-003	5.97698E-001	5.65931E-001	-2.81804E-002	-3.87756E-002	6.94009E-001	-4.37383E-002	2.09258E-003	-1.61499E-004	1.88249E-002	1.78244E-002	-8.87562E-004	-1.22126E-003	2.18583E-002	-1.37757E-003
	159	159	1.10097E+000	3.14219E-002	0.00000E+000	3.45946E-002	3.13633E-001	3.97876E-002	4.82811E+001	11	...........	6.64142E-002	-5.05750E-003	5.97626E-001	5.65867E-001	-2.81833E-002	-3.87511E-002	6.94089E-001	-4.38029E-002	2.08686E-003	-1.58916E-004	1.87786E-002	1.77806E-002	-8.85575E-004	-1.21763E-003	2.18096E-002	-1.37637E-003
	160	160	1.10092E+000	3.10960E-002	0.00000E+000	3.42344E-002	3.10397E-001	3.97538E-002	4.82903E+001	11	...........	6.63758E-002	-5.06069E-003	5.97475E-001	5.65922E-001	-2.82025E-002	-3.87665E-002	6.94071E-001	-4.38840E-002	2.06402E-003	-1.57367E-004	1.85791E-002	1.75979E-002	-8.76986E-004	-1.20548E-003	2.15828E-002	-1.36462E-003
	161	161	1.10090E+000	3.12644E-002	0.00000E+000	3.44191E-002	3.12067E-001	3.97566E-002	4.82711E+001	11	...........	6.63519E-002	-5.11931E-003	5.97497E-001	5.66033E-001	-2.81936E-002	-3.87612E-002	6.94079E-001	-4.39339E-002	2.07445E-003	-1.60052E-004	1.86804E-002	1.76967E-002	-8.81457E-004	-1.21185E-003	2.17000E-002	-1.37357E-003
	162	162	1.10097E+000	3.12100E-002	0.00000E+000	3.43612E-002	3.11525E-001	3.97357E-002	4.82369E+001	11	...........	6.63368E-002	-5.06278E-003	5.97426E-001	5.66143E-001	-2.81801E-002	-3.87718E-002	6.94091E-001	-4.40128E-002	2.07037E-003	-1.58010E-004	1.86457E-002	1.76694E-002	-8.79503E-004	-1.21007E-003	2.16626E-002	-1.37364E-003
	163	163	1.10093E+000	3.08815E-002	0.00000E+000	3.39983E-002	3.08262E-001	3.97209E-002	4.82256E+001	11	...........	6.63072E-002	-5.09542E-003	5.97391E-001	5.66152E-001	-2.81947E-002	-3.87769E-002	6.94061E-001	-4.39685E-002	2.04767E-003	-1.57354E-004	1.84483E-002	1.74836E-002	-8.70695E-004	-1.19749E-003	2.14336E-002	-1.35781E-003
	164	164	1.10090E+000	3.10544E-002	0.00000E+000	3.41878E-002	3.09981E-001	3.96857E-002	4.82671E+001	11	...........	6.62461E-002	-5.01014E-003	5.97374E-001	5.66083E-001	-2.82057E-002	-3.87846E-002	6.93975E-001	-4.39222E-002	2.05723E-003	-1.55587E-004	1.85511E-002	1.75794E-002	-8.75910E-004	-1.20443E-003	2.15510E-002	-1.36398E-003
	165	165	1.10096E+000	3.09966E-002	0.00000E+000	3.41261E-002	3.09406E-001	3.96897E-002	4.82119E+001	11	...........	6.62190E-002	-4.92361E-003	5.97335E-001	5.66108E-001	-2.82036E-002	-3.87885E-002	6.93956E-001	-4.37592E-002	2.05256E-003	-1.52615E-004	1.85154E-002	1.75474E-002	-8.74216E-004	-1.20231E-003	2.15103E-002	-1.35639E-003
	166	166	1.10093E+000	3.06597E-002	0.00000E+000	3.37542E-002	3.06059E-001	3.96644E-002	4.82294E+001	11	...........	6.62112E-002	-4.88903E-003	5.97427E-001	5.66131E-001	-2.82004E-002	-3.87710E-002	6.93909E-001	-4.38586E-002	2.03002E-003	-1.49896E-004	1.83169E-002	1.73574E-002	-8.64616E-004	-1.18871E-003	2.12750E-002	-1.34469E-003
	167	167	1.10090E+000	3.08340E-002	0.00000E+000	3.39452E-002	3.07789E-001	3.96340E-002	4.82550E+001	11	...........	6.61640E-002	-5.03778E-003	5.97339E-001	5.66171E-001	-2.82229E-002	-3.87606E-002	6.93894E-001	-4.40158E-002	2.04010E-003	-1.55335E-004	1.84183E-002	1.74573E-002	-8.70225E-004	-1.19514E-003	2.13955E-002	-1.35718E-003
	168	168	1.10096E+000	3.07772E-002	0.00000E+000	3.38845E-002	3.07226E-001	3.96158E-002	4.82834E+001	11	...........	6.61383E-002	-4.94736E-003	5.97416E-001	5.66184E-001	-2.82164E-002	-3.87562E-002	6.93919E-001	-4.39278E-002	2.03555E-003	-1.52266E-004	1.83868E-002	1.74255E-002	-8.68421E-004	-1.19281E-003	2.13569E-002	-1.35197E-003
	169	169	1.10093E+000	3.04604E-002	0.00000E+000	3.35348E-002	3.04074E-001	3.95838E-002	4.82560E+001	11	...........	6.60790E-002	-5.01222E-003	5.97183E-001	5.66188E-001	-2.82087E-002	-3.87354E-002	6.93919E-001	-4.38911E-002	2.01279E-003	-1.52674E-004	1.81904E-002	1.72463E-002	-8.59249E-004	-1.17990E-003	2.11370E-002	-1.33694E-003
	170	170	1.10090E+000	3.06182E-002	0.00000E+000	3.37076E-002	3.05639E-001	3.95998E-002	4.83009E+001	11	...........	6.60997E-002	-5.04889E-003	5.97133E-001	5.66092E-001	-2.82249E-002	-3.87510E-002	6.93917E-001	-4.38667E-002	2.02385E-003	-1.54588E-004	1.82831E-002	1.73327E-002	-8.64193E-004	-1.18648E-003	2.12465E-002	-1.34312E-003
	171	171	1.10096E+000	3.05453E-002	0.00000E+000	3.36291E-002	3.04919E-001	3.95586E-002	4.83030E+001	11	...........	6.60353E-002	-5.09264E-003	5.97275E-001	5.65965E-001	-2.82056E-002	-3.87562E-002	6.93946E-001	-4.39274E-002	2.01707E-003	-1.55556E-004	1.82439E-002	1.72876E-002	-8.61546E-004	-1.18382E-003	2.11968E-002	-1.34177E-003
	172	172	1.10094E+000	3.02285E-002	0.00000E+000	3.32797E-002	3.01772E-001	3.95404E-002	4.83207E+001	11	...........	6.59972E-002	-5.07347E-003	5.97418E-001	5.66010E-001	-2.82135E-002	-3.87460E-002	6.93983E-001	-4.38626E-002	1.99500E-003	-1.53364E-004	1.80591E-002	1.71097E-002	-8.52852E-004	-1.17123E-003	2.09781E-002	-1.32590E-003
	173	173	1.10090E+000	3.03753E-002	0.00000E+000	3.34401E-002	3.03226E-001	3.95483E-002	4.83347E+001	11	...........	6.60071E-002	-4.93042E-003	5.97391E-001	5.66069E-001	-2.82011E-002	-3.87451E-002	6.93914E-001	-4.38349E-002	2.00498E-003	-1.49763E-004	1.81459E-002	1.71945E-002	-8.56616E-004	-1.17689E-003	2.10778E-002	-1.33149E-003
	174	174	1.10096E+000	3.03139E-002	0.00000E+000	3.33744E-002	3.02616E-001	3.95103E-002	4.70118E+001	11	...........	6.59486E-002	-4.99181E-003	5.97434E-001	5.66114E-001	-2.82068E-002	-3.87585E-002	6.93942E-001	-4.38096E-002	1.99916E-003	-1.51321E-004	1.81106E-002	1.71612E-002	-8.55060E-004	-1.17492E-003	2.10361E-002	-1.32804E-003
	175	175	1.10094E+000	2.99680E-002	0.00000E+000	3.29930E-002	2.99182E-001	3.92639E-002	4.70841E+001	11	...........	6.55367E-002	-5.11986E-003	5.97324E-001	5.66114E-001	-2.82082E-002	-3.87825E-002	6.94085E-001	-4.38968E-002	1.96400E-003	-1.53432E-004	1.79006E-002	1.69653E-002	-8.45344E-004	-1.16223E-003	2.08003E-002	-1.31550E-003
	176	176	1.10090E+000	3.01731E-002	0.00000E+000	3.32175E-002	3.01220E-001	3.95557E-002	4.80876E+001	11	...........	6.60397E-002	-5.15556E-003	5.97118E-001	5.66052E-001	-2.82050E-002	-3.87867E-002	6.94090E-001	-4.38757E-002	1.99262E-003	-1.55559E-004	1.80169E-002	1.70796E-002	-8.51032E-004	-1.17031E-003	2.09428E-002	-1.32387E-003
	177	177	1.10096E+000	3.01202E-002	0.00000E+000	3.31609E-002	3.00695E-001	3.95115E-002	4.82902E+001	11	...........	6.59621E-002	-5.07208E-003	5.97097E-001	5.66011E-001	-2.82050E-002	-3.87663E-002	6.93963E-001	-4.39821E-002	1.98679E-003	-1.52772E-004	1.79846E-002	1.70484E-002	-8.49539E-004	-1.16765E-003	2.09023E-002	-1.32475E-003
	178	178	1.10094E+000	2.97905E-002	0.00000E+000	3.27977E-002	2.97418E-001	3.94592E-002	4.77413E+001	11	...........	6.58681E-002	-5.01681E-003	5.97118E-001	5.66048E-001	-2.82129E-002	-3.87501E-002	6.93940E-001	-4.38431E-002	1.96224E-003	-1.49453E-004	1.77885E-002	1.68629E-002	-8.40478E-004	-1.15439E-003	2.06728E-002	-1.30611E-003
	179	179	1.10090E+000	2.99119E-002	0.00000E+000	3.29300E-002	2.98627E-001	3.93602E-002	4.67091E+001	11	...........	6.56949E-002	-5.13431E-003	5.97138E-001	5.66132E-001	-2.82262E-002	-3.87561E-002	6.93960E-001	-4.38207E-002	1.96506E-003	-1.53577E-004	1.78616E-002	1.69341E-002	-8.44302E-004	-1.15927E-003	2.07577E-002	-1.31076E-003
	180	180	1.10095E+000	2.99462E-002	0.00000E+000	3.29693E-002	2.98964E-001	3.94771E-002	4.78769E+001	11	...........	6.58757E-002	-5.10236E-003	5.97244E-001	5.66317E-001	-2.82246E-002	-3.87733E-002	6.93981E-001	-4.38396E-002	1.97272E-003	-1.52796E-004	1.78852E-002	1.69590E-002	-8.45218E-004	-1.16111E-003	2.07821E-002	-1.31283E-003
	181	181	1.10095E+000	2.96129E-002	0.00000E+000	3.26022E-002	2.95650E-001	3.94387E-002	4.81344E+001	11	...........	6.58508E-002	-5.12486E-003	5.97179E-001	5.66288E-001	-2.82292E-002	-3.87808E-002	6.93908E-001	-4.38872E-002	1.95003E-003	-1.51762E-004	1.76842E-002	1.67694E-002	-8.35947E-004	-1.14841E-003	2.05486E-002	-1.29963E-003
	182	182	1.10090E+000	2.97771E-002	0.00000E+000	3.27815E-002	2.97280E-001	3.94182E-002	4.81366E+001	11	...........	6.57958E-002	-5.10931E-003	5.97038E-001	5.66208E-001	-2.81947E-002	-3.87900E-002	6.93983E-001	-4.38607E-002	1.95921E-003	-1.52140E-004	1.77781E-002	1.68601E-002	-8.39558E-004	-1.15506E-003	2.06648E-002	-1.30605E-003
	183	183	1.10095E+000	2.97639E-002	0.00000E+000	3.27685E-002	2.97149E-001	3.94367E-002	4.81367E+001	11	...........	6.58304E-002	-5.03847E-003	5.96970E-001	5.66101E-001	-2.81750E-002	-3.87989E-002	6.93977E-001	-4.38433E-002	1.95937E-003	-1.49964E-004	1.77682E-002	1.68494E-002	-8.38597E-004	-1.15481E-003	2.06554E-002	-1.30495E-003
	184	184	1.10095E+000	2.93903E-002	0.00000E+000	3.23573E-002	2.93442E-001	3.93862E-002	4.81806E+001	11	...........	6.57392E-002	-4.92278E-003	5.97023E-001	5.66152E-001	-2.81817E-002	-3.88237E-002	6.94090E-001	-4.38279E-002	1.93210E-003	-1.44682E-004	1.75467E-002	1.66394E-002	-8.28269E-004	-1.14104E-003	2.03996E-002	-1.28812E-003
	185	185	1.10090E+000	2.95826E-002	0.00000E+000	3.25674E-002	2.95349E-001	3.93702E-002	4.81381E+001	11	...........	6.57210E-002	-4.91403E-003	5.97176E-001	5.66075E-001	-2.81997E-002	-3.88219E-002	6.94104E-001	-4.37850E-002	1.94420E-003	-1.45370E-004	1.76660E-002	1.67460E-002	-8.34221E-004	-1.14845E-003	2.05334E-002	-1.29527E-003
	186	186	1.10095E+000	2.95386E-002	0.00000E+000	3.25204E-002	2.94912E-001	3.93662E-002	4.82234E+001	11	...........	6.57160E-002	-5.02389E-003	5.97211E-001	5.66105E-001	-2.81743E-002	-3.88035E-002	6.94083E-001	-4.37556E-002	1.94116E-003	-1.48399E-004	1.76408E-002	1.67219E-002	-8.32229E-004	-1.14620E-003	2.05022E-002	-1.29248E-003
	187	187	1.10095E+000	2.91995E-002	0.00000E+000	3.21473E-002	2.91541E-001	3.93364E-002	4.81953E+001	11	...........	6.56618E-002	-5.11319E-003	5.97322E-001	5.66163E-001	-2.81712E-002	-3.88126E-002	6.93983E-001	-4.38575E-002	1.91729E-003	-1.49303E-004	1.74415E-002	1.65317E-002	-8.22587E-004	-1.13331E-003	2.02640E-002	-1.28062E-003
	188	188	1.10090E+000	2.93367E-002	0.00000E+000	3.22967E-002	2.92907E-001	3.93793E-002	4.79399E+001	11	...........	6.57147E-002	-5.11486E-003	5.97359E-001	5.66110E-001	-2.81592E-002	-3.88193E-002	6.93987E-001	-4.38340E-002	1.92785E-003	-1.50053E-004	1.75245E-002	1.66078E-002	-8.26097E-004	-1.13883E-003	2.03593E-002	-1.28595E-003
	189	189	1.10094E+000	2.93190E-002	0.00000E+000	3.22785E-002	2.92729E-001	3.92453E-002	4.79823E+001	11	...........	6.55201E-002	-5.01292E-003	5.97433E-001	5.66012E-001	-2.81286E-002	-3.88240E-002	6.94027E-001	-4.38324E-002	1.92098E-003	-1.46974E-004	1.75161E-002	1.65949E-002	-8.24702E-004	-1.13828E-003	2.03482E-002	-1.28512E-003
	190	190	1.10096E+000	2.90039E-002	0.00000E+000	3.19321E-002	2.89594E-001	3.93081E-002	4.82228E+001	11	...........	6.56153E-002	-4.95458E-003	5.97478E-001	5.65990E-001	-2.81190E-002	-3.88233E-002	6.94035E-001	-4.38121E-002	1.90310E-003	-1.43702E-004	1.73292E-002	1.64159E-002	-8.15563E-004	-1.12603E-003	2.01298E-002	-1.27072E-003
	191	191	1.10090E+000	2.91327E-002	0.00000E+000	3.20721E-002	2.90876E-001	3.92966E-002	4.83361E+001	11	...........	6.55972E-002	-5.01306E-003	5.97373E-001	5.65931E-001	-2.81374E-002	-3.87990E-002	6.93979E-001	-4.38794E-002	1.91103E-003	-1.46044E-004	1.74031E-002	1.64871E-002	-8.19718E-004	-1.13032E-003	2.02175E-002	-1.27833E-003
	192	192	1.10094E+000	2.91334E-002	0.00000E+000	3.20742E-002	2.90883E-001	3.92707E-002	4.83412E+001	11	...........	6.55578E-002	-4.94625E-003	5.97487E-001	5.65611E-001	-2.81231E-002	-3.88006E-002	6.93976E-001	-4.38431E-002	1.90992E-003	-1.44101E-004	1.74068E-002	1.64782E-002	-8.19320E-004	-1.13039E-003	2.02179E-002	-1.27730E-003
	193	193	1.10096E+000	2.88077E-002	0.00000E+000	3.17161E-002	2.87647E-001	3.92377E-002	4.83338E+001	11	...........	6.54886E-002	-5.07500E-003	5.97398E-001	5.65671E-001	-2.81260E-002	-3.88012E-002	6.94055E-001	-4.39551E-002	1.88658E-003	-1.46199E-004	1.72097E-002	1.62957E-002	-8.10245E-004	-1.11778E-003	1.99942E-002	-1.26625E-003
	194	194	1.10089E+000	2.89087E-002	0.00000E+000	3.18255E-002	2.88649E-001	3.92118E-002	4.83464E+001	11	...........	6.54760E-002	-5.06569E-003	5.97436E-001	5.65839E-001	-2.81247E-002	-3.88022E-002	6.94042E-001	-4.39156E-002	1.89283E-003	-1.46443E-004	1.72711E-002	1.63577E-002	-8.13050E-004	-1.12172E-003	2.00639E-002	-1.26954E-003
	195	195	1.10094E+000	2.89222E-002	0.00000E+000	3.18416E-002	2.88783E-001	3.92107E-002	4.83342E+001	11	...........	6.54437E-002	-5.06986E-003	5.97318E-001	5.65895E-001	-2.81290E-002	-3.88050E-002	6.94102E-001	-4.39664E-002	1.89278E-003	-1.46632E-004	1.72758E-002	1.63669E-002	-8.13554E-004	-1.12233E-003	2.00750E-002	-1.27161E-003
	196	196	1.10096E+000	2.86138E-002	0.00000E+000	3.15027E-002	2.85716E-001	3.92053E-002	4.83775E+001	11	...........	6.54324E-002	-5.09056E-003	5.97240E-001	5.66025E-001	-2.81497E-002	-3.88244E-002	6.94086E-001	-4.39283E-002	1.87227E-003	-1.45660E-004	1.70893E-002	1.61961E-002	-8.05469E-004	-1.11091E-003	1.98604E-002	-1.25695E-003
	197	196.543	1.10095E+000	2.87841E-002	0.00000E+000	3.16898E-002	2.87410E-001	3.91811E-002	4.84078E+001	11	...........	6.53893E-002	-5.12295E-003	5.97259E-001	5.65995E-001	-2.81299E-002	-3.88216E-002	6.94120E-001	-4.38937E-002	1.88217E-003	-1.47460E-004	1.71916E-002	1.62917E-002	-8.09692E-004	-1.11744E-003	1.99796E-002	-1.26344E-003
STARTTIMEOFFSET	QUANT	573674.4	Start Time Offset (s)
