EXPLAIN
TAG	PWR800_CHARGE
TITLE	LABEL	PWR Charge	Test Identifier
DATE	LABEL	10/15/2022	Date
TIME	LABEL	8:27:58	Time
NOTES	NOTES	1	Notes...
	
PSTAT	PSTAT	REF3000-21114	Potentiostat
CAPACITY	QUANT	5.30000E-002	Capacity (A-hr)
CELLTYPE	SELECTOR	1	Cell Type
WORKINGCONNECTION	SELECTOR	0	Working Connection
MAXCHARGETIME	VARIABLEANDUNITS	7.20000E+003	s	2.00000E+000	hour(s)	Max Charge Time
CHARGEMODE	MULTIPARAM	0	1.00000E-001	Charge Mode	Constant Current	Amp(s)
CHARGECURRENT	QUANT	0.1	Charge Current (A)
VOLTAGEFINISH	TWOPARAM	T	2.50000E-002	7.20000E+003	Voltage Finish	I (A) <	Max Time(s)
SAMPLETIME	QUANT	1.00000E+000	Sample Period (s)
CHARGESTOPAT1	MULTIPARAM	2	1.10000E+000	Stop At 1	|Voltage| > Limit	V
CHARGESTOPAT2	MULTIPARAM	0	0.00000E+000	Stop At 2	None	N/A
AESELECTOR	AESELECTOR	0x1	T	Set Limits	AE Channels
AESBHCSELECTOR	TOGGLE	F	Save Both Half Cells
IRCOMP	TOGGLE	F	IR Measure
EOC	QUANT	0.2760705	Open Circuit (V)
SEQUENCER	TOGGLE	TRUE	Run as Sequence
PSTATMODEL	IQUANT	5	Pstat Model
PSTATSECTION	LABEL	REF3000-21114	Pstat Section
PSTATSERIALNO	LABEL	21114	Pstat Serial Number
CTRLMODE	IQUANT	0	Control Mode
ELECTROMETER	IQUANT	0	RE=0 or CS=1
IESTAB	IQUANT	0	I/E Stability
CASPEED	IQUANT	4	Control Amp Speed
CONVENTION	IQUANT	1	Current Convention
ICHRANGE	IQUANT	2	Ich Range
ICHRANGEMODE	TOGGLE	T	Ich Auto Range
ICHOFFSETENABLE	TOGGLE	F	Ich Offset Enable
ICHOFFSET	QUANT	0	Ich Offset (V)
ICHFILTER	IQUANT	1	Ich Filter
VCHRANGE	IQUANT	3	Vch Range
VCHRANGEMODE	TOGGLE	T	Vch Auto Range
VCHOFFSETENABLE	TOGGLE	F	Vch Offset Enable
VCHOFFSET	QUANT	0	Vch Offset (V)
VCHFILTER	IQUANT	1	Vch Filter
ACHRANGE	IQUANT	2	Ach Range
ACHOFFSETENABLE	TOGGLE	F	Ach Offset Enable
ACHOFFSET	QUANT	0	Ach Offset (V)
ACHFILTER	IQUANT	1	Ach Filter
IERANGELOWERLIMIT	IQUANT	9	I/E Range Lower Limit
IERANGEMODE	TOGGLE	F	I/E AutoRange
IERANGE	IQUANT	9	I/E Range
POSFEEDENABLE	TOGGLE	F	Positive Feedback IR Comp
POSFEEDRESISTANCE	QUANT	0	Positive Feedback Resistance (ohm)
ACHSELECT	IQUANT	1	Ach Select
SENSECABLEID	IQUANT	13	Sense Cable ID
PWRCABLEID	IQUANT	13	Power Cable ID
DCCALDATE	LABEL		DC Calibration Date
ACCALDATE	LABEL		AC Calibration Date
THERMOSELECT	IQUANT	1	Thermo Select
FRAMEWORKVERSION	LABEL	7.8.6	Framework Version
INSTRUMENTVERSION	LABEL	4.50	Instrument Version
COMPLIANCEVOLTAGE	IQUANT	0	Compliance Voltage
CURVE	TABLE	149
	Pt	T	Vf	Im	Vu	Pwr	Sig	Ach	Temp	IERange	Over	Vf1	Vf2	Vf3	Vf4	Vf5	Vf6	Vf7	Vf8	Pwr1	Pwr2	Pwr3	Pwr4	Pwr5	Pwr6	Pwr7	Pwr8
	#	s	V	A	V	W	V	V	deg C	#	bits	V	V	V	V	V	V	V	V	W	W	W	W	W	W	W	W
	0	1	5.55090E-001	9.98476E-002	0.00000E+000	5.54244E-002	9.94000E-001	4.03017E-002	4.12049E+001	11	...........	6.68336E-002	-4.37444E-003	5.86951E-001	6.08228E-001	-2.88401E-002	-3.83383E-002	6.77552E-001	-4.27010E-002	6.67318E-003	-4.36778E-004	5.86057E-002	6.07302E-002	-2.87962E-003	-3.82799E-003	6.76519E-002	-4.26359E-003
	1	2	7.26165E-001	9.98478E-002	0.00000E+000	7.25060E-002	9.94000E-001	4.04879E-002	4.26446E+001	11	...........	6.71514E-002	-4.38639E-003	5.87065E-001	6.08102E-001	-2.88418E-002	-3.83346E-002	6.77590E-001	-4.26887E-002	6.70492E-003	-4.37971E-004	5.86171E-002	6.07177E-002	-2.87979E-003	-3.82763E-003	6.76559E-002	-4.26238E-003
	2	2.51667	9.81067E-001	9.98485E-002	0.00000E+000	9.79581E-002	9.94000E-001	4.13144E-002	4.91270E+001	11	...........	6.84884E-002	-4.43253E-003	5.87073E-001	6.08030E-001	-2.88218E-002	-3.83484E-002	6.77648E-001	-4.26409E-002	6.83847E-003	-4.42581E-004	5.86184E-002	6.07109E-002	-2.87781E-003	-3.82903E-003	6.76621E-002	-4.25763E-003
	3	3	1.10136E+000	7.38820E-002	0.00000E+000	8.13704E-002	7.35806E-001	4.13803E-002	4.95940E+001	11	...........	6.86106E-002	-4.63621E-003	5.87214E-001	6.07992E-001	-2.88132E-002	-3.83457E-002	6.77478E-001	-4.26434E-002	5.06909E-003	-3.42532E-004	4.33846E-002	4.49197E-002	-2.12878E-003	-2.83306E-003	5.00534E-002	-3.15058E-003
	4	4	1.10050E+000	5.55004E-002	0.00000E+000	6.10783E-002	5.53013E-001	4.04912E-002	4.89626E+001	11	...........	6.71350E-002	-4.56319E-003	5.86986E-001	6.07983E-001	-2.88368E-002	-3.83537E-002	6.77348E-001	-4.26401E-002	3.72602E-003	-2.53259E-004	3.25779E-002	3.37433E-002	-1.60045E-003	-2.12865E-003	3.75931E-002	-2.36655E-003
	5	5	1.10047E+000	4.84872E-002	0.00000E+000	5.33586E-002	4.83280E-001	4.09798E-002	4.95786E+001	11	...........	6.79546E-002	-4.55278E-003	5.86868E-001	6.08023E-001	-2.88465E-002	-3.83608E-002	6.77168E-001	-4.27371E-002	3.29493E-003	-2.20752E-004	2.84556E-002	2.94814E-002	-1.39869E-003	-1.86001E-003	3.28340E-002	-2.07220E-003
	6	6	1.10050E+000	4.50864E-002	0.00000E+000	4.96175E-002	4.49467E-001	4.08413E-002	4.87159E+001	11	...........	6.77310E-002	-4.47375E-003	5.86884E-001	6.07973E-001	-2.88753E-002	-3.83847E-002	6.77268E-001	-4.27693E-002	3.05375E-003	-2.01705E-004	2.64605E-002	2.74114E-002	-1.30188E-003	-1.73063E-003	3.05356E-002	-1.92832E-003
	7	7	1.10037E+000	4.33862E-002	0.00000E+000	4.77407E-002	4.32563E-001	4.07107E-002	4.84835E+001	11	...........	6.75082E-002	-4.46431E-003	5.86831E-001	6.07819E-001	-2.88687E-002	-3.84004E-002	6.77319E-001	-4.27617E-002	2.92893E-003	-1.93689E-004	2.54604E-002	2.63710E-002	-1.25251E-003	-1.66605E-003	2.93863E-002	-1.85527E-003
	8	8	1.10043E+000	4.23242E-002	0.00000E+000	4.65747E-002	4.22004E-001	4.07053E-002	4.78070E+001	11	...........	6.74908E-002	-4.46111E-003	5.86815E-001	6.07915E-001	-2.88490E-002	-3.83871E-002	6.77327E-001	-4.28937E-002	2.85650E-003	-1.88813E-004	2.48365E-002	2.57295E-002	-1.22101E-003	-1.62470E-003	2.86673E-002	-1.81545E-003
	9	9	1.10048E+000	4.11900E-002	0.00000E+000	4.53287E-002	4.10721E-001	4.07264E-002	4.75357E+001	11	...........	6.75422E-002	-4.39472E-003	5.86646E-001	6.07935E-001	-2.88467E-002	-3.83781E-002	6.77432E-001	-4.28993E-002	2.78207E-003	-1.81019E-004	2.41640E-002	2.50409E-002	-1.18819E-003	-1.58079E-003	2.79034E-002	-1.76702E-003
	10	10	1.10036E+000	4.08142E-002	0.00000E+000	4.49103E-002	4.06987E-001	4.09214E-002	4.89075E+001	11	...........	6.78546E-002	-4.33875E-003	5.86730E-001	6.08040E-001	-2.88596E-002	-3.83857E-002	6.77509E-001	-4.29151E-002	2.76943E-003	-1.77083E-004	2.39469E-002	2.48167E-002	-1.17788E-003	-1.56668E-003	2.76520E-002	-1.75155E-003
	11	11	1.10042E+000	4.05291E-002	0.00000E+000	4.45988E-002	4.04153E-001	4.07287E-002	4.82951E+001	11	...........	6.75092E-002	-4.35583E-003	5.86781E-001	6.08247E-001	-2.88575E-002	-3.84024E-002	6.77451E-001	-4.28425E-002	2.73608E-003	-1.76538E-004	2.37817E-002	2.46517E-002	-1.16957E-003	-1.55641E-003	2.74564E-002	-1.73637E-003
	12	12	1.10048E+000	3.98325E-002	0.00000E+000	4.38348E-002	3.97229E-001	4.05699E-002	4.81117E+001	11	...........	6.72356E-002	-4.39653E-003	5.86678E-001	6.08468E-001	-2.88651E-002	-3.83690E-002	6.77394E-001	-4.27501E-002	2.67816E-003	-1.75125E-004	2.33688E-002	2.42368E-002	-1.14977E-003	-1.52833E-003	2.69823E-002	-1.70284E-003
	13	13	1.10036E+000	3.96567E-002	0.00000E+000	4.36365E-002	3.95482E-001	4.08144E-002	4.64738E+001	11	...........	6.76846E-002	-4.39000E-003	5.86774E-001	6.08626E-001	-2.88822E-002	-3.83517E-002	6.77465E-001	-4.28411E-002	2.68414E-003	-1.74093E-004	2.32695E-002	2.41361E-002	-1.14537E-003	-1.52090E-003	2.68660E-002	-1.69894E-003
	14	14	1.10041E+000	3.96317E-002	0.00000E+000	4.36110E-002	3.95232E-001	4.07591E-002	4.78111E+001	11	...........	6.75850E-002	-4.19486E-003	5.86837E-001	6.08647E-001	-2.88778E-002	-3.83568E-002	6.77526E-001	-4.29978E-002	2.67851E-003	-1.66250E-004	2.32574E-002	2.41217E-002	-1.14448E-003	-1.52015E-003	2.68515E-002	-1.70408E-003
	15	15	1.10048E+000	3.90865E-002	0.00000E+000	4.30140E-002	3.89816E-001	4.03474E-002	4.60285E+001	11	...........	6.69224E-002	-4.13847E-003	5.86901E-001	6.08484E-001	-2.88571E-002	-3.83506E-002	6.77417E-001	-4.29810E-002	2.61576E-003	-1.61759E-004	2.29399E-002	2.37835E-002	-1.12792E-003	-1.49899E-003	2.64779E-002	-1.67998E-003
	16	16	1.10036E+000	3.90443E-002	0.00000E+000	4.29626E-002	3.89394E-001	4.08880E-002	4.75209E+001	11	...........	6.78015E-002	-4.23542E-003	5.86875E-001	6.08395E-001	-2.88836E-002	-3.83875E-002	6.77441E-001	-4.30125E-002	2.64726E-003	-1.65369E-004	2.29141E-002	2.37544E-002	-1.12774E-003	-1.49881E-003	2.64502E-002	-1.67939E-003
	17	17	1.10041E+000	3.90470E-002	0.00000E+000	4.29676E-002	3.89422E-001	4.05707E-002	4.77941E+001	11	...........	6.72696E-002	-4.25500E-003	5.86735E-001	6.08447E-001	-2.88908E-002	-3.83871E-002	6.77393E-001	-4.30160E-002	2.62667E-003	-1.66145E-004	2.29102E-002	2.37580E-002	-1.12810E-003	-1.49890E-003	2.64502E-002	-1.67964E-003
	18	18	1.10048E+000	3.86045E-002	0.00000E+000	4.24835E-002	3.85021E-001	4.05809E-002	4.75905E+001	11	...........	6.73043E-002	-4.39944E-003	5.86727E-001	6.08148E-001	-2.89235E-002	-3.83710E-002	6.77333E-001	-4.29029E-002	2.59825E-003	-1.69838E-004	2.26503E-002	2.34772E-002	-1.11658E-003	-1.48129E-003	2.61481E-002	-1.65625E-003
	19	19	1.10035E+000	3.85600E-002	0.00000E+000	4.24296E-002	3.84581E-001	4.05944E-002	4.70648E+001	11	...........	6.73260E-002	-4.43167E-003	5.86796E-001	6.07919E-001	-2.89275E-002	-3.83842E-002	6.77305E-001	-4.28425E-002	2.59609E-003	-1.70885E-004	2.26268E-002	2.34413E-002	-1.11544E-003	-1.48009E-003	2.61169E-002	-1.65201E-003
	20	20	1.10041E+000	3.86224E-002	0.00000E+000	4.25004E-002	3.85205E-001	4.05192E-002	4.68093E+001	11	...........	6.74354E-002	-4.37694E-003	5.86891E-001	6.07945E-001	-2.89635E-002	-3.83978E-002	6.77477E-001	-4.29879E-002	2.60452E-003	-1.69048E-004	2.26672E-002	2.34803E-002	-1.11864E-003	-1.48302E-003	2.61658E-002	-1.66030E-003
	21	21	1.10048E+000	3.82220E-002	0.00000E+000	4.20626E-002	3.81224E-001	4.02603E-002	4.79432E+001	11	...........	6.71692E-002	-4.35000E-003	5.86957E-001	6.07932E-001	-2.89810E-002	-3.83994E-002	6.77558E-001	-4.29953E-002	2.56734E-003	-1.66266E-004	2.24347E-002	2.32364E-002	-1.10771E-003	-1.46771E-003	2.58977E-002	-1.64337E-003
	22	22	1.10036E+000	3.81330E-002	0.00000E+000	4.19599E-002	3.80343E-001	4.02137E-002	4.62129E+001	11	...........	6.71104E-002	-4.31889E-003	5.87017E-001	6.07889E-001	-2.89953E-002	-3.84283E-002	6.77619E-001	-4.30217E-002	2.55912E-003	-1.64692E-004	2.23847E-002	2.31806E-002	-1.10568E-003	-1.46539E-003	2.58396E-002	-1.64055E-003
	23	23	1.10040E+000	3.81720E-002	0.00000E+000	4.20046E-002	3.80729E-001	4.01523E-002	4.59687E+001	11	...........	6.70022E-002	-4.19319E-003	5.87056E-001	6.07851E-001	-2.89725E-002	-3.83887E-002	6.77676E-001	-4.29667E-002	2.55761E-003	-1.60063E-004	2.24091E-002	2.32029E-002	-1.10594E-003	-1.46538E-003	2.58683E-002	-1.64012E-003
	24	24	1.10048E+000	3.78976E-002	0.00000E+000	4.17056E-002	3.77998E-001	4.04677E-002	4.83084E+001	11	...........	6.74958E-002	-4.23139E-003	5.86954E-001	6.07941E-001	-2.89765E-002	-3.83918E-002	6.77476E-001	-4.29560E-002	2.55793E-003	-1.60359E-004	2.22441E-002	2.30395E-002	-1.09814E-003	-1.45496E-003	2.56747E-002	-1.62793E-003
	25	25	1.10036E+000	3.78392E-002	0.00000E+000	4.16366E-002	3.77418E-001	4.01812E-002	4.63821E+001	11	...........	6.70287E-002	-4.28861E-003	5.86929E-001	6.08054E-001	-2.89571E-002	-3.84047E-002	6.77367E-001	-4.30136E-002	2.53632E-003	-1.62278E-004	2.22089E-002	2.30083E-002	-1.09571E-003	-1.45320E-003	2.56311E-002	-1.62760E-003
	26	26	1.10040E+000	3.78966E-002	0.00000E+000	4.17015E-002	3.77989E-001	4.01538E-002	4.78489E+001	11	...........	6.70114E-002	-4.27847E-003	5.86877E-001	6.08105E-001	-2.89694E-002	-3.84040E-002	6.77377E-001	-4.31111E-002	2.53951E-003	-1.62140E-004	2.22406E-002	2.30451E-002	-1.09784E-003	-1.45538E-003	2.56703E-002	-1.63377E-003
	27	27	1.10048E+000	3.75458E-002	0.00000E+000	4.13186E-002	3.74502E-001	4.02367E-002	4.68945E+001	11	...........	6.71482E-002	-4.24375E-003	5.87081E-001	6.08110E-001	-2.89347E-002	-3.84236E-002	6.77396E-001	-4.29343E-002	2.52113E-003	-1.59335E-004	2.20424E-002	2.28320E-002	-1.08638E-003	-1.44265E-003	2.54334E-002	-1.61200E-003
	28	28	1.10036E+000	3.74667E-002	0.00000E+000	4.12267E-002	3.73716E-001	3.98319E-002	4.62843E+001	11	...........	6.64707E-002	-4.27514E-003	5.87098E-001	6.07993E-001	-2.89287E-002	-3.84364E-002	6.77503E-001	-4.29757E-002	2.49044E-003	-1.60175E-004	2.19966E-002	2.27795E-002	-1.08387E-003	-1.44009E-003	2.53838E-002	-1.61016E-003
	29	29	1.10040E+000	3.76063E-002	0.00000E+000	4.13820E-002	3.75105E-001	4.03510E-002	4.78977E+001	11	...........	6.73274E-002	-4.33681E-003	5.87128E-001	6.07892E-001	-2.89264E-002	-3.84268E-002	6.77652E-001	-4.29771E-002	2.53193E-003	-1.63091E-004	2.20797E-002	2.28606E-002	-1.08781E-003	-1.44509E-003	2.54840E-002	-1.61621E-003
	30	30	1.10049E+000	3.72818E-002	0.00000E+000	4.10281E-002	3.71877E-001	4.00652E-002	4.77524E+001	11	...........	6.68385E-002	-4.36306E-003	5.87099E-001	6.07806E-001	-2.89379E-002	-3.84275E-002	6.77644E-001	-4.31058E-002	2.49186E-003	-1.62662E-004	2.18881E-002	2.26601E-002	-1.07886E-003	-1.43264E-003	2.52638E-002	-1.60706E-003
	31	31	1.10036E+000	3.72153E-002	0.00000E+000	4.09500E-002	3.71216E-001	4.00874E-002	4.76738E+001	11	...........	6.69026E-002	-4.30528E-003	5.87041E-001	6.07790E-001	-2.89236E-002	-3.84025E-002	6.77604E-001	-4.29242E-002	2.48980E-003	-1.60222E-004	2.18469E-002	2.26191E-002	-1.07640E-003	-1.42916E-003	2.52172E-002	-1.59743E-003
	32	32	1.10040E+000	3.72687E-002	0.00000E+000	4.10103E-002	3.71750E-001	3.99237E-002	4.61362E+001	11	...........	6.66021E-002	-4.24319E-003	5.87030E-001	6.07661E-001	-2.89193E-002	-3.84058E-002	6.77632E-001	-4.28513E-002	2.48217E-003	-1.58138E-004	2.18778E-002	2.26467E-002	-1.07778E-003	-1.43133E-003	2.52544E-002	-1.59701E-003
	33	33	1.10049E+000	3.69844E-002	0.00000E+000	4.07009E-002	3.68921E-001	3.99521E-002	4.55576E+001	11	...........	6.66564E-002	-4.25333E-003	5.86990E-001	6.07715E-001	-2.89386E-002	-3.83861E-002	6.77666E-001	-4.28142E-002	2.46525E-003	-1.57307E-004	2.17095E-002	2.24759E-002	-1.07028E-003	-1.41969E-003	2.50631E-002	-1.58346E-003
	34	34	1.10036E+000	3.69268E-002	0.00000E+000	4.06327E-002	3.68350E-001	4.00092E-002	4.80195E+001	11	...........	6.67518E-002	-4.15500E-003	5.86756E-001	6.07651E-001	-2.89792E-002	-3.83962E-002	6.77590E-001	-4.28393E-002	2.46493E-003	-1.53431E-004	2.16670E-002	2.24386E-002	-1.07011E-003	-1.41785E-003	2.50212E-002	-1.58192E-003
	35	35	1.10040E+000	3.70148E-002	0.00000E+000	4.07312E-002	3.69225E-001	4.00731E-002	4.66491E+001	11	...........	6.68511E-002	-4.13153E-003	5.86765E-001	6.07671E-001	-2.89704E-002	-3.84044E-002	6.77631E-001	-4.28751E-002	2.47448E-003	-1.52928E-004	2.17190E-002	2.24928E-002	-1.07234E-003	-1.42153E-003	2.50824E-002	-1.58702E-003
	36	36	1.10048E+000	3.67149E-002	0.00000E+000	4.04041E-002	3.66243E-001	3.98972E-002	4.79387E+001	11	...........	6.65692E-002	-4.21764E-003	5.86674E-001	6.07686E-001	-2.89669E-002	-3.84133E-002	6.77446E-001	-4.28833E-002	2.44408E-003	-1.54850E-004	2.15397E-002	2.23111E-002	-1.06352E-003	-1.41034E-003	2.48723E-002	-1.57446E-003
	37	37	1.10036E+000	3.66322E-002	0.00000E+000	4.03085E-002	3.65421E-001	3.99460E-002	4.77404E+001	11	...........	6.66571E-002	-4.33597E-003	5.86814E-001	6.07706E-001	-2.89643E-002	-3.84310E-002	6.77528E-001	-4.29347E-002	2.44180E-003	-1.58836E-004	2.14963E-002	2.22616E-002	-1.06103E-003	-1.40781E-003	2.48194E-002	-1.57279E-003
	38	38	1.10040E+000	3.66994E-002	0.00000E+000	4.03840E-002	3.66084E-001	3.97667E-002	4.61078E+001	11	...........	6.63528E-002	-4.21875E-003	5.86959E-001	6.07627E-001	-2.89464E-002	-3.84149E-002	6.77461E-001	-4.28329E-002	2.43511E-003	-1.54826E-004	2.15410E-002	2.22995E-002	-1.06232E-003	-1.40980E-003	2.48624E-002	-1.57194E-003
	39	39	1.10049E+000	3.64430E-002	0.00000E+000	4.01051E-002	3.63540E-001	3.98854E-002	4.69030E+001	11	...........	6.65633E-002	-4.21000E-003	5.86937E-001	6.07573E-001	-2.89204E-002	-3.84064E-002	6.77438E-001	-4.28257E-002	2.42577E-003	-1.53425E-004	2.13898E-002	2.21418E-002	-1.05395E-003	-1.39965E-003	2.46879E-002	-1.56070E-003
	40	40	1.10036E+000	3.63534E-002	0.00000E+000	4.00018E-002	3.62646E-001	3.98645E-002	4.84237E+001	11	...........	6.65169E-002	-4.28806E-003	5.86914E-001	6.07579E-001	-2.89254E-002	-3.84206E-002	6.77412E-001	-4.29415E-002	2.41812E-003	-1.55886E-004	2.13363E-002	2.20876E-002	-1.05154E-003	-1.39672E-003	2.46263E-002	-1.56107E-003
	41	41	1.10040E+000	3.64432E-002	0.00000E+000	4.01020E-002	3.63537E-001	3.98938E-002	4.66526E+001	11	...........	6.65585E-002	-4.42736E-003	5.86831E-001	6.07551E-001	-2.89268E-002	-3.84196E-002	6.77504E-001	-4.29293E-002	2.42560E-003	-1.61347E-004	2.13860E-002	2.21411E-002	-1.05419E-003	-1.40013E-003	2.46904E-002	-1.56448E-003
	42	42	1.10048E+000	3.61554E-002	0.00000E+000	3.97884E-002	3.60675E-001	3.97571E-002	4.74332E+001	11	...........	6.63386E-002	-4.36611E-003	5.86817E-001	6.07537E-001	-2.89239E-002	-3.83987E-002	6.77366E-001	-4.30956E-002	2.39850E-003	-1.57859E-004	2.12166E-002	2.19658E-002	-1.04576E-003	-1.38832E-003	2.44905E-002	-1.55814E-003
	43	43	1.10036E+000	3.60601E-002	0.00000E+000	3.96791E-002	3.59727E-001	3.97109E-002	4.65231E+001	11	...........	6.62411E-002	-4.16681E-003	5.86724E-001	6.07561E-001	-2.89329E-002	-3.83936E-002	6.77329E-001	-4.30393E-002	2.38866E-003	-1.50255E-004	2.11573E-002	2.19087E-002	-1.04332E-003	-1.38448E-003	2.44245E-002	-1.55200E-003
	44	44	1.10039E+000	3.62072E-002	0.00000E+000	3.98421E-002	3.61189E-001	3.98392E-002	4.81346E+001	11	...........	6.64715E-002	-4.16347E-003	5.86711E-001	6.07549E-001	-2.89507E-002	-3.83856E-002	6.77272E-001	-4.30289E-002	2.40675E-003	-1.50748E-004	2.12432E-002	2.19977E-002	-1.04822E-003	-1.38983E-003	2.45221E-002	-1.55796E-003
	45	45	1.10049E+000	3.58915E-002	0.00000E+000	3.94981E-002	3.58052E-001	3.95983E-002	4.72045E+001	11	...........	6.60681E-002	-4.16222E-003	5.86750E-001	6.07624E-001	-2.89346E-002	-3.83581E-002	6.77370E-001	-4.28356E-002	2.37128E-003	-1.49388E-004	2.10593E-002	2.18085E-002	-1.03851E-003	-1.37673E-003	2.43118E-002	-1.53743E-003
	46	46	1.10036E+000	3.58130E-002	0.00000E+000	3.94073E-002	3.57271E-001	3.98891E-002	4.62217E+001	11	...........	6.65621E-002	-4.24986E-003	5.86570E-001	6.07683E-001	-2.89262E-002	-3.83740E-002	6.77359E-001	-4.27201E-002	2.38379E-003	-1.52200E-004	2.10068E-002	2.17630E-002	-1.03594E-003	-1.37429E-003	2.42583E-002	-1.52994E-003
	47	47	1.10039E+000	3.58844E-002	0.00000E+000	3.94869E-002	3.57981E-001	3.94629E-002	4.73560E+001	11	...........	6.58522E-002	-4.35458E-003	5.86527E-001	6.07673E-001	-2.89393E-002	-3.83971E-002	6.77414E-001	-4.28668E-002	2.36307E-003	-1.56262E-004	2.10472E-002	2.18060E-002	-1.03847E-003	-1.37786E-003	2.43086E-002	-1.53825E-003
	48	48	1.10049E+000	3.56630E-002	0.00000E+000	3.92466E-002	3.55781E-001	3.97923E-002	4.66470E+001	11	...........	6.63997E-002	-4.43708E-003	5.86447E-001	6.07771E-001	-2.89528E-002	-3.84211E-002	6.77322E-001	-4.29837E-002	2.36801E-003	-1.58240E-004	2.09144E-002	2.16749E-002	-1.03254E-003	-1.37021E-003	2.41553E-002	-1.53293E-003
	49	49	1.10036E+000	3.55565E-002	0.00000E+000	3.91250E-002	3.54717E-001	3.96426E-002	4.80289E+001	11	...........	6.61532E-002	-4.32792E-003	5.86447E-001	6.07766E-001	-2.89528E-002	-3.84131E-002	6.77378E-001	-4.29736E-002	2.35218E-003	-1.53886E-004	2.08520E-002	2.16100E-002	-1.02946E-003	-1.36583E-003	2.40852E-002	-1.52799E-003
	50	50	1.10039E+000	3.56879E-002	0.00000E+000	3.92707E-002	3.56028E-001	3.97400E-002	4.79660E+001	11	...........	6.63028E-002	-4.35431E-003	5.86526E-001	6.07773E-001	-2.89801E-002	-3.84297E-002	6.77284E-001	-4.29344E-002	2.36621E-003	-1.55396E-004	2.09319E-002	2.16902E-002	-1.03424E-003	-1.37148E-003	2.41709E-002	-1.53224E-003
	51	51	1.10048E+000	3.53916E-002	0.00000E+000	3.89479E-002	3.53081E-001	3.95716E-002	4.60000E+001	11	...........	6.60193E-002	-4.27042E-003	5.86494E-001	6.07854E-001	-2.89835E-002	-3.84329E-002	6.77262E-001	-4.28715E-002	2.33653E-003	-1.51137E-004	2.07570E-002	2.15129E-002	-1.02577E-003	-1.36020E-003	2.39694E-002	-1.51729E-003
	52	52	1.10036E+000	3.52569E-002	0.00000E+000	3.87954E-002	3.51744E-001	3.95189E-002	4.73625E+001	11	...........	6.59283E-002	-4.16264E-003	5.86363E-001	6.07792E-001	-2.90021E-002	-3.84028E-002	6.77422E-001	-4.28836E-002	2.32443E-003	-1.46762E-004	2.06733E-002	2.14288E-002	-1.02252E-003	-1.35396E-003	2.38838E-002	-1.51194E-003
	53	53	1.10039E+000	3.54303E-002	0.00000E+000	3.89872E-002	3.53467E-001	3.96682E-002	4.76544E+001	11	...........	6.61976E-002	-4.19153E-003	5.86478E-001	6.07704E-001	-2.90251E-002	-3.83918E-002	6.77512E-001	-4.29357E-002	2.34540E-003	-1.48507E-004	2.07791E-002	2.15311E-002	-1.02837E-003	-1.36023E-003	2.40045E-002	-1.52123E-003
	54	54	1.10048E+000	3.51863E-002	0.00000E+000	3.87219E-002	3.51039E-001	3.93802E-002	4.71562E+001	11	...........	6.57224E-002	-4.13139E-003	5.86293E-001	6.07815E-001	-2.90546E-002	-3.83819E-002	6.77248E-001	-4.30850E-002	2.31253E-003	-1.45368E-004	2.06295E-002	2.13867E-002	-1.02232E-003	-1.35052E-003	2.38299E-002	-1.51600E-003
	55	55	1.10037E+000	3.50006E-002	0.00000E+000	3.85135E-002	3.49193E-001	3.97449E-002	4.70676E+001	11	...........	6.63269E-002	-4.24347E-003	5.86254E-001	6.07821E-001	-2.90514E-002	-3.83601E-002	6.77458E-001	-4.29218E-002	2.32148E-003	-1.48524E-004	2.05192E-002	2.12741E-002	-1.01681E-003	-1.34263E-003	2.37114E-002	-1.50229E-003
	56	56	1.10039E+000	3.51046E-002	0.00000E+000	3.86287E-002	3.50227E-001	3.92180E-002	4.52179E+001	11	...........	6.54378E-002	-4.31361E-003	5.86348E-001	6.07754E-001	-2.90624E-002	-3.83786E-002	6.77410E-001	-4.27475E-002	2.29717E-003	-1.51428E-004	2.05835E-002	2.13349E-002	-1.02022E-003	-1.34727E-003	2.37802E-002	-1.50063E-003
	57	57	1.10048E+000	3.49660E-002	0.00000E+000	3.84794E-002	3.48849E-001	3.96927E-002	4.70223E+001	11	...........	6.62132E-002	-4.30417E-003	5.86435E-001	6.07591E-001	-2.90358E-002	-3.83775E-002	6.77575E-001	-4.29242E-002	2.31521E-003	-1.50500E-004	2.05053E-002	2.12450E-002	-1.01527E-003	-1.34191E-003	2.36921E-002	-1.50089E-003
	58	58	1.10037E+000	3.47314E-002	0.00000E+000	3.82174E-002	3.46517E-001	3.94612E-002	4.68704E+001	11	...........	6.58424E-002	-4.20236E-003	5.86508E-001	6.07587E-001	-2.90243E-002	-3.83987E-002	6.77572E-001	-4.30818E-002	2.28680E-003	-1.45954E-004	2.03702E-002	2.11023E-002	-1.00805E-003	-1.33364E-003	2.35330E-002	-1.49629E-003
	59	59	1.10039E+000	3.48820E-002	0.00000E+000	3.83838E-002	3.48013E-001	3.96708E-002	4.74387E+001	11	...........	6.62058E-002	-4.39278E-003	5.86334E-001	6.07480E-001	-2.90225E-002	-3.84311E-002	6.77734E-001	-4.30407E-002	2.30939E-003	-1.53229E-004	2.04525E-002	2.11901E-002	-1.01236E-003	-1.34056E-003	2.36407E-002	-1.50135E-003
	60	60	1.10048E+000	3.46629E-002	0.00000E+000	3.81457E-002	3.45835E-001	3.94109E-002	4.72999E+001	11	...........	6.57607E-002	-4.49056E-003	5.86227E-001	6.07156E-001	-2.90025E-002	-3.84279E-002	6.77702E-001	-4.30415E-002	2.27946E-003	-1.55656E-004	2.03203E-002	2.10458E-002	-1.00531E-003	-1.33202E-003	2.34911E-002	-1.49194E-003
	61	61	1.10037E+000	3.44908E-002	0.00000E+000	3.79528E-002	3.44126E-001	3.92324E-002	4.60883E+001	11	...........	6.54356E-002	-4.51444E-003	5.86167E-001	6.07149E-001	-2.90006E-002	-3.84218E-002	6.77744E-001	-4.29882E-002	2.25693E-003	-1.55707E-004	2.02174E-002	2.09411E-002	-1.00025E-003	-1.32520E-003	2.33760E-002	-1.48270E-003
	62	62	1.10039E+000	3.46805E-002	0.00000E+000	3.81620E-002	3.46011E-001	3.97309E-002	4.64753E+001	11	...........	6.62778E-002	-4.34569E-003	5.86304E-001	6.07171E-001	-2.90171E-002	-3.84160E-002	6.77656E-001	-4.28449E-002	2.29854E-003	-1.50711E-004	2.03333E-002	2.10570E-002	-1.00633E-003	-1.33228E-003	2.35014E-002	-1.48588E-003
	63	63	1.10048E+000	3.44873E-002	0.00000E+000	3.79525E-002	3.44096E-001	3.93612E-002	4.77050E+001	11	...........	6.56719E-002	-4.26458E-003	5.86196E-001	6.07048E-001	-2.90125E-002	-3.84421E-002	6.77552E-001	-4.28146E-002	2.26485E-003	-1.47074E-004	2.02164E-002	2.09355E-002	-1.00056E-003	-1.32577E-003	2.33670E-002	-1.47656E-003
	64	64	1.10038E+000	3.42762E-002	0.00000E+000	3.77168E-002	3.41991E-001	3.95138E-002	4.82283E+001	11	...........	6.59408E-002	-4.30583E-003	5.86161E-001	6.07053E-001	-2.89950E-002	-3.84483E-002	6.77479E-001	-4.29212E-002	2.26020E-003	-1.47588E-004	2.00914E-002	2.08075E-002	-9.93839E-004	-1.31786E-003	2.32214E-002	-1.47118E-003
	65	65	1.10039E+000	3.43935E-002	0.00000E+000	3.78462E-002	3.43159E-001	3.93824E-002	4.60078E+001	11	...........	6.57149E-002	-4.17736E-003	5.86155E-001	6.07227E-001	-2.90061E-002	-3.84521E-002	6.77404E-001	-4.30151E-002	2.26017E-003	-1.43674E-004	2.01599E-002	2.08847E-002	-9.97622E-004	-1.32250E-003	2.32983E-002	-1.47944E-003
	66	66	1.10047E+000	3.42438E-002	0.00000E+000	3.76843E-002	3.41672E-001	3.93286E-002	4.59435E+001	11	...........	6.56185E-002	-4.25903E-003	5.86126E-001	6.07200E-001	-2.90374E-002	-3.84457E-002	6.77422E-001	-4.30406E-002	2.24702E-003	-1.45845E-004	2.00712E-002	2.07928E-002	-9.94349E-004	-1.31653E-003	2.31975E-002	-1.47387E-003
	67	67	1.10038E+000	3.40826E-002	0.00000E+000	3.75038E-002	3.40067E-001	3.95070E-002	4.85804E+001	11	...........	6.59214E-002	-4.33139E-003	5.86265E-001	6.07276E-001	-2.90444E-002	-3.84253E-002	6.77461E-001	-4.29553E-002	2.24677E-003	-1.47625E-004	1.99814E-002	2.06976E-002	-9.89911E-004	-1.30963E-003	2.30896E-002	-1.46403E-003
	68	68	1.10039E+000	3.41721E-002	0.00000E+000	3.76026E-002	3.40957E-001	3.93070E-002	4.63415E+001	11	...........	6.55801E-002	-4.30417E-003	5.86199E-001	6.07257E-001	-2.90447E-002	-3.84539E-002	6.77384E-001	-4.28662E-002	2.24101E-003	-1.47082E-004	2.00316E-002	2.07513E-002	-9.92519E-004	-1.31405E-003	2.31476E-002	-1.46483E-003
	69	69	1.10047E+000	3.39726E-002	0.00000E+000	3.73858E-002	3.38973E-001	3.92835E-002	4.66105E+001	11	...........	6.55368E-002	-4.15514E-003	5.86220E-001	6.07167E-001	-2.90399E-002	-3.84806E-002	6.77340E-001	-4.30264E-002	2.22645E-003	-1.41161E-004	1.99154E-002	2.06270E-002	-9.86559E-004	-1.30728E-003	2.30110E-002	-1.46172E-003
	70	70	1.10038E+000	3.37786E-002	0.00000E+000	3.71694E-002	3.37044E-001	3.91227E-002	4.63370E+001	11	...........	6.52530E-002	-4.15694E-003	5.86231E-001	6.07220E-001	-2.90194E-002	-3.84939E-002	6.77385E-001	-4.30258E-002	2.20416E-003	-1.40416E-004	1.98021E-002	2.05111E-002	-9.80237E-004	-1.30027E-003	2.28811E-002	-1.45335E-003
	71	71	1.10038E+000	3.39690E-002	0.00000E+000	3.73790E-002	3.38934E-001	3.95610E-002	4.78873E+001	11	...........	6.60303E-002	-4.17917E-003	5.86211E-001	6.07142E-001	-2.89997E-002	-3.85054E-002	6.77422E-001	-4.29843E-002	2.24298E-003	-1.41962E-004	1.99130E-002	2.06240E-002	-9.85092E-004	-1.30799E-003	2.30114E-002	-1.46013E-003
	72	72	1.10047E+000	3.37469E-002	0.00000E+000	3.71375E-002	3.36727E-001	3.92178E-002	4.66674E+001	11	...........	6.54196E-002	-4.27806E-003	5.86334E-001	6.07166E-001	-2.90014E-002	-3.85008E-002	6.77352E-001	-4.27679E-002	2.20771E-003	-1.44371E-004	1.97870E-002	2.04900E-002	-9.78708E-004	-1.29929E-003	2.28586E-002	-1.44329E-003
	73	73	1.10038E+000	3.35669E-002	0.00000E+000	3.69366E-002	3.34936E-001	3.93552E-002	4.80472E+001	11	...........	6.56668E-002	-4.27569E-003	5.86332E-001	6.07128E-001	-2.89960E-002	-3.85033E-002	6.77318E-001	-4.28729E-002	2.20423E-003	-1.43522E-004	1.96814E-002	2.03794E-002	-9.73306E-004	-1.29244E-003	2.27355E-002	-1.43911E-003
	74	74	1.10039E+000	3.36744E-002	0.00000E+000	3.70549E-002	3.36005E-001	3.93385E-002	4.55558E+001	11	...........	6.56374E-002	-4.32264E-003	5.86500E-001	6.06999E-001	-2.89850E-002	-3.84881E-002	6.77391E-001	-4.28700E-002	2.21030E-003	-1.45562E-004	1.97501E-002	2.04403E-002	-9.76054E-004	-1.29606E-003	2.28108E-002	-1.44362E-003
	75	75	1.10047E+000	3.35360E-002	0.00000E+000	3.69052E-002	3.34627E-001	3.90632E-002	4.66408E+001	11	...........	6.52029E-002	-4.29528E-003	5.86453E-001	6.07082E-001	-2.89607E-002	-3.84778E-002	6.77374E-001	-4.28889E-002	2.18665E-003	-1.44046E-004	1.96673E-002	2.03591E-002	-9.71226E-004	-1.29039E-003	2.27164E-002	-1.43832E-003
	76	76	1.10039E+000	3.32854E-002	0.00000E+000	3.66269E-002	3.32141E-001	3.93259E-002	4.67098E+001	11	...........	6.56179E-002	-4.32542E-003	5.86507E-001	6.07286E-001	-2.89529E-002	-3.84721E-002	6.77374E-001	-4.27729E-002	2.18412E-003	-1.43973E-004	1.95221E-002	2.02138E-002	-9.63710E-004	-1.28056E-003	2.25467E-002	-1.42371E-003
	77	77	1.10038E+000	3.34526E-002	0.00000E+000	3.68108E-002	3.33803E-001	3.91741E-002	4.61987E+001	11	...........	6.53590E-002	-4.18917E-003	5.86404E-001	6.07390E-001	-2.89522E-002	-3.84647E-002	6.77370E-001	-4.27781E-002	2.18643E-003	-1.40139E-004	1.96168E-002	2.03188E-002	-9.68528E-004	-1.28675E-003	2.26598E-002	-1.43104E-003
	78	78	1.10047E+000	3.33311E-002	0.00000E+000	3.66797E-002	3.32594E-001	3.91398E-002	4.68963E+001	11	...........	6.52982E-002	-4.22375E-003	5.86432E-001	6.07407E-001	-2.89308E-002	-3.84807E-002	6.77425E-001	-4.29233E-002	2.17646E-003	-1.40782E-004	1.95464E-002	2.02455E-002	-9.64296E-004	-1.28260E-003	2.25793E-002	-1.43068E-003
	79	79	1.10039E+000	3.30418E-002	0.00000E+000	3.63589E-002	3.29719E-001	3.94389E-002	4.54524E+001	11	...........	6.58001E-002	-4.16153E-003	5.86414E-001	6.07397E-001	-2.89014E-002	-3.84772E-002	6.77498E-001	-4.28821E-002	2.17415E-003	-1.37504E-004	1.93762E-002	2.00695E-002	-9.54953E-004	-1.27136E-003	2.23857E-002	-1.41690E-003
	80	80	1.10038E+000	3.32116E-002	0.00000E+000	3.65455E-002	3.31405E-001	3.91185E-002	4.68777E+001	11	...........	6.52635E-002	-4.13319E-003	5.86251E-001	6.07574E-001	-2.89010E-002	-3.84386E-002	6.77515E-001	-4.28104E-002	2.16750E-003	-1.37270E-004	1.94703E-002	2.01785E-002	-9.59847E-004	-1.27661E-003	2.25013E-002	-1.42180E-003
	81	81	1.10046E+000	3.31080E-002	0.00000E+000	3.64342E-002	3.30378E-001	3.92657E-002	4.77084E+001	11	...........	6.55062E-002	-4.29778E-003	5.86372E-001	6.07496E-001	-2.88996E-002	-3.84389E-002	6.77494E-001	-4.30122E-002	2.16878E-003	-1.42291E-004	1.94136E-002	2.01130E-002	-9.56807E-004	-1.27263E-003	2.24305E-002	-1.42405E-003
	82	82	1.10039E+000	3.28234E-002	0.00000E+000	3.61186E-002	3.27551E-001	3.90733E-002	4.64396E+001	11	...........	6.52065E-002	-4.36139E-003	5.86430E-001	6.07428E-001	-2.88954E-002	-3.84292E-002	6.77443E-001	-4.30394E-002	2.14030E-003	-1.43156E-004	1.92486E-002	1.99379E-002	-9.48446E-004	-1.26138E-003	2.22360E-002	-1.41270E-003
	83	83	1.10038E+000	3.29897E-002	0.00000E+000	3.63013E-002	3.29199E-001	3.92758E-002	4.62547E+001	11	...........	6.55432E-002	-4.35431E-003	5.86573E-001	6.07483E-001	-2.89094E-002	-3.84403E-002	6.77514E-001	-4.30643E-002	2.16225E-003	-1.43647E-004	1.93508E-002	2.00407E-002	-9.53713E-004	-1.26813E-003	2.23510E-002	-1.42068E-003
	84	84	1.10046E+000	3.28878E-002	0.00000E+000	3.61918E-002	3.28183E-001	3.89751E-002	4.64924E+001	11	...........	6.50415E-002	-4.31875E-003	5.86556E-001	6.07407E-001	-2.89153E-002	-3.84660E-002	6.77569E-001	-4.30528E-002	2.13907E-003	-1.42034E-004	1.92905E-002	1.99763E-002	-9.50959E-004	-1.26506E-003	2.22838E-002	-1.41591E-003
	85	85	1.10040E+000	3.26351E-002	0.00000E+000	3.59115E-002	3.25675E-001	3.93290E-002	4.80495E+001	11	...........	6.56235E-002	-4.36597E-003	5.86534E-001	6.07433E-001	-2.89199E-002	-3.84676E-002	6.77558E-001	-4.31206E-002	2.14163E-003	-1.42484E-004	1.91416E-002	1.98236E-002	-9.43802E-004	-1.25539E-003	2.21122E-002	-1.40724E-003
	86	86	1.10038E+000	3.27436E-002	0.00000E+000	3.60304E-002	3.26751E-001	3.90898E-002	4.70602E+001	11	...........	6.52103E-002	-4.28806E-003	5.86428E-001	6.07482E-001	-2.89037E-002	-3.84567E-002	6.77454E-001	-4.28601E-002	2.13522E-003	-1.40406E-004	1.92018E-002	1.98911E-002	-9.46412E-004	-1.25921E-003	2.21822E-002	-1.40339E-003
	87	87	1.10046E+000	3.26608E-002	0.00000E+000	3.59420E-002	3.25927E-001	3.92032E-002	4.54077E+001	11	...........	6.54054E-002	-4.27083E-003	5.86467E-001	6.07464E-001	-2.88768E-002	-3.84483E-002	6.77379E-001	-4.29085E-002	2.13619E-003	-1.39489E-004	1.91545E-002	1.98402E-002	-9.43139E-004	-1.25575E-003	2.21237E-002	-1.40142E-003
	88	88	1.10039E+000	3.23673E-002	0.00000E+000	3.56168E-002	3.23013E-001	3.87548E-002	4.54370E+001	11	...........	6.46632E-002	-4.26569E-003	5.86412E-001	6.07512E-001	-2.88807E-002	-3.84793E-002	6.77406E-001	-4.30124E-002	2.09298E-003	-1.38069E-004	1.89806E-002	1.96635E-002	-9.34791E-004	-1.24547E-003	2.19258E-002	-1.39220E-003
	89	89	1.10038E+000	3.25698E-002	0.00000E+000	3.58393E-002	3.25026E-001	3.93547E-002	4.65368E+001	11	...........	6.56675E-002	-4.45722E-003	5.86514E-001	6.07486E-001	-2.88625E-002	-3.84768E-002	6.77445E-001	-4.30572E-002	2.13878E-003	-1.45171E-004	1.91027E-002	1.97857E-002	-9.40046E-004	-1.25318E-003	2.20643E-002	-1.40237E-003
	90	90	1.10046E+000	3.24532E-002	0.00000E+000	3.57134E-002	3.23867E-001	3.89773E-002	4.77148E+001	11	...........	6.50394E-002	-4.40250E-003	5.86385E-001	6.07503E-001	-2.88679E-002	-3.84547E-002	6.77419E-001	-4.30306E-002	2.11074E-003	-1.42875E-004	1.90301E-002	1.97154E-002	-9.36857E-004	-1.24798E-003	2.19844E-002	-1.39648E-003
	91	91	1.10040E+000	3.21542E-002	0.00000E+000	3.53825E-002	3.20895E-001	3.90667E-002	4.62701E+001	11	...........	6.51807E-002	-4.33694E-003	5.86337E-001	6.07542E-001	-2.88754E-002	-3.84414E-002	6.77402E-001	-4.28733E-002	2.09584E-003	-1.39451E-004	1.88532E-002	1.95350E-002	-9.28467E-004	-1.23605E-003	2.17813E-002	-1.37856E-003
	92	92	1.10038E+000	3.23287E-002	0.00000E+000	3.55740E-002	3.22628E-001	3.90713E-002	4.70184E+001	11	...........	6.51936E-002	-4.25125E-003	5.86409E-001	6.07484E-001	-2.88825E-002	-3.84582E-002	6.77518E-001	-4.29125E-002	2.10763E-003	-1.37438E-004	1.89579E-002	1.96392E-002	-9.33735E-004	-1.24330E-003	2.19033E-002	-1.38731E-003
	93	93	1.10046E+000	3.22263E-002	0.00000E+000	3.54636E-002	3.21607E-001	3.88462E-002	4.67216E+001	11	...........	6.48203E-002	-4.24792E-003	5.86481E-001	6.07569E-001	-2.88686E-002	-3.84811E-002	6.77510E-001	-4.28619E-002	2.08892E-003	-1.36895E-004	1.89001E-002	1.95797E-002	-9.30328E-004	-1.24010E-003	2.18336E-002	-1.38128E-003
	94	94	1.10040E+000	3.19883E-002	0.00000E+000	3.52001E-002	3.19242E-001	3.91901E-002	4.63789E+001	11	...........	6.53680E-002	-4.27458E-003	5.86292E-001	6.07518E-001	-2.88504E-002	-3.85003E-002	6.77550E-001	-4.27944E-002	2.09101E-003	-1.36737E-004	1.87545E-002	1.94335E-002	-9.22877E-004	-1.23156E-003	2.16737E-002	-1.36892E-003
	95	95	1.10038E+000	3.21118E-002	0.00000E+000	3.53351E-002	3.20471E-001	3.89392E-002	4.75575E+001	11	...........	6.49778E-002	-4.33875E-003	5.86114E-001	6.07589E-001	-2.88451E-002	-3.84939E-002	6.77517E-001	-4.28565E-002	2.08655E-003	-1.39325E-004	1.88212E-002	1.95108E-002	-9.26268E-004	-1.23611E-003	2.17563E-002	-1.37620E-003
	96	96	1.10045E+000	3.20333E-002	0.00000E+000	3.52512E-002	3.19692E-001	3.90052E-002	4.75564E+001	11	...........	6.50872E-002	-4.48486E-003	5.86152E-001	6.07636E-001	-2.88744E-002	-3.84849E-002	6.77601E-001	-4.29118E-002	2.08496E-003	-1.43665E-004	1.87764E-002	1.94646E-002	-9.24945E-004	-1.23280E-003	2.17058E-002	-1.37461E-003
	97	97	1.10041E+000	3.17106E-002	0.00000E+000	3.48947E-002	3.16485E-001	3.90261E-002	4.46832E+001	11	...........	6.50971E-002	-4.44958E-003	5.86068E-001	6.07584E-001	-2.88715E-002	-3.85000E-002	6.77460E-001	-4.31149E-002	2.06427E-003	-1.41099E-004	1.85846E-002	1.92669E-002	-9.15534E-004	-1.22086E-003	2.14827E-002	-1.36720E-003
	98	98	1.10038E+000	3.18650E-002	0.00000E+000	3.50635E-002	3.18017E-001	3.87453E-002	4.57817E+001	11	...........	6.46297E-002	-4.29806E-003	5.85921E-001	6.07520E-001	-2.88532E-002	-3.85010E-002	6.77412E-001	-4.30681E-002	2.05942E-003	-1.36957E-004	1.86704E-002	1.93586E-002	-9.19406E-004	-1.22683E-003	2.15857E-002	-1.37236E-003
	99	99	1.10045E+000	3.18366E-002	0.00000E+000	3.50347E-002	3.17733E-001	3.91178E-002	4.71121E+001	11	...........	6.52722E-002	-4.38194E-003	5.86006E-001	6.07521E-001	-2.88269E-002	-3.84882E-002	6.77389E-001	-4.29803E-002	2.07804E-003	-1.39506E-004	1.86564E-002	1.93414E-002	-9.17751E-004	-1.22533E-003	2.15657E-002	-1.36834E-003
	100	100	1.10041E+000	3.15249E-002	0.00000E+000	3.46903E-002	3.14635E-001	3.90025E-002	4.66961E+001	11	...........	6.50714E-002	-4.36986E-003	5.86038E-001	6.07709E-001	-2.88021E-002	-3.84990E-002	6.77361E-001	-4.29597E-002	2.05137E-003	-1.37759E-004	1.84748E-002	1.91579E-002	-9.07981E-004	-1.21368E-003	2.13537E-002	-1.35430E-003
	101	101	1.10038E+000	3.16287E-002	0.00000E+000	3.48035E-002	3.15667E-001	3.87837E-002	4.62475E+001	11	...........	6.47054E-002	-4.32403E-003	5.86044E-001	6.07676E-001	-2.88131E-002	-3.84879E-002	6.77308E-001	-4.30535E-002	2.04655E-003	-1.36763E-004	1.85358E-002	1.92200E-002	-9.11320E-004	-1.21732E-003	2.14224E-002	-1.36173E-003
	102	102	1.10045E+000	3.16431E-002	0.00000E+000	3.48217E-002	3.15809E-001	3.90814E-002	4.64788E+001	11	...........	6.51935E-002	-4.30264E-003	5.86131E-001	6.07593E-001	-2.88329E-002	-3.84765E-002	6.77391E-001	-4.31087E-002	2.06292E-003	-1.36149E-004	1.85470E-002	1.92261E-002	-9.12363E-004	-1.21752E-003	2.14348E-002	-1.36409E-003
	103	103	1.10041E+000	3.12761E-002	0.00000E+000	3.44166E-002	3.12163E-001	3.85961E-002	4.56853E+001	11	...........	6.43918E-002	-4.29083E-003	5.86239E-001	6.07496E-001	-2.88165E-002	-3.84550E-002	6.77290E-001	-4.30047E-002	2.01393E-003	-1.34201E-004	1.83353E-002	1.90001E-002	-9.01270E-004	-1.20272E-003	2.11830E-002	-1.34502E-003
	104	104	1.10038E+000	3.14720E-002	0.00000E+000	3.46311E-002	3.14108E-001	3.91444E-002	4.73047E+001	11	...........	6.53093E-002	-4.24278E-003	5.86320E-001	6.07440E-001	-2.88342E-002	-3.84369E-002	6.77237E-001	-4.31040E-002	2.05542E-003	-1.33529E-004	1.84527E-002	1.91174E-002	-9.07469E-004	-1.20969E-003	2.13140E-002	-1.35657E-003
	105	105	1.10045E+000	3.14082E-002	0.00000E+000	3.45631E-002	3.13472E-001	3.87269E-002	4.66418E+001	11	...........	6.45974E-002	-4.28583E-003	5.86380E-001	6.07390E-001	-2.88458E-002	-3.84131E-002	6.77159E-001	-4.31765E-002	2.02888E-003	-1.34610E-004	1.84171E-002	1.90770E-002	-9.05995E-004	-1.20648E-003	2.12683E-002	-1.35610E-003
	106	106	1.10042E+000	3.10564E-002	0.00000E+000	3.41750E-002	3.09979E-001	3.90258E-002	4.63990E+001	11	...........	6.51258E-002	-4.30306E-003	5.86472E-001	6.07407E-001	-2.88468E-002	-3.84464E-002	6.77150E-001	-4.30661E-002	2.02258E-003	-1.33637E-004	1.82137E-002	1.88639E-002	-8.95879E-004	-1.19401E-003	2.10298E-002	-1.33748E-003
	107	107	1.10038E+000	3.12270E-002	0.00000E+000	3.43615E-002	3.11673E-001	3.88284E-002	4.60352E+001	11	...........	6.47939E-002	-4.28208E-003	5.86549E-001	6.07409E-001	-2.88518E-002	-3.84418E-002	6.77220E-001	-4.30947E-002	2.02332E-003	-1.33717E-004	1.83162E-002	1.89676E-002	-9.00956E-004	-1.20042E-003	2.11476E-002	-1.34572E-003
	108	108	1.10044E+000	3.12074E-002	0.00000E+000	3.43420E-002	3.11479E-001	3.87115E-002	4.65112E+001	11	...........	6.45924E-002	-4.30500E-003	5.86600E-001	6.07303E-001	-2.88500E-002	-3.84532E-002	6.77288E-001	-4.31140E-002	2.01576E-003	-1.34348E-004	1.83062E-002	1.89523E-002	-9.00332E-004	-1.20002E-003	2.11364E-002	-1.34547E-003
	109	109	1.10042E+000	3.09107E-002	0.00000E+000	3.40147E-002	3.08529E-001	3.88572E-002	4.64776E+001	11	...........	6.48168E-002	-4.28181E-003	5.86746E-001	6.07240E-001	-2.88382E-002	-3.84333E-002	6.77206E-001	-4.30483E-002	2.00353E-003	-1.32353E-004	1.81367E-002	1.87702E-002	-8.91407E-004	-1.18800E-003	2.09329E-002	-1.33065E-003
	110	110	1.10038E+000	3.09971E-002	0.00000E+000	3.41085E-002	3.09389E-001	3.86999E-002	4.73637E+001	11	...........	6.45478E-002	-4.31181E-003	5.86741E-001	6.07222E-001	-2.88524E-002	-3.84275E-002	6.77310E-001	-4.30172E-002	2.00079E-003	-1.33653E-004	1.81872E-002	1.88221E-002	-8.94338E-004	-1.19114E-003	2.09946E-002	-1.33341E-003
	111	111	1.10044E+000	3.09906E-002	0.00000E+000	3.41034E-002	3.09323E-001	3.89285E-002	4.77919E+001	11	...........	6.49583E-002	-4.30903E-003	5.86901E-001	6.07230E-001	-2.88437E-002	-3.84431E-002	6.77464E-001	-4.29239E-002	2.01309E-003	-1.33539E-004	1.81884E-002	1.88184E-002	-8.93884E-004	-1.19137E-003	2.09950E-002	-1.33023E-003
	112	112	1.10042E+000	3.06485E-002	0.00000E+000	3.37263E-002	3.05923E-001	3.86151E-002	4.42161E+001	11	...........	6.44418E-002	-4.34458E-003	5.86929E-001	6.07291E-001	-2.88565E-002	-3.84268E-002	6.77475E-001	-4.29865E-002	1.97505E-003	-1.33155E-004	1.79885E-002	1.86126E-002	-8.84411E-004	-1.17773E-003	2.07636E-002	-1.31747E-003
	113	113	1.10038E+000	3.08332E-002	0.00000E+000	3.39281E-002	3.07759E-001	3.88077E-002	4.73450E+001	11	...........	6.47472E-002	-4.30347E-003	5.86812E-001	6.07362E-001	-2.88558E-002	-3.84335E-002	6.77396E-001	-4.29800E-002	1.99637E-003	-1.32690E-004	1.80933E-002	1.87269E-002	-8.89718E-004	-1.18503E-003	2.08863E-002	-1.32521E-003
	114	114	1.10044E+000	3.08206E-002	0.00000E+000	3.39162E-002	3.07637E-001	3.87928E-002	4.76902E+001	11	...........	6.47235E-002	-4.43056E-003	5.86838E-001	6.07258E-001	-2.88437E-002	-3.84407E-002	6.77291E-001	-4.29388E-002	1.99482E-003	-1.36552E-004	1.80867E-002	1.87161E-002	-8.88981E-004	-1.18476E-003	2.08745E-002	-1.32340E-003
	115	115	1.10043E+000	3.04480E-002	0.00000E+000	3.35058E-002	3.03929E-001	3.86522E-002	4.55469E+001	11	...........	6.44803E-002	-4.38417E-003	5.86851E-001	6.07050E-001	-2.88403E-002	-3.84549E-002	6.77237E-001	-4.28257E-002	1.96330E-003	-1.33489E-004	1.78685E-002	1.84835E-002	-8.78130E-004	-1.17087E-003	2.06205E-002	-1.30396E-003
	116	116	1.10037E+000	3.06031E-002	0.00000E+000	3.36748E-002	3.05470E-001	3.88251E-002	4.73830E+001	11	...........	6.47744E-002	-4.40500E-003	5.86804E-001	6.07091E-001	-2.88287E-002	-3.84422E-002	6.77241E-001	-4.28312E-002	1.98230E-003	-1.34807E-004	1.79580E-002	1.85789E-002	-8.82248E-004	-1.17645E-003	2.07257E-002	-1.31077E-003
	117	117	1.10044E+000	3.06035E-002	0.00000E+000	3.36773E-002	3.05473E-001	3.85382E-002	4.70612E+001	11	...........	6.42940E-002	-4.40889E-003	5.86729E-001	6.06940E-001	-2.88357E-002	-3.84350E-002	6.77322E-001	-4.30064E-002	1.96762E-003	-1.34927E-004	1.79560E-002	1.85745E-002	-8.82473E-004	-1.17625E-003	2.07284E-002	-1.31615E-003
	118	118	1.10043E+000	3.02646E-002	0.00000E+000	3.33041E-002	3.02107E-001	3.87077E-002	4.69067E+001	11	...........	6.45782E-002	-4.29861E-003	5.86666E-001	6.06919E-001	-2.88161E-002	-3.84362E-002	6.77286E-001	-4.30453E-002	1.95444E-003	-1.30096E-004	1.77552E-002	1.83682E-002	-8.72109E-004	-1.16326E-003	2.04978E-002	-1.30275E-003
	119	119	1.10037E+000	3.04124E-002	0.00000E+000	3.34650E-002	3.03573E-001	3.87652E-002	4.76315E+001	11	...........	6.46896E-002	-4.32708E-003	5.86792E-001	6.06866E-001	-2.88032E-002	-3.84092E-002	6.77308E-001	-4.30493E-002	1.96736E-003	-1.31597E-004	1.78458E-002	1.84562E-002	-8.75974E-004	-1.16811E-003	2.05986E-002	-1.30923E-003
	120	120	1.10044E+000	3.03955E-002	0.00000E+000	3.34483E-002	3.03405E-001	3.85263E-002	4.54286E+001	11	...........	6.42904E-002	-4.34625E-003	5.86803E-001	6.06881E-001	-2.87893E-002	-3.83821E-002	6.77289E-001	-4.29994E-002	1.95414E-003	-1.32106E-004	1.78362E-002	1.84464E-002	-8.75065E-004	-1.16664E-003	2.05865E-002	-1.30699E-003
	121	121	1.10043E+000	3.00775E-002	0.00000E+000	3.30982E-002	3.00245E-001	3.86793E-002	4.67099E+001	11	...........	6.45347E-002	-4.33764E-003	5.86913E-001	6.06890E-001	-2.87928E-002	-3.84301E-002	6.77273E-001	-4.30083E-002	1.94105E-003	-1.30465E-004	1.76529E-002	1.82538E-002	-8.66016E-004	-1.15588E-003	2.03707E-002	-1.29358E-003
	122	122	1.10037E+000	3.02222E-002	0.00000E+000	3.32558E-002	3.01683E-001	3.85372E-002	4.76931E+001	11	...........	6.42930E-002	-4.34306E-003	5.87006E-001	6.06833E-001	-2.88304E-002	-3.84287E-002	6.77386E-001	-4.30360E-002	1.94308E-003	-1.31257E-004	1.77406E-002	1.83399E-002	-8.71319E-004	-1.16140E-003	2.04721E-002	-1.30064E-003
	123	123	1.10043E+000	3.01841E-002	0.00000E+000	3.32156E-002	3.01304E-001	3.87595E-002	4.62678E+001	11	...........	6.46775E-002	-4.46042E-003	5.87016E-001	6.06836E-001	-2.88536E-002	-3.84246E-002	6.77429E-001	-4.30158E-002	1.95223E-003	-1.34634E-004	1.77185E-002	1.83168E-002	-8.70919E-004	-1.15981E-003	2.04476E-002	-1.29839E-003
	124	124	1.10043E+000	2.98731E-002	0.00000E+000	3.28733E-002	2.98215E-001	3.85604E-002	4.71712E+001	11	...........	6.43360E-002	-4.35111E-003	5.87077E-001	6.06988E-001	-2.88807E-002	-3.84229E-002	6.77461E-001	-4.29031E-002	1.92191E-003	-1.29981E-004	1.75378E-002	1.81326E-002	-8.62754E-004	-1.14781E-003	2.02378E-002	-1.28165E-003
	125	125	1.10037E+000	2.99821E-002	0.00000E+000	3.29915E-002	2.99301E-001	3.84388E-002	4.59200E+001	11	...........	6.41476E-002	-4.43083E-003	5.87085E-001	6.06964E-001	-2.88954E-002	-3.84135E-002	6.77431E-001	-4.29790E-002	1.92328E-003	-1.32846E-004	1.76020E-002	1.81980E-002	-8.66344E-004	-1.15171E-003	2.03108E-002	-1.28860E-003
	126	126	1.10043E+000	2.99964E-002	0.00000E+000	3.30089E-002	2.99443E-001	3.85398E-002	4.72756E+001	11	...........	6.43207E-002	-4.44222E-003	5.87086E-001	6.07082E-001	-2.88882E-002	-3.84065E-002	6.77321E-001	-4.30512E-002	1.92939E-003	-1.33251E-004	1.76105E-002	1.82103E-002	-8.66542E-004	-1.15206E-003	2.03172E-002	-1.29138E-003
	127	127	1.10044E+000	2.97055E-002	0.00000E+000	3.26891E-002	2.96554E-001	3.87945E-002	4.81894E+001	11	...........	6.47075E-002	-4.38750E-003	5.87193E-001	6.07141E-001	-2.88910E-002	-3.84090E-002	6.77364E-001	-4.29817E-002	1.92217E-003	-1.30333E-004	1.74429E-002	1.80354E-002	-8.58220E-004	-1.14096E-003	2.01214E-002	-1.27679E-003
	128	128	1.10037E+000	2.97773E-002	0.00000E+000	3.27661E-002	2.97265E-001	3.85009E-002	4.55504E+001	11	...........	6.42382E-002	-4.26958E-003	5.87048E-001	6.07251E-001	-2.88949E-002	-3.83762E-002	6.77316E-001	-4.29624E-002	1.91284E-003	-1.27136E-004	1.74807E-002	1.80823E-002	-8.60410E-004	-1.14274E-003	2.01686E-002	-1.27930E-003
	129	129	1.10043E+000	2.97936E-002	0.00000E+000	3.27856E-002	2.97424E-001	3.84198E-002	4.65257E+001	11	...........	6.41129E-002	-4.17875E-003	5.86916E-001	6.07336E-001	-2.88954E-002	-3.83078E-002	6.77343E-001	-4.30283E-002	1.91015E-003	-1.24500E-004	1.74863E-002	1.80947E-002	-8.60897E-004	-1.14133E-003	2.01805E-002	-1.28197E-003
	130	130	1.10044E+000	2.94930E-002	0.00000E+000	3.24553E-002	2.94439E-001	3.85609E-002	4.70350E+001	11	...........	6.43558E-002	-4.12069E-003	5.86982E-001	6.07485E-001	-2.88875E-002	-3.82815E-002	6.77361E-001	-4.30062E-002	1.89804E-003	-1.21531E-004	1.73118E-002	1.79165E-002	-8.51978E-004	-1.12904E-003	1.99774E-002	-1.26838E-003
	131	131	1.10037E+000	2.95782E-002	0.00000E+000	3.25470E-002	2.95285E-001	3.83824E-002	4.75330E+001	11	...........	6.40526E-002	-4.14778E-003	5.86951E-001	6.07497E-001	-2.88776E-002	-3.83103E-002	6.77328E-001	-4.30576E-002	1.89456E-003	-1.22684E-004	1.73609E-002	1.79687E-002	-8.54148E-004	-1.13315E-003	2.00341E-002	-1.27357E-003
	132	132	1.10042E+000	2.96370E-002	0.00000E+000	3.26132E-002	2.95868E-001	3.86259E-002	4.71546E+001	11	...........	6.44503E-002	-4.29653E-003	5.86932E-001	6.07432E-001	-2.88694E-002	-3.83126E-002	6.77339E-001	-4.31371E-002	1.91011E-003	-1.27336E-004	1.73949E-002	1.80024E-002	-8.55602E-004	-1.13547E-003	2.00743E-002	-1.27845E-003
	133	133	1.10044E+000	2.92840E-002	0.00000E+000	3.22254E-002	2.92359E-001	3.83211E-002	4.74436E+001	11	...........	6.39322E-002	-4.24639E-003	5.86828E-001	6.07311E-001	-2.88728E-002	-3.83287E-002	6.77315E-001	-4.30561E-002	1.87219E-003	-1.24351E-004	1.71847E-002	1.77845E-002	-8.45510E-004	-1.12242E-003	1.98345E-002	-1.26085E-003
	134	134	1.10037E+000	2.93493E-002	0.00000E+000	3.22951E-002	2.93008E-001	3.86271E-002	4.52026E+001	11	...........	6.44640E-002	-4.28819E-003	5.86757E-001	6.07440E-001	-2.88567E-002	-3.83142E-002	6.77324E-001	-4.29703E-002	1.89197E-003	-1.25855E-004	1.72209E-002	1.78279E-002	-8.46922E-004	-1.12449E-003	1.98789E-002	-1.26115E-003
	135	135	1.10042E+000	2.94148E-002	0.00000E+000	3.23687E-002	2.93660E-001	3.83389E-002	4.65340E+001	11	...........	6.39585E-002	-4.35278E-003	5.86827E-001	6.07414E-001	-2.88569E-002	-3.83076E-002	6.77414E-001	-4.29083E-002	1.88133E-003	-1.28036E-004	1.72614E-002	1.78670E-002	-8.48822E-004	-1.12681E-003	1.99260E-002	-1.26214E-003
	136	136	1.10045E+000	2.91341E-002	0.00000E+000	3.20606E-002	2.90869E-001	3.85257E-002	4.74671E+001	11	...........	6.42774E-002	-4.36681E-003	5.86960E-001	6.07302E-001	-2.88519E-002	-3.82790E-002	6.77524E-001	-4.28535E-002	1.87267E-003	-1.27223E-004	1.71006E-002	1.76932E-002	-8.40576E-004	-1.11523E-003	1.97391E-002	-1.24850E-003
	137	137	1.10037E+000	2.91651E-002	0.00000E+000	3.20925E-002	2.91180E-001	3.82400E-002	4.64229E+001	11	...........	6.38051E-002	-4.32486E-003	5.86761E-001	6.07267E-001	-2.88712E-002	-3.83169E-002	6.77432E-001	-4.29721E-002	1.86088E-003	-1.26135E-004	1.71130E-002	1.77110E-002	-8.42033E-004	-1.11752E-003	1.97574E-002	-1.25329E-003
	138	138	1.10042E+000	2.92577E-002	0.00000E+000	3.21958E-002	2.92100E-001	3.87233E-002	4.65907E+001	11	...........	6.46349E-002	-4.36014E-003	5.86763E-001	6.07253E-001	-2.88901E-002	-3.83242E-002	6.77344E-001	-4.28043E-002	1.89107E-003	-1.27568E-004	1.71673E-002	1.77668E-002	-8.45259E-004	-1.12128E-003	1.98175E-002	-1.25236E-003
	139	139	1.10045E+000	2.88919E-002	0.00000E+000	3.17941E-002	2.88465E-001	3.82777E-002	4.64194E+001	11	...........	6.38761E-002	-4.44431E-003	5.86765E-001	6.07270E-001	-2.88818E-002	-3.83147E-002	6.77371E-001	-4.27833E-002	1.84550E-003	-1.28405E-004	1.69528E-002	1.75452E-002	-8.34451E-004	-1.10699E-003	1.95705E-002	-1.23609E-003
	140	140	1.10037E+000	2.89654E-002	0.00000E+000	3.18727E-002	2.89194E-001	3.82658E-002	4.62297E+001	11	...........	6.38360E-002	-4.29875E-003	5.86877E-001	6.07221E-001	-2.88785E-002	-3.83042E-002	6.77363E-001	-4.28372E-002	1.84904E-003	-1.24515E-004	1.69991E-002	1.75884E-002	-8.36477E-004	-1.10950E-003	1.96201E-002	-1.24080E-003
	141	141	1.10042E+000	2.90667E-002	0.00000E+000	3.19855E-002	2.90201E-001	3.84864E-002	4.58099E+001	11	...........	6.42035E-002	-4.28778E-003	5.86822E-001	6.07378E-001	-2.88456E-002	-3.83244E-002	6.77397E-001	-4.30743E-002	1.86618E-003	-1.24631E-004	1.70569E-002	1.76545E-002	-8.38444E-004	-1.11396E-003	1.96897E-002	-1.25203E-003
	142	142	1.10045E+000	2.87327E-002	0.00000E+000	3.16190E-002	2.86880E-001	3.83608E-002	4.70878E+001	11	...........	6.39946E-002	-4.33417E-003	5.86829E-001	6.07323E-001	-2.88643E-002	-3.83469E-002	6.77387E-001	-4.30937E-002	1.83874E-003	-1.24532E-004	1.68612E-002	1.74501E-002	-8.29350E-004	-1.10181E-003	1.94632E-002	-1.23820E-003
	143	143	1.10037E+000	2.87723E-002	0.00000E+000	3.16602E-002	2.87277E-001	3.82514E-002	4.65415E+001	11	...........	6.38218E-002	-4.25736E-003	5.86872E-001	6.07245E-001	-2.88618E-002	-3.83593E-002	6.77412E-001	-4.29792E-002	1.83630E-003	-1.22494E-004	1.68857E-002	1.74718E-002	-8.30422E-004	-1.10369E-003	1.94907E-002	-1.23661E-003
	144	144	1.10042E+000	2.88548E-002	0.00000E+000	3.17523E-002	2.88095E-001	3.84741E-002	4.65430E+001	11	...........	6.41928E-002	-4.25250E-003	5.87027E-001	6.07225E-001	-2.88635E-002	-3.83518E-002	6.77385E-001	-4.29478E-002	1.85227E-003	-1.22705E-004	1.69386E-002	1.75214E-002	-8.32851E-004	-1.10663E-003	1.95458E-002	-1.23925E-003
	145	145	1.10045E+000	2.85507E-002	0.00000E+000	3.14187E-002	2.85072E-001	3.83793E-002	4.75984E+001	11	...........	6.40412E-002	-4.18458E-003	5.87052E-001	6.07229E-001	-2.88574E-002	-3.83518E-002	6.77415E-001	-4.29999E-002	1.82842E-003	-1.19473E-004	1.67607E-002	1.73368E-002	-8.23897E-004	-1.09497E-003	1.93406E-002	-1.22767E-003
	146	146	1.10037E+000	2.85663E-002	0.00000E+000	3.14334E-002	2.85226E-001	3.81982E-002	4.56192E+001	11	...........	6.37247E-002	-4.20111E-003	5.86961E-001	6.07152E-001	-2.88637E-002	-3.83796E-002	6.77443E-001	-4.29782E-002	1.82038E-003	-1.20010E-004	1.67673E-002	1.73441E-002	-8.24531E-004	-1.09636E-003	1.93520E-002	-1.22773E-003
	147	147	1.10042E+000	2.86365E-002	0.00000E+000	3.15120E-002	2.85925E-001	3.81000E-002	4.56882E+001	11	...........	6.35679E-002	-4.19181E-003	5.86858E-001	6.07323E-001	-2.88660E-002	-3.83701E-002	6.77405E-001	-4.31153E-002	1.82036E-003	-1.20038E-004	1.68055E-002	1.73916E-002	-8.26619E-004	-1.09878E-003	1.93985E-002	-1.23467E-003
	148	147.803	1.10047E+000	2.83930E-002	0.00000E+000	3.12457E-002	2.83507E-001	3.87244E-002	4.69087E+001	11	...........	6.46240E-002	-4.23167E-003	5.86819E-001	6.07442E-001	-2.88577E-002	-3.83721E-002	6.77404E-001	-4.29423E-002	1.83487E-003	-1.20150E-004	1.66615E-002	1.72471E-002	-8.19356E-004	-1.08950E-003	1.92335E-002	-1.21926E-003
STARTTIMEOFFSET	QUANT	735426.4	Start Time Offset (s)
