EXPLAIN
TAG	PWR800_CHARGE
TITLE	LABEL	PWR Charge	Test Identifier
DATE	LABEL	10/13/2022	Date
TIME	LABEL	14:52:35	Time
NOTES	NOTES	1	Notes...
	
PSTAT	PSTAT	REF3000-21114	Potentiostat
CAPACITY	QUANT	5.30000E-002	Capacity (A-hr)
CELLTYPE	SELECTOR	1	Cell Type
WORKINGCONNECTION	SELECTOR	0	Working Connection
MAXCHARGETIME	VARIABLEANDUNITS	7.20000E+003	s	2.00000E+000	hour(s)	Max Charge Time
CHARGEMODE	MULTIPARAM	0	1.00000E-001	Charge Mode	Constant Current	Amp(s)
CHARGECURRENT	QUANT	0.1	Charge Current (A)
VOLTAGEFINISH	TWOPARAM	T	2.50000E-002	7.20000E+003	Voltage Finish	I (A) <	Max Time(s)
SAMPLETIME	QUANT	1.00000E+000	Sample Period (s)
CHARGESTOPAT1	MULTIPARAM	2	1.10000E+000	Stop At 1	|Voltage| > Limit	V
CHARGESTOPAT2	MULTIPARAM	0	0.00000E+000	Stop At 2	None	N/A
AESELECTOR	AESELECTOR	0x1	T	Set Limits	AE Channels
AESBHCSELECTOR	TOGGLE	F	Save Both Half Cells
IRCOMP	TOGGLE	F	IR Measure
EOC	QUANT	0.2051158	Open Circuit (V)
SEQUENCER	TOGGLE	TRUE	Run as Sequence
PSTATMODEL	IQUANT	5	Pstat Model
PSTATSECTION	LABEL	REF3000-21114	Pstat Section
PSTATSERIALNO	LABEL	21114	Pstat Serial Number
CTRLMODE	IQUANT	0	Control Mode
ELECTROMETER	IQUANT	0	RE=0 or CS=1
IESTAB	IQUANT	0	I/E Stability
CASPEED	IQUANT	4	Control Amp Speed
CONVENTION	IQUANT	1	Current Convention
ICHRANGE	IQUANT	2	Ich Range
ICHRANGEMODE	TOGGLE	T	Ich Auto Range
ICHOFFSETENABLE	TOGGLE	F	Ich Offset Enable
ICHOFFSET	QUANT	0	Ich Offset (V)
ICHFILTER	IQUANT	1	Ich Filter
VCHRANGE	IQUANT	3	Vch Range
VCHRANGEMODE	TOGGLE	T	Vch Auto Range
VCHOFFSETENABLE	TOGGLE	F	Vch Offset Enable
VCHOFFSET	QUANT	0	Vch Offset (V)
VCHFILTER	IQUANT	1	Vch Filter
ACHRANGE	IQUANT	2	Ach Range
ACHOFFSETENABLE	TOGGLE	F	Ach Offset Enable
ACHOFFSET	QUANT	0	Ach Offset (V)
ACHFILTER	IQUANT	1	Ach Filter
IERANGELOWERLIMIT	IQUANT	9	I/E Range Lower Limit
IERANGEMODE	TOGGLE	F	I/E AutoRange
IERANGE	IQUANT	9	I/E Range
POSFEEDENABLE	TOGGLE	F	Positive Feedback IR Comp
POSFEEDRESISTANCE	QUANT	0	Positive Feedback Resistance (ohm)
ACHSELECT	IQUANT	1	Ach Select
SENSECABLEID	IQUANT	13	Sense Cable ID
PWRCABLEID	IQUANT	13	Power Cable ID
DCCALDATE	LABEL		DC Calibration Date
ACCALDATE	LABEL		AC Calibration Date
THERMOSELECT	IQUANT	1	Thermo Select
FRAMEWORKVERSION	LABEL	7.8.6	Framework Version
INSTRUMENTVERSION	LABEL	4.50	Instrument Version
COMPLIANCEVOLTAGE	IQUANT	0	Compliance Voltage
CURVE	TABLE	209
	Pt	T	Vf	Im	Vu	Pwr	Sig	Ach	Temp	IERange	Over	Vf1	Vf2	Vf3	Vf4	Vf5	Vf6	Vf7	Vf8	Pwr1	Pwr2	Pwr3	Pwr4	Pwr5	Pwr6	Pwr7	Pwr8
	#	s	V	A	V	W	V	V	deg C	#	bits	V	V	V	V	V	V	V	V	W	W	W	W	W	W	W	W
	0	1	4.76869E-001	9.98500E-002	0.00000E+000	4.76153E-002	9.94000E-001	4.32294E-002	4.25655E+001	11	...........	7.17403E-002	-5.37042E-003	6.00521E-001	5.47916E-001	-2.81053E-002	-3.91133E-002	6.93185E-001	-4.40244E-002	7.16326E-003	-5.36236E-004	5.99620E-002	5.47094E-002	-2.80631E-003	-3.90546E-003	6.92145E-002	-4.39584E-003
	1	2	6.21379E-001	9.98506E-002	0.00000E+000	6.20451E-002	9.94000E-001	4.33406E-002	4.40366E+001	11	...........	7.19487E-002	-5.42319E-003	6.00387E-001	5.47941E-001	-2.80017E-002	-3.91376E-002	6.93110E-001	-4.39689E-002	7.18413E-003	-5.41509E-004	5.99490E-002	5.47123E-002	-2.79598E-003	-3.90792E-003	6.92074E-002	-4.39032E-003
	2	3	8.67734E-001	9.98509E-002	0.00000E+000	8.66440E-002	9.94000E-001	4.41050E-002	4.87435E+001	11	...........	7.31761E-002	-5.62819E-003	6.00448E-001	5.47803E-001	-2.79678E-002	-3.91339E-002	6.93029E-001	-4.39918E-002	7.30670E-003	-5.61980E-004	5.99553E-002	5.46986E-002	-2.79261E-003	-3.90756E-003	6.91996E-002	-4.39262E-003
	3	3.13167	1.08219E+000	9.98522E-002	0.00000E+000	1.08059E-001	9.94000E-001	4.45829E-002	5.35564E+001	11	...........	7.39810E-002	-5.84810E-003	6.00668E-001	5.47608E-001	-2.79715E-002	-3.91857E-002	6.93230E-001	-4.39937E-002	7.38717E-003	-5.83946E-004	5.99780E-002	5.46798E-002	-2.79302E-003	-3.91277E-003	6.92205E-002	-4.39287E-003
	4	4	1.10063E+000	7.33554E-002	0.00000E+000	8.07373E-002	7.30510E-001	4.40537E-002	5.29862E+001	11	...........	7.31160E-002	-5.57550E-003	6.00778E-001	5.47774E-001	-2.79477E-002	-3.91425E-002	6.93226E-001	-4.39323E-002	5.36345E-003	-4.08993E-004	4.40703E-002	4.01822E-002	-2.05011E-003	-2.87131E-003	5.08519E-002	-3.22267E-003
	5	5	1.10027E+000	6.01100E-002	0.00000E+000	6.61373E-002	5.98791E-001	4.39284E-002	5.20394E+001	11	...........	7.28837E-002	-5.37625E-003	6.00769E-001	5.47846E-001	-2.78975E-002	-3.91187E-002	6.93135E-001	-4.38797E-002	4.38104E-003	-3.23166E-004	3.61122E-002	3.29310E-002	-1.67692E-003	-2.35143E-003	4.16643E-002	-2.63761E-003
	6	6	1.10035E+000	5.49375E-002	0.00000E+000	6.04504E-002	5.47354E-001	4.39354E-002	5.14916E+001	11	...........	7.29087E-002	-5.27486E-003	6.00672E-001	5.47820E-001	-2.78604E-002	-3.91025E-002	6.93200E-001	-4.39704E-002	4.00542E-003	-2.89788E-004	3.29994E-002	3.00958E-002	-1.53058E-003	-2.14819E-003	3.80827E-002	-2.41562E-003
	7	7	1.10018E+000	5.20757E-002	0.00000E+000	5.72924E-002	5.18893E-001	4.38835E-002	5.10554E+001	11	...........	7.28115E-002	-5.19389E-003	6.00729E-001	5.47909E-001	-2.78407E-002	-3.91274E-002	6.93212E-001	-4.39411E-002	3.79171E-003	-2.70475E-004	3.12833E-002	2.85327E-002	-1.44982E-003	-2.03758E-003	3.60995E-002	-2.28826E-003
	8	8	1.10021E+000	5.07679E-002	0.00000E+000	5.58551E-002	5.05884E-001	4.38856E-002	5.07287E+001	11	...........	7.28175E-002	-5.20653E-003	6.00790E-001	5.47907E-001	-2.78597E-002	-3.91246E-002	6.93287E-001	-4.38768E-002	3.69679E-003	-2.64324E-004	3.05008E-002	2.78161E-002	-1.41438E-003	-1.98627E-003	3.51967E-002	-2.22753E-003
	9	9	1.10032E+000	4.94007E-002	0.00000E+000	5.43563E-002	4.92300E-001	4.38645E-002	5.05696E+001	11	...........	7.28025E-002	-5.19139E-003	6.00864E-001	5.47881E-001	-2.79090E-002	-3.91160E-002	6.93408E-001	-4.38897E-002	3.59649E-003	-2.56458E-004	2.96831E-002	2.70657E-002	-1.37873E-003	-1.93236E-003	3.42549E-002	-2.16818E-003
	10	10	1.10017E+000	4.84484E-002	0.00000E+000	5.33015E-002	4.82829E-001	4.38194E-002	5.03685E+001	11	...........	7.27107E-002	-5.20264E-003	6.00959E-001	5.47736E-001	-2.79506E-002	-3.91021E-002	6.93395E-001	-4.39161E-002	3.52272E-003	-2.52060E-004	2.91155E-002	2.65370E-002	-1.35416E-003	-1.89443E-003	3.35939E-002	-2.12767E-003
	11	11	1.10020E+000	4.82664E-002	0.00000E+000	5.31025E-002	4.81023E-001	4.38043E-002	5.02136E+001	11	...........	7.26749E-002	-5.18556E-003	6.00822E-001	5.47759E-001	-2.79489E-002	-3.90731E-002	6.93363E-001	-4.39247E-002	3.50776E-003	-2.50288E-004	2.89996E-002	2.64384E-002	-1.34899E-003	-1.88592E-003	3.34662E-002	-2.12009E-003
	12	12	1.10030E+000	4.76755E-002	0.00000E+000	5.24575E-002	4.75147E-001	4.37961E-002	5.01552E+001	11	...........	7.26854E-002	-5.16806E-003	6.00883E-001	5.47775E-001	-2.79064E-002	-3.90937E-002	6.93431E-001	-4.38656E-002	3.46531E-003	-2.46390E-004	2.86474E-002	2.61154E-002	-1.33045E-003	-1.86381E-003	3.30597E-002	-2.09131E-003
	13	13	1.10017E+000	4.71379E-002	0.00000E+000	5.18598E-002	4.69808E-001	4.37403E-002	5.00744E+001	11	...........	7.25850E-002	-5.16958E-003	6.00675E-001	5.47899E-001	-2.78965E-002	-3.90792E-002	6.93397E-001	-4.39579E-002	3.42151E-003	-2.43683E-004	2.83146E-002	2.58268E-002	-1.31498E-003	-1.84211E-003	3.26853E-002	-2.07208E-003
	14	14	1.10019E+000	4.71878E-002	0.00000E+000	5.19157E-002	4.70299E-001	4.37453E-002	4.99395E+001	11	...........	7.25750E-002	-5.15972E-003	6.00557E-001	5.47932E-001	-2.79076E-002	-3.90950E-002	6.93558E-001	-4.41082E-002	3.42466E-003	-2.43476E-004	2.83390E-002	2.58557E-002	-1.31690E-003	-1.84481E-003	3.27275E-002	-2.08137E-003
	15	15	1.10030E+000	4.67739E-002	0.00000E+000	5.14653E-002	4.66181E-001	4.36752E-002	4.98798E+001	11	...........	7.24819E-002	-5.09083E-003	6.00633E-001	5.48038E-001	-2.78300E-002	-3.90815E-002	6.93624E-001	-4.41068E-002	3.39026E-003	-2.38118E-004	2.80940E-002	2.56339E-002	-1.30172E-003	-1.82800E-003	3.24435E-002	-2.06305E-003
	16	16	1.10017E+000	4.63427E-002	0.00000E+000	5.09851E-002	4.61894E-001	4.36643E-002	4.98267E+001	11	...........	7.24522E-002	-5.10514E-003	6.00698E-001	5.48096E-001	-2.78212E-002	-3.90593E-002	6.93587E-001	-4.39200E-002	3.35763E-003	-2.36586E-004	2.78380E-002	2.54003E-002	-1.28931E-003	-1.81012E-003	3.21427E-002	-2.03537E-003
	17	17	1.10019E+000	4.65032E-002	0.00000E+000	5.11624E-002	4.63489E-001	4.36365E-002	4.98062E+001	11	...........	7.24151E-002	-5.18153E-003	6.00705E-001	5.48125E-001	-2.78962E-002	-3.90746E-002	6.93533E-001	-4.38546E-002	3.36754E-003	-2.40958E-004	2.79347E-002	2.54896E-002	-1.29726E-003	-1.81709E-003	3.22515E-002	-2.03938E-003
	18	18	1.10030E+000	4.61495E-002	0.00000E+000	5.07782E-002	4.59971E-001	4.35954E-002	4.67244E+001	11	...........	7.23614E-002	-5.28958E-003	6.00825E-001	5.48193E-001	-2.79375E-002	-3.90775E-002	6.93482E-001	-4.38944E-002	3.33944E-003	-2.44112E-004	2.77278E-002	2.52988E-002	-1.28930E-003	-1.80341E-003	3.20038E-002	-2.02571E-003
	19	19	1.10018E+000	4.57052E-002	0.00000E+000	5.02838E-002	4.55556E-001	4.32929E-002	4.86623E+001	11	...........	7.18224E-002	-5.36639E-003	6.00704E-001	5.48251E-001	-2.78958E-002	-3.90746E-002	6.93548E-001	-4.39057E-002	3.28265E-003	-2.45272E-004	2.74553E-002	2.50579E-002	-1.27498E-003	-1.78591E-003	3.16987E-002	-2.00672E-003
	20	20	1.10019E+000	4.59979E-002	0.00000E+000	5.06064E-002	4.58462E-001	4.34258E-002	4.96179E+001	11	...........	7.22796E-002	-5.42431E-003	6.00791E-001	5.48160E-001	-2.79104E-002	-3.91006E-002	6.93577E-001	-4.39462E-002	3.32471E-003	-2.49507E-004	2.76351E-002	2.52142E-002	-1.28382E-003	-1.79854E-003	3.19031E-002	-2.02144E-003
	21	21	1.10029E+000	4.56977E-002	0.00000E+000	5.02808E-002	4.55481E-001	4.32039E-002	4.96958E+001	11	...........	7.21046E-002	-5.31083E-003	6.00873E-001	5.48130E-001	-2.79282E-002	-3.90989E-002	6.93728E-001	-4.39625E-002	3.29501E-003	-2.42693E-004	2.74585E-002	2.50483E-002	-1.27625E-003	-1.78673E-003	3.17018E-002	-2.00898E-003
	22	22	1.10018E+000	4.53085E-002	0.00000E+000	4.98476E-002	4.51613E-001	4.32082E-002	4.96461E+001	11	...........	7.21319E-002	-5.28458E-003	6.00906E-001	5.48102E-001	-2.79078E-002	-3.90904E-002	6.93620E-001	-4.39679E-002	3.26819E-003	-2.39437E-004	2.72262E-002	2.48337E-002	-1.26446E-003	-1.77113E-003	3.14269E-002	-1.99212E-003
	23	23	1.10019E+000	4.55454E-002	0.00000E+000	5.01085E-002	4.53967E-001	4.31531E-002	4.96288E+001	11	...........	7.20435E-002	-5.36833E-003	6.00859E-001	5.48119E-001	-2.78567E-002	-3.90411E-002	6.93608E-001	-4.39124E-002	3.28125E-003	-2.44503E-004	2.73664E-002	2.49643E-002	-1.26874E-003	-1.77814E-003	3.15907E-002	-2.00001E-003
	24	24	1.10029E+000	4.52751E-002	0.00000E+000	4.98157E-002	4.51280E-001	4.31557E-002	4.96065E+001	11	...........	7.20432E-002	-5.38375E-003	6.00970E-001	5.48204E-001	-2.78292E-002	-3.90440E-002	6.93650E-001	-4.40408E-002	3.26176E-003	-2.43750E-004	2.72089E-002	2.48199E-002	-1.25997E-003	-1.76772E-003	3.14051E-002	-1.99395E-003
	25	25	1.10018E+000	4.48712E-002	0.00000E+000	4.93666E-002	4.47263E-001	4.30658E-002	4.96270E+001	11	...........	7.18717E-002	-5.22194E-003	6.00941E-001	5.48187E-001	-2.78729E-002	-3.90699E-002	6.93652E-001	-4.40225E-002	3.22497E-003	-2.34315E-004	2.69649E-002	2.45978E-002	-1.25069E-003	-1.75311E-003	3.11250E-002	-1.97534E-003
	26	26	1.10019E+000	4.51111E-002	0.00000E+000	4.96306E-002	4.49649E-001	4.30666E-002	4.96289E+001	11	...........	7.18776E-002	-5.29458E-003	6.00903E-001	5.48134E-001	-2.79631E-002	-3.90868E-002	6.93743E-001	-4.40235E-002	3.24248E-003	-2.38845E-004	2.71074E-002	2.47270E-002	-1.26145E-003	-1.76325E-003	3.12955E-002	-1.98595E-003
	27	27	1.10029E+000	4.49026E-002	0.00000E+000	4.94058E-002	4.47574E-001	4.30047E-002	4.96521E+001	11	...........	7.17753E-002	-5.29097E-003	6.00780E-001	5.48086E-001	-2.80021E-002	-3.90760E-002	6.93770E-001	-4.39369E-002	3.22289E-003	-2.37578E-004	2.69766E-002	2.46105E-002	-1.25737E-003	-1.75461E-003	3.11520E-002	-1.97288E-003
	28	28	1.10019E+000	4.44865E-002	0.00000E+000	4.89435E-002	4.43439E-001	4.29967E-002	4.96876E+001	11	...........	7.17472E-002	-5.16347E-003	6.00917E-001	5.48093E-001	-2.79892E-002	-3.90596E-002	6.93701E-001	-4.40035E-002	3.19178E-003	-2.29705E-004	2.67327E-002	2.43827E-002	-1.24514E-003	-1.73762E-003	3.08603E-002	-1.95756E-003
	29	29	1.10018E+000	4.47183E-002	0.00000E+000	4.91984E-002	4.45745E-001	4.29614E-002	4.97052E+001	11	...........	7.16625E-002	-5.14861E-003	6.00952E-001	5.48181E-001	-2.79812E-002	-3.90482E-002	6.93747E-001	-4.40529E-002	3.20462E-003	-2.30237E-004	2.68735E-002	2.45137E-002	-1.25127E-003	-1.74617E-003	3.10232E-002	-1.96997E-003
	30	30	1.10029E+000	4.44649E-002	0.00000E+000	4.89241E-002	4.43225E-001	4.28980E-002	4.96483E+001	11	...........	7.15776E-002	-5.16056E-003	6.00925E-001	5.48188E-001	-2.80218E-002	-3.90518E-002	6.93762E-001	-4.39603E-002	3.18269E-003	-2.29464E-004	2.67201E-002	2.43752E-002	-1.24599E-003	-1.73644E-003	3.08481E-002	-1.95469E-003
	31	31	1.10019E+000	4.40436E-002	0.00000E+000	4.84564E-002	4.39037E-001	4.28819E-002	4.86176E+001	11	...........	7.15633E-002	-5.24792E-003	6.00982E-001	5.48107E-001	-2.80206E-002	-3.90721E-002	6.93765E-001	-4.38815E-002	3.15191E-003	-2.31137E-004	2.64694E-002	2.41406E-002	-1.23413E-003	-1.72088E-003	3.05559E-002	-1.93270E-003
	32	32	1.10018E+000	4.43225E-002	0.00000E+000	4.87629E-002	4.41811E-001	4.27900E-002	4.91985E+001	11	...........	7.13899E-002	-5.30111E-003	6.01132E-001	5.48038E-001	-2.79810E-002	-3.90492E-002	6.93761E-001	-4.38681E-002	3.16418E-003	-2.34958E-004	2.66437E-002	2.42904E-002	-1.24019E-003	-1.73076E-003	3.07492E-002	-1.94434E-003
	33	33	1.10028E+000	4.41278E-002	0.00000E+000	4.85531E-002	4.39877E-001	4.28847E-002	4.92080E+001	11	...........	7.15503E-002	-5.21583E-003	6.01113E-001	5.48043E-001	-2.79453E-002	-3.90542E-002	6.93784E-001	-4.38799E-002	3.15736E-003	-2.30163E-004	2.65258E-002	2.41839E-002	-1.23316E-003	-1.72337E-003	3.06152E-002	-1.93632E-003
	34	34	1.10020E+000	4.37182E-002	0.00000E+000	4.80986E-002	4.35801E-001	4.27729E-002	4.91997E+001	11	...........	7.13785E-002	-5.17750E-003	6.01105E-001	5.47913E-001	-2.79058E-002	-3.90644E-002	6.93718E-001	-4.38635E-002	3.12054E-003	-2.26351E-004	2.62793E-002	2.39538E-002	-1.21999E-003	-1.70783E-003	3.03281E-002	-1.91763E-003
	35	35	1.10018E+000	4.39529E-002	0.00000E+000	4.83562E-002	4.38134E-001	4.27626E-002	4.91507E+001	11	...........	7.13535E-002	-5.12625E-003	6.01050E-001	5.47921E-001	-2.79143E-002	-3.90568E-002	6.93721E-001	-4.39050E-002	3.13619E-003	-2.25314E-004	2.64179E-002	2.40827E-002	-1.22692E-003	-1.71666E-003	3.04911E-002	-1.92975E-003
	36	36	1.10028E+000	4.37947E-002	0.00000E+000	4.81865E-002	4.36560E-001	4.27652E-002	4.91502E+001	11	...........	7.13562E-002	-5.09472E-003	6.00986E-001	5.48099E-001	-2.79156E-002	-3.90526E-002	6.93714E-001	-4.39143E-002	3.12503E-003	-2.23122E-004	2.63200E-002	2.40039E-002	-1.22255E-003	-1.71030E-003	3.03810E-002	-1.92322E-003
	37	37	1.10020E+000	4.33565E-002	0.00000E+000	4.77007E-002	4.32201E-001	4.26966E-002	4.90833E+001	11	...........	7.12414E-002	-5.16153E-003	6.00873E-001	5.48168E-001	-2.79269E-002	-3.90526E-002	6.93740E-001	-4.39246E-002	3.08878E-003	-2.23786E-004	2.60517E-002	2.37666E-002	-1.21081E-003	-1.69319E-003	3.00781E-002	-1.90442E-003
	38	38	1.10018E+000	4.35805E-002	0.00000E+000	4.79465E-002	4.34430E-001	4.26863E-002	4.90483E+001	11	...........	7.12244E-002	-5.29444E-003	6.00928E-001	5.48142E-001	-2.79236E-002	-3.90657E-002	6.93717E-001	-4.39971E-002	3.10400E-003	-2.30735E-004	2.61888E-002	2.38883E-002	-1.21692E-003	-1.70250E-003	3.02326E-002	-1.91741E-003
	39	39	1.10028E+000	4.34280E-002	0.00000E+000	4.77828E-002	4.32914E-001	4.26621E-002	4.90946E+001	11	...........	7.11779E-002	-5.21181E-003	6.01002E-001	5.48018E-001	-2.79254E-002	-3.90775E-002	6.93559E-001	-4.39585E-002	3.09111E-003	-2.26338E-004	2.61003E-002	2.37993E-002	-1.21274E-003	-1.69706E-003	3.01198E-002	-1.90903E-003
	40	40	1.10020E+000	4.29945E-002	0.00000E+000	4.73027E-002	4.28607E-001	4.26384E-002	4.91060E+001	11	...........	7.11387E-002	-5.15556E-003	6.00947E-001	5.47923E-001	-2.79314E-002	-3.90681E-002	6.93505E-001	-4.39293E-002	3.05857E-003	-2.21661E-004	2.58374E-002	2.35577E-002	-1.20090E-003	-1.67971E-003	2.98169E-002	-1.88872E-003
	41	41	1.10018E+000	4.32215E-002	0.00000E+000	4.75514E-002	4.30867E-001	4.25872E-002	4.91190E+001	11	...........	7.10699E-002	-5.18667E-003	6.00887E-001	5.48171E-001	-2.79186E-002	-3.90940E-002	6.93567E-001	-4.39129E-002	3.07175E-003	-2.24175E-004	2.59712E-002	2.36928E-002	-1.20668E-003	-1.68970E-003	2.99770E-002	-1.89798E-003
	42	42	1.10028E+000	4.30949E-002	0.00000E+000	4.74163E-002	4.29604E-001	4.25776E-002	4.91142E+001	11	...........	7.10511E-002	-5.18556E-003	6.00829E-001	5.48258E-001	-2.79025E-002	-3.90842E-002	6.93631E-001	-4.39428E-002	3.06194E-003	-2.23471E-004	2.58927E-002	2.36271E-002	-1.20246E-003	-1.68433E-003	2.98920E-002	-1.89371E-003
	43	43	1.10021E+000	4.26237E-002	0.00000E+000	4.68948E-002	4.24918E-001	4.25259E-002	4.91100E+001	11	...........	7.09564E-002	-5.17639E-003	6.00796E-001	5.48265E-001	-2.79000E-002	-3.90731E-002	6.93617E-001	-4.38806E-002	3.02442E-003	-2.20637E-004	2.56081E-002	2.33691E-002	-1.18920E-003	-1.66544E-003	2.95645E-002	-1.87035E-003
	44	44	1.10018E+000	4.28857E-002	0.00000E+000	4.71819E-002	4.27524E-001	4.24566E-002	4.90757E+001	11	...........	7.08750E-002	-5.17833E-003	6.00750E-001	5.48302E-001	-2.78753E-002	-3.90585E-002	6.93529E-001	-4.38101E-002	3.03952E-003	-2.22076E-004	2.57635E-002	2.35143E-002	-1.19545E-003	-1.67505E-003	2.97424E-002	-1.87883E-003
	45	45	1.10027E+000	4.27343E-002	0.00000E+000	4.70194E-002	4.26022E-001	4.24721E-002	4.91286E+001	11	...........	7.08843E-002	-5.17639E-003	6.00760E-001	5.48391E-001	-2.78950E-002	-3.90032E-002	6.93602E-001	-4.38658E-002	3.02919E-003	-2.21209E-004	2.56731E-002	2.34351E-002	-1.19207E-003	-1.66677E-003	2.96406E-002	-1.87457E-003
	46	46	1.10021E+000	4.22802E-002	0.00000E+000	4.65171E-002	4.21502E-001	4.24524E-002	4.90365E+001	11	...........	7.08582E-002	-5.23778E-003	6.00860E-001	5.48392E-001	-2.79169E-002	-3.90169E-002	6.93522E-001	-4.38660E-002	2.99590E-003	-2.21454E-004	2.54045E-002	2.31861E-002	-1.18033E-003	-1.64964E-003	2.93222E-002	-1.85466E-003
	47	47	1.10018E+000	4.24658E-002	0.00000E+000	4.67202E-002	4.23349E-001	4.23247E-002	4.61921E+001	11	...........	7.06371E-002	-5.15042E-003	6.00847E-001	5.48321E-001	-2.78846E-002	-3.90289E-002	6.93354E-001	-4.39067E-002	2.99966E-003	-2.18717E-004	2.55154E-002	2.32849E-002	-1.18414E-003	-1.65739E-003	2.94438E-002	-1.86453E-003
	48	48	1.10027E+000	4.23890E-002	0.00000E+000	4.66392E-002	4.22588E-001	4.22039E-002	4.85624E+001	11	...........	7.04429E-002	-5.15847E-003	6.00812E-001	5.48476E-001	-2.78893E-002	-3.90087E-002	6.93391E-001	-4.39294E-002	2.98601E-003	-2.18663E-004	2.54678E-002	2.32494E-002	-1.18220E-003	-1.65354E-003	2.93922E-002	-1.86213E-003
	49	49	1.10021E+000	4.19439E-002	0.00000E+000	4.61473E-002	4.18156E-001	4.23378E-002	4.92365E+001	11	...........	7.06642E-002	-5.31694E-003	6.00959E-001	5.48593E-001	-2.79004E-002	-3.90200E-002	6.93558E-001	-4.38225E-002	2.96393E-003	-2.23014E-004	2.52066E-002	2.30101E-002	-1.17025E-003	-1.63665E-003	2.90906E-002	-1.83809E-003
	50	50	1.10018E+000	4.22074E-002	0.00000E+000	4.64355E-002	4.20776E-001	4.22896E-002	4.92858E+001	11	...........	7.05781E-002	-5.26694E-003	6.00900E-001	5.48584E-001	-2.79000E-002	-3.90196E-002	6.93543E-001	-4.39312E-002	2.97891E-003	-2.22304E-004	2.53624E-002	2.31543E-002	-1.17759E-003	-1.64691E-003	2.92726E-002	-1.85422E-003
	51	51	1.10027E+000	4.21184E-002	0.00000E+000	4.63416E-002	4.19888E-001	4.22892E-002	4.94051E+001	11	...........	7.05956E-002	-5.23278E-003	6.00851E-001	5.48668E-001	-2.78614E-002	-3.90056E-002	6.93577E-001	-4.39219E-002	2.97337E-003	-2.20396E-004	2.53069E-002	2.31090E-002	-1.17348E-003	-1.64285E-003	2.92124E-002	-1.84992E-003
	52	52	1.10022E+000	4.16032E-002	0.00000E+000	4.57726E-002	4.14767E-001	4.22452E-002	4.94036E+001	11	...........	7.04968E-002	-5.29708E-003	6.00971E-001	5.48594E-001	-2.78317E-002	-3.89912E-002	6.93665E-001	-4.39408E-002	2.93290E-003	-2.20376E-004	2.50023E-002	2.28233E-002	-1.15789E-003	-1.62216E-003	2.88587E-002	-1.82808E-003
	53	53	1.10017E+000	4.18515E-002	0.00000E+000	4.60439E-002	4.17235E-001	4.21907E-002	4.93358E+001	11	...........	7.04093E-002	-5.28333E-003	6.00911E-001	5.48527E-001	-2.78469E-002	-3.89792E-002	6.93607E-001	-4.39469E-002	2.94673E-003	-2.21115E-004	2.51490E-002	2.29567E-002	-1.16544E-003	-1.63133E-003	2.90285E-002	-1.83924E-003
	54	54	1.10026E+000	4.17641E-002	0.00000E+000	4.59515E-002	4.16365E-001	4.21999E-002	4.93523E+001	11	...........	7.04200E-002	-5.32903E-003	6.00858E-001	5.48592E-001	-2.78399E-002	-3.90015E-002	6.93575E-001	-4.38689E-002	2.94103E-003	-2.22562E-004	2.50943E-002	2.29115E-002	-1.16271E-003	-1.62886E-003	2.89665E-002	-1.83214E-003
	55	55	1.10022E+000	4.12818E-002	0.00000E+000	4.54192E-002	4.11568E-001	4.21808E-002	4.93868E+001	11	...........	7.03847E-002	-5.31111E-003	6.00869E-001	5.48635E-001	-2.78312E-002	-3.90079E-002	6.93541E-001	-4.38814E-002	2.90561E-003	-2.19252E-004	2.48049E-002	2.26486E-002	-1.14892E-003	-1.61032E-003	2.86306E-002	-1.81150E-003
	56	56	1.10017E+000	4.15472E-002	0.00000E+000	4.57091E-002	4.14206E-001	4.21012E-002	4.93528E+001	11	...........	7.02367E-002	-5.24014E-003	6.01019E-001	5.48597E-001	-2.78204E-002	-3.89728E-002	6.93649E-001	-4.39632E-002	2.91814E-003	-2.17713E-004	2.49707E-002	2.27927E-002	-1.15586E-003	-1.61921E-003	2.88192E-002	-1.82655E-003
	57	57	1.10026E+000	4.14436E-002	0.00000E+000	4.55988E-002	4.13176E-001	4.21131E-002	4.93946E+001	11	...........	7.02569E-002	-5.27875E-003	6.00913E-001	5.48672E-001	-2.78661E-002	-3.89456E-002	6.93555E-001	-4.40279E-002	2.91170E-003	-2.18770E-004	2.49040E-002	2.27389E-002	-1.15487E-003	-1.61404E-003	2.87434E-002	-1.82468E-003
	58	58	1.10023E+000	4.09770E-002	0.00000E+000	4.50840E-002	4.08535E-001	4.21186E-002	4.93966E+001	11	...........	7.02651E-002	-5.24403E-003	6.01023E-001	5.48853E-001	-2.78994E-002	-3.89078E-002	6.93661E-001	-4.39982E-002	2.87925E-003	-2.14884E-004	2.46281E-002	2.24904E-002	-1.14324E-003	-1.59432E-003	2.84242E-002	-1.80291E-003
	59	59	1.10017E+000	4.12157E-002	0.00000E+000	4.53444E-002	4.10916E-001	4.20498E-002	4.93879E+001	11	...........	7.01601E-002	-5.11181E-003	6.01091E-001	5.48773E-001	-2.78937E-002	-3.88883E-002	6.93654E-001	-4.40464E-002	2.89170E-003	-2.10686E-004	2.47744E-002	2.26181E-002	-1.14966E-003	-1.60281E-003	2.85894E-002	-1.81540E-003
	60	60	1.10026E+000	4.11379E-002	0.00000E+000	4.52623E-002	4.10144E-001	4.19970E-002	4.93518E+001	11	...........	7.00685E-002	-5.19583E-003	6.01087E-001	5.48721E-001	-2.78487E-002	-3.88493E-002	6.93530E-001	-4.39476E-002	2.88247E-003	-2.13746E-004	2.47274E-002	2.25732E-002	-1.14564E-003	-1.59818E-003	2.85304E-002	-1.80791E-003
	61	61	1.10023E+000	4.06565E-002	0.00000E+000	4.47315E-002	4.05360E-001	4.20027E-002	4.94031E+001	11	...........	7.00956E-002	-5.26431E-003	6.01149E-001	5.48696E-001	-2.78335E-002	-3.88415E-002	6.93587E-001	-4.40239E-002	2.84984E-003	-2.14028E-004	2.44406E-002	2.23081E-002	-1.13161E-003	-1.57916E-003	2.81988E-002	-1.78986E-003
	62	62	1.10017E+000	4.08715E-002	0.00000E+000	4.49657E-002	4.07494E-001	4.19737E-002	4.94509E+001	11	...........	7.00560E-002	-5.33125E-003	6.01238E-001	5.48567E-001	-2.78422E-002	-3.88461E-002	6.93378E-001	-4.40867E-002	2.86329E-003	-2.17896E-004	2.45735E-002	2.24208E-002	-1.13795E-003	-1.58770E-003	2.83394E-002	-1.80189E-003
	63	63	1.10026E+000	4.08044E-002	0.00000E+000	4.48954E-002	4.06827E-001	4.19258E-002	4.75956E+001	11	...........	6.99565E-002	-5.21375E-003	6.01276E-001	5.48544E-001	-2.78946E-002	-3.88432E-002	6.93477E-001	-4.40654E-002	2.85454E-003	-2.12744E-004	2.45347E-002	2.23830E-002	-1.13822E-003	-1.58497E-003	2.82969E-002	-1.79806E-003
	64	64	1.10023E+000	4.03325E-002	0.00000E+000	4.43751E-002	4.02136E-001	4.17593E-002	4.88498E+001	11	...........	6.96924E-002	-5.27972E-003	6.01157E-001	5.48711E-001	-2.79172E-002	-3.88556E-002	6.93399E-001	-4.41100E-002	2.81087E-003	-2.12944E-004	2.42462E-002	2.21309E-002	-1.12597E-003	-1.56714E-003	2.79665E-002	-1.77907E-003
	65	65	1.10017E+000	4.05790E-002	0.00000E+000	4.46439E-002	4.04581E-001	4.19008E-002	4.93175E+001	11	...........	6.99206E-002	-5.30194E-003	6.01058E-001	5.48815E-001	-2.79308E-002	-3.88558E-002	6.93480E-001	-4.41278E-002	2.83731E-003	-2.15148E-004	2.43904E-002	2.22704E-002	-1.13341E-003	-1.57673E-003	2.81408E-002	-1.79066E-003
	66	66	1.10025E+000	4.05483E-002	0.00000E+000	4.46133E-002	4.04280E-001	4.18247E-002	4.93267E+001	11	...........	6.98060E-002	-5.22361E-003	6.01060E-001	5.48936E-001	-2.79253E-002	-3.88849E-002	6.93433E-001	-4.39647E-002	2.83051E-003	-2.11808E-004	2.43720E-002	2.22584E-002	-1.13232E-003	-1.57671E-003	2.81175E-002	-1.78269E-003
	67	67	1.10024E+000	4.00641E-002	0.00000E+000	4.40801E-002	3.99467E-001	4.17951E-002	4.93027E+001	11	...........	6.97592E-002	-5.27764E-003	6.01093E-001	5.49032E-001	-2.79747E-002	-3.89028E-002	6.93585E-001	-4.40128E-002	2.79483E-003	-2.11444E-004	2.40822E-002	2.19964E-002	-1.12078E-003	-1.55860E-003	2.77878E-002	-1.76333E-003
	68	68	1.10017E+000	4.01858E-002	0.00000E+000	4.42113E-002	4.00673E-001	4.17707E-002	4.93299E+001	11	...........	6.97132E-002	-5.23097E-003	6.00935E-001	5.49065E-001	-2.80125E-002	-3.89140E-002	6.93505E-001	-4.39264E-002	2.80148E-003	-2.10211E-004	2.41491E-002	2.20646E-002	-1.12571E-003	-1.56379E-003	2.78691E-002	-1.76522E-003
	69	69	1.10025E+000	4.01061E-002	0.00000E+000	4.41267E-002	3.99883E-001	4.17552E-002	4.93714E+001	11	...........	6.96807E-002	-5.16597E-003	6.00943E-001	5.48942E-001	-2.79321E-002	-3.89015E-002	6.93460E-001	-4.40043E-002	2.79462E-003	-2.07187E-004	2.41015E-002	2.20159E-002	-1.12025E-003	-1.56019E-003	2.78120E-002	-1.76484E-003
	70	70	1.10024E+000	3.96490E-002	0.00000E+000	4.36236E-002	3.95341E-001	4.17012E-002	4.93626E+001	11	...........	6.95857E-002	-5.22653E-003	6.00792E-001	5.49010E-001	-2.79046E-002	-3.88929E-002	6.93577E-001	-4.39737E-002	2.75901E-003	-2.07227E-004	2.38208E-002	2.17677E-002	-1.10639E-003	-1.54207E-003	2.74997E-002	-1.74352E-003
	71	71	1.10017E+000	3.99399E-002	0.00000E+000	4.39406E-002	3.98230E-001	4.16982E-002	4.93093E+001	11	...........	6.95833E-002	-5.38000E-003	6.00839E-001	5.48943E-001	-2.79583E-002	-3.89069E-002	6.93560E-001	-4.39756E-002	2.77915E-003	-2.14877E-004	2.39975E-002	2.19247E-002	-1.11665E-003	-1.55394E-003	2.77007E-002	-1.75638E-003
	72	72	1.10025E+000	3.99213E-002	0.00000E+000	4.39233E-002	3.98050E-001	4.16405E-002	4.93394E+001	11	...........	6.94899E-002	-5.32292E-003	6.00733E-001	5.48828E-001	-2.79864E-002	-3.88961E-002	6.93578E-001	-4.40933E-002	2.77413E-003	-2.12498E-004	2.39820E-002	2.19100E-002	-1.11725E-003	-1.55278E-003	2.76885E-002	-1.76026E-003
	73	73	1.10025E+000	3.93951E-002	0.00000E+000	4.33444E-002	3.92815E-001	4.16149E-002	4.93810E+001	11	...........	6.94732E-002	-5.20319E-003	6.00695E-001	5.48757E-001	-2.79335E-002	-3.89303E-002	6.93633E-001	-4.39887E-002	2.73690E-003	-2.04980E-004	2.36644E-002	2.16183E-002	-1.10044E-003	-1.53366E-003	2.73257E-002	-1.73294E-003
	74	74	1.10017E+000	3.95906E-002	0.00000E+000	4.35563E-002	3.94758E-001	4.16281E-002	4.82249E+001	11	...........	6.94956E-002	-5.19917E-003	6.00799E-001	5.48652E-001	-2.79554E-002	-3.89144E-002	6.93532E-001	-4.40207E-002	2.75137E-003	-2.05838E-004	2.37860E-002	2.17215E-002	-1.10677E-003	-1.54065E-003	2.74574E-002	-1.74281E-003
	75	75	1.10024E+000	3.95853E-002	0.00000E+000	4.35533E-002	3.94703E-001	4.13684E-002	4.81411E+001	11	...........	6.90361E-002	-5.15792E-003	6.00754E-001	5.48774E-001	-2.79701E-002	-3.89063E-002	6.93534E-001	-4.40817E-002	2.73281E-003	-2.04178E-004	2.37810E-002	2.17234E-002	-1.10721E-003	-1.54012E-003	2.74537E-002	-1.74499E-003
	76	76	1.10026E+000	3.91785E-002	0.00000E+000	4.31064E-002	3.90665E-001	4.17055E-002	4.91960E+001	11	...........	6.96028E-002	-5.17236E-003	6.00580E-001	5.49021E-001	-2.79347E-002	-3.89047E-002	6.93449E-001	-4.41261E-002	2.72693E-003	-2.02645E-004	2.35298E-002	2.15098E-002	-1.09444E-003	-1.52423E-003	2.71683E-002	-1.72879E-003
	77	77	1.10016E+000	3.93629E-002	0.00000E+000	4.33057E-002	3.92493E-001	4.15816E-002	4.93250E+001	11	...........	6.94012E-002	-5.27111E-003	6.00591E-001	5.48861E-001	-2.78792E-002	-3.89018E-002	6.93427E-001	-4.41311E-002	2.73183E-003	-2.07486E-004	2.36410E-002	2.16047E-002	-1.09740E-003	-1.53129E-003	2.72953E-002	-1.73713E-003
	78	78	1.10024E+000	3.93109E-002	0.00000E+000	4.32513E-002	3.91975E-001	4.15481E-002	4.93136E+001	11	...........	6.93493E-002	-5.37792E-003	6.00708E-001	5.48891E-001	-2.78981E-002	-3.89161E-002	6.93433E-001	-4.40158E-002	2.72618E-003	-2.11411E-004	2.36144E-002	2.15774E-002	-1.09670E-003	-1.52983E-003	2.72595E-002	-1.73030E-003
	79	79	1.10026E+000	3.88701E-002	0.00000E+000	4.27672E-002	3.87594E-001	4.15138E-002	4.92349E+001	11	...........	6.92871E-002	-5.26472E-003	6.00816E-001	5.48993E-001	-2.79683E-002	-3.89029E-002	6.93361E-001	-4.38614E-002	2.69320E-003	-2.04640E-004	2.33538E-002	2.13394E-002	-1.08713E-003	-1.51216E-003	2.69510E-002	-1.70490E-003
	80	80	1.10016E+000	3.90824E-002	0.00000E+000	4.29971E-002	3.89706E-001	4.15008E-002	4.74854E+001	11	...........	6.92533E-002	-5.30292E-003	6.00922E-001	5.48972E-001	-2.79829E-002	-3.89082E-002	6.93214E-001	-4.39443E-002	2.70659E-003	-2.07251E-004	2.34855E-002	2.14551E-002	-1.09364E-003	-1.52063E-003	2.70924E-002	-1.71745E-003
	81	81	1.10023E+000	3.90091E-002	0.00000E+000	4.29191E-002	3.88974E-001	4.12923E-002	4.86521E+001	11	...........	6.88982E-002	-5.17250E-003	6.00701E-001	5.48834E-001	-2.79703E-002	-3.88842E-002	6.93303E-001	-4.39347E-002	2.68765E-003	-2.01774E-004	2.34328E-002	2.14095E-002	-1.09109E-003	-1.51684E-003	2.70451E-002	-1.71385E-003
	82	82	1.10026E+000	3.86327E-002	0.00000E+000	4.25062E-002	3.85232E-001	4.15450E-002	4.91501E+001	11	...........	6.93449E-002	-5.14181E-003	6.00754E-001	5.48914E-001	-2.79417E-002	-3.88958E-002	6.93336E-001	-4.41633E-002	2.67898E-003	-1.98642E-004	2.32088E-002	2.12060E-002	-1.07946E-003	-1.50265E-003	2.67855E-002	-1.70615E-003
	83	83	1.10016E+000	3.87758E-002	0.00000E+000	4.26597E-002	3.86653E-001	4.14062E-002	4.91839E+001	11	...........	6.91182E-002	-5.15222E-003	6.00660E-001	5.48933E-001	-2.79643E-002	-3.88724E-002	6.93242E-001	-4.40519E-002	2.68012E-003	-1.99782E-004	2.32911E-002	2.12853E-002	-1.08434E-003	-1.50731E-003	2.68810E-002	-1.70815E-003
	84	84	1.10023E+000	3.87806E-002	0.00000E+000	4.26676E-002	3.86700E-001	4.13736E-002	4.91974E+001	11	...........	6.90433E-002	-5.20736E-003	6.00688E-001	5.48968E-001	-2.79672E-002	-3.89226E-002	6.93366E-001	-4.39028E-002	2.67754E-003	-2.01944E-004	2.32950E-002	2.12893E-002	-1.08458E-003	-1.50944E-003	2.68891E-002	-1.70257E-003
	85	85	1.10027E+000	3.83143E-002	0.00000E+000	4.21560E-002	3.82063E-001	4.13557E-002	4.92152E+001	11	...........	6.90176E-002	-5.19639E-003	6.00819E-001	5.49046E-001	-2.79261E-002	-3.89557E-002	6.93445E-001	-4.38471E-002	2.64436E-003	-1.99096E-004	2.30200E-002	2.10363E-002	-1.06997E-003	-1.49256E-003	2.65689E-002	-1.67997E-003
	86	86	1.10016E+000	3.84444E-002	0.00000E+000	4.22950E-002	3.83358E-001	4.13480E-002	4.92185E+001	11	...........	6.89975E-002	-5.25083E-003	6.00828E-001	5.48962E-001	-2.78828E-002	-3.89936E-002	6.93441E-001	-4.38649E-002	2.65256E-003	-2.01865E-004	2.30984E-002	2.11045E-002	-1.07194E-003	-1.49908E-003	2.66589E-002	-1.68636E-003
	87	87	1.10023E+000	3.84833E-002	0.00000E+000	4.23404E-002	3.83749E-001	4.13212E-002	4.91786E+001	11	...........	6.89436E-002	-5.15875E-003	6.00937E-001	5.48714E-001	-2.78887E-002	-3.89756E-002	6.93435E-001	-4.39221E-002	2.65318E-003	-1.98526E-004	2.31261E-002	2.11163E-002	-1.07325E-003	-1.49991E-003	2.66857E-002	-1.69027E-003
	88	88	1.10027E+000	3.80204E-002	0.00000E+000	4.18327E-002	3.79149E-001	4.12767E-002	4.91586E+001	11	...........	6.88883E-002	-5.14694E-003	6.00875E-001	5.48838E-001	-2.79200E-002	-3.89568E-002	6.93411E-001	-4.39506E-002	2.61916E-003	-1.95689E-004	2.28455E-002	2.08670E-002	-1.06153E-003	-1.48115E-003	2.63638E-002	-1.67102E-003
	89	89	1.10016E+000	3.81535E-002	0.00000E+000	4.19750E-002	3.80469E-001	4.12606E-002	4.91262E+001	11	...........	6.88547E-002	-5.02292E-003	6.00885E-001	5.48834E-001	-2.79412E-002	-3.89332E-002	6.93496E-001	-4.38551E-002	2.62705E-003	-1.91642E-004	2.29258E-002	2.09399E-002	-1.06606E-003	-1.48544E-003	2.64593E-002	-1.67323E-003
	90	90	1.10023E+000	3.82129E-002	0.00000E+000	4.20428E-002	3.81059E-001	4.12037E-002	4.91717E+001	11	...........	6.87708E-002	-5.07083E-003	6.00774E-001	5.48868E-001	-2.79558E-002	-3.89119E-002	6.93501E-001	-4.39365E-002	2.62793E-003	-1.93771E-004	2.29573E-002	2.09738E-002	-1.06827E-003	-1.48694E-003	2.65007E-002	-1.67894E-003
	91	91	1.10028E+000	3.77527E-002	0.00000E+000	4.15384E-002	3.76484E-001	4.12253E-002	4.92334E+001	11	...........	6.87940E-002	-5.17847E-003	6.00575E-001	5.48939E-001	-2.78964E-002	-3.89039E-002	6.93667E-001	-4.40353E-002	2.59716E-003	-1.95501E-004	2.26733E-002	2.07239E-002	-1.05316E-003	-1.46873E-003	2.61878E-002	-1.66245E-003
	92	92	1.10016E+000	3.78730E-002	0.00000E+000	4.16664E-002	3.77685E-001	4.12225E-002	4.93132E+001	11	...........	6.87901E-002	-5.08417E-003	6.00644E-001	5.49039E-001	-2.79192E-002	-3.89040E-002	6.93550E-001	-4.39926E-002	2.60529E-003	-1.92553E-004	2.27482E-002	2.07937E-002	-1.05738E-003	-1.47341E-003	2.62668E-002	-1.66613E-003
	93	93	1.10022E+000	3.79234E-002	0.00000E+000	4.17242E-002	3.78191E-001	4.11818E-002	4.92978E+001	11	...........	6.87140E-002	-5.12833E-003	6.00654E-001	5.49166E-001	-2.79475E-002	-3.88792E-002	6.93523E-001	-4.39306E-002	2.60587E-003	-1.94484E-004	2.27789E-002	2.08262E-002	-1.05986E-003	-1.47443E-003	2.63008E-002	-1.66600E-003
	94	94	1.10028E+000	3.74852E-002	0.00000E+000	4.12441E-002	3.73831E-001	4.11642E-002	4.92771E+001	11	...........	6.86833E-002	-5.18333E-003	6.00830E-001	5.49302E-001	-2.79562E-002	-3.89017E-002	6.93563E-001	-4.39406E-002	2.57461E-003	-1.94298E-004	2.25223E-002	2.05907E-002	-1.04795E-003	-1.45824E-003	2.59984E-002	-1.64712E-003
	95	95	1.10016E+000	3.76034E-002	0.00000E+000	4.13697E-002	3.75005E-001	4.11410E-002	4.93387E+001	11	...........	6.86431E-002	-5.29208E-003	6.00998E-001	5.49502E-001	-2.78978E-002	-3.89097E-002	6.93724E-001	-4.40856E-002	2.58121E-003	-1.99000E-004	2.25996E-002	2.06632E-002	-1.04905E-003	-1.46314E-003	2.60864E-002	-1.65777E-003
	96	96	1.10022E+000	3.76633E-002	0.00000E+000	4.14379E-002	3.75601E-001	4.10747E-002	4.88574E+001	11	...........	6.85504E-002	-5.13361E-003	6.01224E-001	5.49556E-001	-2.78636E-002	-3.88776E-002	6.93633E-001	-4.40365E-002	2.58183E-003	-1.93349E-004	2.26441E-002	2.06981E-002	-1.04944E-003	-1.46426E-003	2.61245E-002	-1.65856E-003
	97	97	1.10028E+000	3.71562E-002	0.00000E+000	4.08823E-002	3.70558E-001	4.10226E-002	4.77414E+001	11	...........	6.84528E-002	-5.13750E-003	6.01328E-001	5.49556E-001	-2.78492E-002	-3.89011E-002	6.93695E-001	-4.40508E-002	2.54345E-003	-1.90890E-004	2.23431E-002	2.04194E-002	-1.03477E-003	-1.44542E-003	2.57751E-002	-1.63676E-003
	98	98	1.10016E+000	3.73178E-002	0.00000E+000	4.10555E-002	3.72162E-001	4.09647E-002	4.82023E+001	11	...........	6.83499E-002	-5.15347E-003	6.01169E-001	5.49586E-001	-2.78858E-002	-3.88601E-002	6.93556E-001	-4.41028E-002	2.55067E-003	-1.92316E-004	2.24343E-002	2.05093E-002	-1.04064E-003	-1.45018E-003	2.58820E-002	-1.64582E-003
	99	99	1.10022E+000	3.74037E-002	0.00000E+000	4.11522E-002	3.73021E-001	4.10553E-002	4.85450E+001	11	...........	6.85003E-002	-5.28569E-003	6.01198E-001	5.49651E-001	-2.79203E-002	-3.88654E-002	6.93586E-001	-4.40217E-002	2.56216E-003	-1.97704E-004	2.24870E-002	2.05590E-002	-1.04432E-003	-1.45371E-003	2.59427E-002	-1.64657E-003
	100	100	1.10028E+000	3.69221E-002	0.00000E+000	4.06247E-002	3.68228E-001	4.09079E-002	4.85031E+001	11	...........	6.82782E-002	-5.18125E-003	6.01110E-001	5.49758E-001	-2.79214E-002	-3.88771E-002	6.93739E-001	-4.41628E-002	2.52097E-003	-1.91302E-004	2.21942E-002	2.02982E-002	-1.03092E-003	-1.43542E-003	2.56143E-002	-1.63058E-003
	101	101	1.10016E+000	3.70187E-002	0.00000E+000	4.07265E-002	3.69188E-001	4.10628E-002	4.91947E+001	11	...........	6.85399E-002	-5.28875E-003	6.01140E-001	5.49918E-001	-2.79094E-002	-3.88992E-002	6.93837E-001	-4.39889E-002	2.53726E-003	-1.95783E-004	2.22534E-002	2.03573E-002	-1.03317E-003	-1.44000E-003	2.56850E-002	-1.62841E-003
	102	102	1.10022E+000	3.71016E-002	0.00000E+000	4.08198E-002	3.70009E-001	4.10270E-002	4.92593E+001	11	...........	6.84681E-002	-5.37861E-003	6.01195E-001	5.49993E-001	-2.79108E-002	-3.88764E-002	6.93877E-001	-4.40485E-002	2.54028E-003	-1.99555E-004	2.23053E-002	2.04056E-002	-1.03554E-003	-1.44238E-003	2.57440E-002	-1.63427E-003
	103	103	1.10029E+000	3.67031E-002	0.00000E+000	4.03839E-002	3.66045E-001	4.09257E-002	4.92080E+001	11	...........	6.82999E-002	-5.38139E-003	6.01218E-001	5.50129E-001	-2.79393E-002	-3.88864E-002	6.93812E-001	-4.41362E-002	2.50682E-003	-1.97514E-004	2.20666E-002	2.01915E-002	-1.02546E-003	-1.42725E-003	2.54651E-002	-1.61994E-003
	104	104	1.10016E+000	3.67585E-002	0.00000E+000	4.04402E-002	3.66603E-001	4.09042E-002	4.92017E+001	11	...........	6.82765E-002	-5.26458E-003	6.01122E-001	5.50038E-001	-2.79021E-002	-3.88917E-002	6.93866E-001	-4.40686E-002	2.50974E-003	-1.93518E-004	2.20963E-002	2.02186E-002	-1.02564E-003	-1.42960E-003	2.55055E-002	-1.61990E-003
	105	105	1.10021E+000	3.68142E-002	0.00000E+000	4.05035E-002	3.67152E-001	4.09446E-002	4.92999E+001	11	...........	6.83450E-002	-5.26056E-003	6.00946E-001	5.50018E-001	-2.78676E-002	-3.88710E-002	6.93890E-001	-4.41260E-002	2.51607E-003	-1.93663E-004	2.21234E-002	2.02485E-002	-1.02593E-003	-1.43100E-003	2.55450E-002	-1.62446E-003
	106	106	1.10029E+000	3.63395E-002	0.00000E+000	3.99838E-002	3.62435E-001	4.08353E-002	4.92953E+001	11	...........	6.81576E-002	-5.19625E-003	6.00898E-001	5.50119E-001	-2.78599E-002	-3.88640E-002	6.93830E-001	-4.41714E-002	2.47681E-003	-1.88829E-004	2.18363E-002	1.99910E-002	-1.01241E-003	-1.41230E-003	2.52134E-002	-1.60516E-003
	107	107	1.10016E+000	3.63634E-002	0.00000E+000	4.00056E-002	3.62673E-001	4.08951E-002	4.93238E+001	11	...........	6.82643E-002	-5.24250E-003	6.00899E-001	5.50019E-001	-2.78900E-002	-3.88586E-002	6.93778E-001	-4.40851E-002	2.48233E-003	-1.90635E-004	2.18507E-002	2.00006E-002	-1.01418E-003	-1.41303E-003	2.52282E-002	-1.60309E-003
	108	108	1.10021E+000	3.64669E-002	0.00000E+000	4.01213E-002	3.63699E-001	4.08274E-002	4.93705E+001	11	...........	6.81392E-002	-5.27875E-003	6.00783E-001	5.49913E-001	-2.79258E-002	-3.88374E-002	6.93830E-001	-4.40615E-002	2.48482E-003	-1.92500E-004	2.19087E-002	2.00536E-002	-1.01837E-003	-1.41628E-003	2.53018E-002	-1.60679E-003
	109	109	1.10029E+000	3.61211E-002	0.00000E+000	3.97435E-002	3.60260E-001	4.07984E-002	4.93253E+001	11	...........	6.81022E-002	-5.34319E-003	6.00742E-001	5.49837E-001	-2.79560E-002	-3.88635E-002	6.93817E-001	-4.40208E-002	2.45992E-003	-1.93002E-004	2.16994E-002	1.98607E-002	-1.00980E-003	-1.40379E-003	2.50614E-002	-1.59008E-003
	110	110	1.10016E+000	3.61472E-002	0.00000E+000	3.97677E-002	3.60522E-001	4.07642E-002	4.94290E+001	11	...........	6.80431E-002	-5.42444E-003	6.00637E-001	5.49769E-001	-2.79746E-002	-3.88907E-002	6.93856E-001	-4.41282E-002	2.45957E-003	-1.96079E-004	2.17114E-002	1.98726E-002	-1.01120E-003	-1.40579E-003	2.50810E-002	-1.59511E-003
	111	111	1.10021E+000	3.62549E-002	0.00000E+000	3.98882E-002	3.61593E-001	4.07917E-002	4.73095E+001	11	...........	6.80565E-002	-5.26347E-003	6.00702E-001	5.49706E-001	-2.79203E-002	-3.88822E-002	6.93704E-001	-4.41096E-002	2.46738E-003	-1.90827E-004	2.17784E-002	1.99295E-002	-1.01225E-003	-1.40967E-003	2.51502E-002	-1.59919E-003
	112	112	1.10029E+000	3.58275E-002	0.00000E+000	3.94205E-002	3.57342E-001	4.05548E-002	4.87359E+001	11	...........	6.76837E-002	-5.22361E-003	6.00650E-001	5.49791E-001	-2.79100E-002	-3.88522E-002	6.93742E-001	-4.38974E-002	2.42494E-003	-1.87149E-004	2.15198E-002	1.96976E-002	-9.99945E-004	-1.39198E-003	2.48550E-002	-1.57273E-003
	113	113	1.10016E+000	3.59146E-002	0.00000E+000	3.95118E-002	3.58208E-001	4.07557E-002	4.92845E+001	11	...........	6.80106E-002	-5.20056E-003	6.00892E-001	5.49607E-001	-2.79358E-002	-3.88596E-002	6.93811E-001	-4.38793E-002	2.44257E-003	-1.86776E-004	2.15808E-002	1.97389E-002	-1.00330E-003	-1.39563E-003	2.49179E-002	-1.57591E-003
	114	114	1.10021E+000	3.60263E-002	0.00000E+000	3.96364E-002	3.59320E-001	4.07063E-002	4.93160E+001	11	...........	6.79260E-002	-5.16083E-003	6.00998E-001	5.49495E-001	-2.78978E-002	-3.88678E-002	6.93854E-001	-4.39253E-002	2.44712E-003	-1.85925E-004	2.16517E-002	1.97962E-002	-1.00505E-003	-1.40026E-003	2.49969E-002	-1.58246E-003
	115	115	1.10029E+000	3.56520E-002	0.00000E+000	3.92275E-002	3.55597E-001	4.06408E-002	4.93293E+001	11	...........	6.78317E-002	-5.19764E-003	6.00898E-001	5.49493E-001	-2.78400E-002	-3.88921E-002	6.93769E-001	-4.41058E-002	2.41833E-003	-1.85306E-004	2.14232E-002	1.95905E-002	-9.92551E-004	-1.38658E-003	2.47342E-002	-1.57246E-003
	116	116	1.10016E+000	3.56243E-002	0.00000E+000	3.91925E-002	3.55322E-001	4.06328E-002	4.91481E+001	11	...........	6.78142E-002	-5.23417E-003	6.01034E-001	5.49512E-001	-2.78185E-002	-3.88886E-002	6.93660E-001	-4.40962E-002	2.41583E-003	-1.86464E-004	2.14114E-002	1.95760E-002	-9.91015E-004	-1.38538E-003	2.47112E-002	-1.57090E-003
	117	117	1.10021E+000	3.57546E-002	0.00000E+000	3.93375E-002	3.56617E-001	4.05824E-002	4.92577E+001	11	...........	6.77303E-002	-5.14028E-003	6.00986E-001	5.49466E-001	-2.78997E-002	-3.89167E-002	6.93643E-001	-4.39256E-002	2.42167E-003	-1.83789E-004	2.14880E-002	1.96460E-002	-9.97545E-004	-1.39145E-003	2.48010E-002	-1.57054E-003
	118	118	1.10029E+000	3.54138E-002	0.00000E+000	3.89655E-002	3.53228E-001	4.05964E-002	4.92868E+001	11	...........	6.77539E-002	-5.10500E-003	6.01055E-001	5.49382E-001	-2.79464E-002	-3.89515E-002	6.93690E-001	-4.39344E-002	2.39942E-003	-1.80788E-004	2.12857E-002	1.94557E-002	-9.89688E-004	-1.37942E-003	2.45662E-002	-1.55589E-003
	119	119	1.10016E+000	3.53975E-002	0.00000E+000	3.89430E-002	3.53067E-001	4.05947E-002	4.93600E+001	11	...........	6.77511E-002	-5.17556E-003	6.01054E-001	5.49416E-001	-2.79550E-002	-3.89214E-002	6.93686E-001	-4.39633E-002	2.39822E-003	-1.83202E-004	2.12758E-002	1.94480E-002	-9.89537E-004	-1.37772E-003	2.45547E-002	-1.55619E-003
	120	120	1.10021E+000	3.54581E-002	0.00000E+000	3.90113E-002	3.53674E-001	4.05518E-002	4.93441E+001	11	...........	6.76847E-002	-5.18597E-003	6.01014E-001	5.49429E-001	-2.79478E-002	-3.89081E-002	6.93685E-001	-4.39324E-002	2.39997E-003	-1.83885E-004	2.13108E-002	1.94817E-002	-9.90976E-004	-1.37961E-003	2.45968E-002	-1.55776E-003
	121	121	1.10029E+000	3.51571E-002	0.00000E+000	3.86830E-002	3.50680E-001	4.05392E-002	4.93361E+001	11	...........	6.76565E-002	-5.15264E-003	6.00971E-001	5.49387E-001	-2.79562E-002	-3.89135E-002	6.93702E-001	-4.38487E-002	2.37861E-003	-1.81152E-004	2.11284E-002	1.93149E-002	-9.82861E-004	-1.36809E-003	2.43886E-002	-1.54160E-003
	122	122	1.10016E+000	3.51336E-002	0.00000E+000	3.86526E-002	3.50448E-001	4.05297E-002	4.93387E+001	11	...........	6.76487E-002	-5.23333E-003	6.01079E-001	5.49271E-001	-2.79219E-002	-3.89174E-002	6.93482E-001	-4.39751E-002	2.37674E-003	-1.83866E-004	2.11181E-002	1.92979E-002	-9.80998E-004	-1.36731E-003	2.43645E-002	-1.54500E-003
	123	123	1.10021E+000	3.52300E-002	0.00000E+000	3.87603E-002	3.51406E-001	4.05008E-002	4.93432E+001	11	...........	6.75968E-002	-5.26972E-003	6.01068E-001	5.49336E-001	-2.78972E-002	-3.89218E-002	6.93408E-001	-4.40608E-002	2.38144E-003	-1.85653E-004	2.11756E-002	1.93531E-002	-9.82820E-004	-1.37122E-003	2.44288E-002	-1.55226E-003
	124	124	1.10029E+000	3.48788E-002	0.00000E+000	3.83768E-002	3.47908E-001	4.04737E-002	4.93876E+001	11	...........	6.75386E-002	-5.19931E-003	6.00936E-001	5.49482E-001	-2.79422E-002	-3.89037E-002	6.93501E-001	-4.41090E-002	2.35566E-003	-1.81345E-004	2.09599E-002	1.91653E-002	-9.74590E-004	-1.35692E-003	2.41885E-002	-1.53847E-003
	125	125	1.10016E+000	3.48493E-002	0.00000E+000	3.83399E-002	3.47615E-001	4.04174E-002	4.93626E+001	11	...........	6.74346E-002	-5.19375E-003	6.00928E-001	5.49624E-001	-2.80007E-002	-3.89579E-002	6.93492E-001	-4.40300E-002	2.35005E-003	-1.80999E-004	2.09419E-002	1.91540E-002	-9.75805E-004	-1.35766E-003	2.41677E-002	-1.53441E-003
	126	126	1.10021E+000	3.49823E-002	0.00000E+000	3.84877E-002	3.48942E-001	4.04570E-002	4.94232E+001	11	...........	6.75185E-002	-5.25861E-003	6.00903E-001	5.49653E-001	-2.79851E-002	-3.89408E-002	6.93388E-001	-4.42525E-002	2.36195E-003	-1.83958E-004	2.10210E-002	1.92281E-002	-9.78985E-004	-1.36224E-003	2.42563E-002	-1.54805E-003
	127	127	1.10029E+000	3.46577E-002	0.00000E+000	3.81335E-002	3.45711E-001	4.04103E-002	4.92567E+001	11	...........	6.74258E-002	-5.21361E-003	6.00957E-001	5.49750E-001	-2.79981E-002	-3.89174E-002	6.93472E-001	-4.40565E-002	2.33682E-003	-1.80692E-004	2.08278E-002	1.90531E-002	-9.70348E-004	-1.34879E-003	2.40342E-002	-1.52690E-003
	128	128	1.10016E+000	3.45137E-002	0.00000E+000	3.79708E-002	3.44276E-001	4.01933E-002	4.70333E+001	11	...........	6.70754E-002	-5.14319E-003	6.00986E-001	5.49870E-001	-2.80147E-002	-3.89443E-002	6.93538E-001	-4.38625E-002	2.31502E-003	-1.77511E-004	2.07422E-002	1.89781E-002	-9.66892E-004	-1.34411E-003	2.39366E-002	-1.51386E-003
	129	129	1.10020E+000	3.47690E-002	0.00000E+000	3.82530E-002	3.46815E-001	4.03544E-002	4.89959E+001	11	...........	6.73344E-002	-5.12458E-003	6.00901E-001	5.49861E-001	-2.79511E-002	-3.89439E-002	6.93493E-001	-4.39844E-002	2.34115E-003	-1.78177E-004	2.08927E-002	1.91181E-002	-9.71832E-004	-1.35404E-003	2.41121E-002	-1.52930E-003
	130	130	1.10029E+000	3.44623E-002	0.00000E+000	3.79185E-002	3.43769E-001	4.03209E-002	4.93441E+001	11	...........	6.72876E-002	-5.19514E-003	6.00944E-001	5.49949E-001	-2.79307E-002	-3.89719E-002	6.93602E-001	-4.39589E-002	2.31888E-003	-1.79036E-004	2.07099E-002	1.89525E-002	-9.62555E-004	-1.34306E-003	2.39031E-002	-1.51492E-003
	131	131	1.10017E+000	3.43494E-002	0.00000E+000	3.77901E-002	3.42645E-001	4.02630E-002	4.93084E+001	11	...........	6.71964E-002	-5.19222E-003	6.01061E-001	5.49998E-001	-2.80149E-002	-3.89693E-002	6.93430E-001	-4.39126E-002	2.30816E-003	-1.78350E-004	2.06461E-002	1.88921E-002	-9.62295E-004	-1.33857E-003	2.38189E-002	-1.50837E-003
	132	132	1.10020E+000	3.44836E-002	0.00000E+000	3.79390E-002	3.43981E-001	4.02549E-002	4.93011E+001	11	...........	6.71654E-002	-5.27194E-003	6.00962E-001	5.50065E-001	-2.80347E-002	-3.89931E-002	6.93388E-001	-4.40054E-002	2.31611E-003	-1.81796E-004	2.07234E-002	1.89682E-002	-9.66739E-004	-1.34462E-003	2.39105E-002	-1.51747E-003
	133	133	1.10029E+000	3.41834E-002	0.00000E+000	3.76116E-002	3.40999E-001	4.02136E-002	4.93192E+001	11	...........	6.71137E-002	-5.28639E-003	6.00896E-001	5.49932E-001	-2.79849E-002	-3.89840E-002	6.93437E-001	-4.40956E-002	2.29418E-003	-1.80707E-004	2.05407E-002	1.87986E-002	-9.56619E-004	-1.33261E-003	2.37040E-002	-1.50734E-003
	134	134	1.10017E+000	3.40846E-002	0.00000E+000	3.74988E-002	3.40013E-001	4.01926E-002	4.92799E+001	11	...........	6.70894E-002	-5.21542E-003	6.01027E-001	5.49951E-001	-2.79835E-002	-3.89925E-002	6.93423E-001	-4.41425E-002	2.28672E-003	-1.77766E-004	2.04858E-002	1.87449E-002	-9.53806E-004	-1.32904E-003	2.36351E-002	-1.50458E-003
	135	135	1.10020E+000	3.42320E-002	0.00000E+000	3.76622E-002	3.41478E-001	4.02087E-002	4.87470E+001	11	...........	6.71118E-002	-5.18139E-003	6.01118E-001	5.50012E-001	-2.79574E-002	-3.90004E-002	6.93409E-001	-4.42199E-002	2.29737E-003	-1.77369E-004	2.05775E-002	1.88280E-002	-9.57037E-004	-1.33506E-003	2.37368E-002	-1.51374E-003
	136	136	1.10029E+000	3.39165E-002	0.00000E+000	3.73179E-002	3.38340E-001	4.00637E-002	4.86925E+001	11	...........	6.68633E-002	-5.17764E-003	6.01185E-001	5.50060E-001	-2.79329E-002	-3.89772E-002	6.93425E-001	-4.40086E-002	2.26777E-003	-1.75607E-004	2.03901E-002	1.86561E-002	-9.47386E-004	-1.32197E-003	2.35185E-002	-1.49262E-003
	137	137	1.10017E+000	3.38281E-002	0.00000E+000	3.72167E-002	3.37457E-001	4.01422E-002	4.91402E+001	11	...........	6.70062E-002	-5.27264E-003	6.01137E-001	5.50136E-001	-2.80096E-002	-3.89726E-002	6.93386E-001	-4.40156E-002	2.26670E-003	-1.78363E-004	2.03353E-002	1.86101E-002	-9.47511E-004	-1.31837E-003	2.34559E-002	-1.48896E-003
	138	138	1.10020E+000	3.40043E-002	0.00000E+000	3.74115E-002	3.39209E-001	4.02306E-002	4.92888E+001	11	...........	6.71447E-002	-5.31583E-003	6.01203E-001	5.50159E-001	-2.79794E-002	-3.89381E-002	6.93362E-001	-4.39260E-002	2.28321E-003	-1.80761E-004	2.04435E-002	1.87078E-002	-9.51420E-004	-1.32406E-003	2.35773E-002	-1.49367E-003
	139	139	1.10029E+000	3.37147E-002	0.00000E+000	3.70958E-002	3.36331E-001	4.01898E-002	4.92851E+001	11	...........	6.70792E-002	-5.25250E-003	6.01208E-001	5.50101E-001	-2.79546E-002	-3.89011E-002	6.93490E-001	-4.38407E-002	2.26155E-003	-1.77087E-004	2.02695E-002	1.85465E-002	-9.42481E-004	-1.31154E-003	2.33808E-002	-1.47808E-003
	140	140	1.10017E+000	3.35731E-002	0.00000E+000	3.69362E-002	3.34919E-001	4.01405E-002	4.92697E+001	11	...........	6.70006E-002	-5.16583E-003	6.01124E-001	5.50027E-001	-2.78828E-002	-3.88665E-002	6.93394E-001	-4.38300E-002	2.24941E-003	-1.73433E-004	2.01816E-002	1.84661E-002	-9.36110E-004	-1.30487E-003	2.32794E-002	-1.47151E-003
	141	141	1.10020E+000	3.37543E-002	0.00000E+000	3.71364E-002	3.36723E-001	4.00962E-002	4.92696E+001	11	...........	6.69300E-002	-5.25667E-003	6.01006E-001	5.49927E-001	-2.79843E-002	-3.88514E-002	6.93368E-001	-4.39324E-002	2.25917E-003	-1.77435E-004	2.02865E-002	1.85624E-002	-9.44589E-004	-1.31140E-003	2.34041E-002	-1.48290E-003
	142	142	1.10029E+000	3.34470E-002	0.00000E+000	3.68013E-002	3.33668E-001	4.00436E-002	4.65905E+001	11	...........	6.68286E-002	-5.29681E-003	6.01019E-001	5.49863E-001	-2.79519E-002	-3.88522E-002	6.93583E-001	-4.39717E-002	2.23522E-003	-1.77162E-004	2.01023E-002	1.83913E-002	-9.34909E-004	-1.29949E-003	2.31983E-002	-1.47072E-003
	143	143	1.10017E+000	3.33383E-002	0.00000E+000	3.66779E-002	3.32591E-001	3.99560E-002	4.87640E+001	11	...........	6.66921E-002	-5.18708E-003	6.00955E-001	5.49961E-001	-2.79381E-002	-3.88668E-002	6.93556E-001	-4.40200E-002	2.22340E-003	-1.72928E-004	2.00348E-002	1.83347E-002	-9.31407E-004	-1.29575E-003	2.31220E-002	-1.46755E-003
	144	144	1.10020E+000	3.35245E-002	0.00000E+000	3.68836E-002	3.34435E-001	4.01312E-002	4.92280E+001	11	...........	6.69671E-002	-5.28472E-003	6.00801E-001	5.49917E-001	-2.78796E-002	-3.88567E-002	6.93717E-001	-4.39093E-002	2.24504E-003	-1.77168E-004	2.01415E-002	1.84357E-002	-9.34649E-004	-1.30265E-003	2.32565E-002	-1.47204E-003
	145	145	1.10028E+000	3.32532E-002	0.00000E+000	3.65879E-002	3.31740E-001	4.00209E-002	4.92401E+001	11	...........	6.67935E-002	-5.32931E-003	6.00883E-001	5.50002E-001	-2.79483E-002	-3.88239E-002	6.93693E-001	-4.38974E-002	2.22110E-003	-1.77217E-004	1.99813E-002	1.82893E-002	-9.29372E-004	-1.29102E-003	2.30675E-002	-1.45973E-003
	146	146	1.10018E+000	3.30862E-002	0.00000E+000	3.64007E-002	3.30080E-001	3.99763E-002	4.92088E+001	11	...........	6.67280E-002	-5.19319E-003	6.01070E-001	5.50004E-001	-2.79482E-002	-3.88368E-002	6.93682E-001	-4.40196E-002	2.20778E-003	-1.71823E-004	1.98871E-002	1.81975E-002	-9.24699E-004	-1.28496E-003	2.29513E-002	-1.45644E-003
	147	147	1.10020E+000	3.32666E-002	0.00000E+000	3.65999E-002	3.31876E-001	3.99556E-002	4.92081E+001	11	...........	6.66918E-002	-5.25361E-003	6.01101E-001	5.49992E-001	-2.78875E-002	-3.88772E-002	6.93478E-001	-4.40524E-002	2.21861E-003	-1.74770E-004	1.99966E-002	1.82964E-002	-9.27723E-004	-1.29331E-003	2.30697E-002	-1.46547E-003
	148	148	1.10028E+000	3.30668E-002	0.00000E+000	3.63828E-002	3.29891E-001	3.99582E-002	4.92828E+001	11	...........	6.66882E-002	-5.21347E-003	6.01146E-001	5.49915E-001	-2.78704E-002	-3.89122E-002	6.93703E-001	-4.39962E-002	2.20517E-003	-1.72393E-004	1.98780E-002	1.81839E-002	-9.21587E-004	-1.28670E-003	2.29386E-002	-1.45482E-003
	149	149	1.10018E+000	3.28484E-002	0.00000E+000	3.61392E-002	3.27717E-001	3.99435E-002	4.93087E+001	11	...........	6.66575E-002	-5.19069E-003	6.01122E-001	5.49828E-001	-2.79122E-002	-3.89422E-002	6.93646E-001	-4.41806E-002	2.18960E-003	-1.70506E-004	1.97459E-002	1.80610E-002	-9.16873E-004	-1.27919E-003	2.27852E-002	-1.45126E-003
	150	150	1.10020E+000	3.30024E-002	0.00000E+000	3.63092E-002	3.29247E-001	3.99147E-002	4.93013E+001	11	...........	6.66135E-002	-5.25903E-003	6.01277E-001	5.49850E-001	-2.79081E-002	-3.89333E-002	6.93716E-001	-4.39765E-002	2.19840E-003	-1.73561E-004	1.98436E-002	1.81464E-002	-9.21033E-004	-1.28489E-003	2.28943E-002	-1.45133E-003
	151	151	1.10028E+000	3.27921E-002	0.00000E+000	3.60804E-002	3.27157E-001	3.98862E-002	4.92673E+001	11	...........	6.65749E-002	-5.17208E-003	6.01365E-001	5.49830E-001	-2.79071E-002	-3.89133E-002	6.93768E-001	-4.39367E-002	2.18313E-003	-1.69603E-004	1.97200E-002	1.80301E-002	-9.15131E-004	-1.27605E-003	2.27501E-002	-1.44077E-003
	152	152	1.10018E+000	3.25822E-002	0.00000E+000	3.58465E-002	3.25069E-001	3.98967E-002	4.93547E+001	11	...........	6.65885E-002	-5.13236E-003	6.01223E-001	5.49692E-001	-2.78872E-002	-3.89042E-002	6.93755E-001	-4.39678E-002	2.16960E-003	-1.67224E-004	1.95892E-002	1.79102E-002	-9.08628E-004	-1.26758E-003	2.26041E-002	-1.43257E-003
	153	153	1.10020E+000	3.27566E-002	0.00000E+000	3.60387E-002	3.26807E-001	3.98448E-002	4.93692E+001	11	...........	6.65096E-002	-5.17806E-003	6.01201E-001	5.49647E-001	-2.79333E-002	-3.89175E-002	6.93750E-001	-4.38936E-002	2.17863E-003	-1.69616E-004	1.96933E-002	1.80046E-002	-9.15002E-004	-1.27481E-003	2.27249E-002	-1.43781E-003
	154	154	1.10028E+000	3.25736E-002	0.00000E+000	3.58399E-002	3.24985E-001	3.97665E-002	4.92830E+001	11	...........	6.63711E-002	-5.18361E-003	6.01111E-001	5.49651E-001	-2.79007E-002	-3.88839E-002	6.93748E-001	-4.38237E-002	2.16195E-003	-1.68849E-004	1.95803E-002	1.79041E-002	-9.08826E-004	-1.26659E-003	2.25979E-002	-1.42750E-003
	155	155	1.10019E+000	3.23708E-002	0.00000E+000	3.56140E-002	3.22971E-001	3.98708E-002	4.93836E+001	11	...........	6.65361E-002	-5.15597E-003	6.01223E-001	5.49703E-001	-2.78822E-002	-3.88725E-002	6.93733E-001	-4.38265E-002	2.15383E-003	-1.66903E-004	1.94621E-002	1.77944E-002	-9.02571E-004	-1.25834E-003	2.24567E-002	-1.41870E-003
	156	156	1.10020E+000	3.25443E-002	0.00000E+000	3.58051E-002	3.24689E-001	3.97863E-002	4.94146E+001	11	...........	6.64153E-002	-5.11181E-003	6.01131E-001	5.49730E-001	-2.78314E-002	-3.88586E-002	6.93825E-001	-4.38461E-002	2.16144E-003	-1.66360E-004	1.95634E-002	1.78906E-002	-9.05752E-004	-1.26463E-003	2.25800E-002	-1.42694E-003
	157	157	1.10028E+000	3.23363E-002	0.00000E+000	3.55788E-002	3.22621E-001	3.97584E-002	4.93873E+001	11	...........	6.63612E-002	-5.04208E-003	6.01051E-001	5.49805E-001	-2.78997E-002	-3.88686E-002	6.93754E-001	-4.38299E-002	2.14588E-003	-1.63042E-004	1.94358E-002	1.77787E-002	-9.02174E-004	-1.25687E-003	2.24335E-002	-1.41730E-003
	158	158	1.10019E+000	3.21180E-002	0.00000E+000	3.53358E-002	3.20451E-001	3.97402E-002	4.93951E+001	11	...........	6.63125E-002	-5.07861E-003	6.01116E-001	5.49888E-001	-2.79290E-002	-3.88828E-002	6.93882E-001	-4.38668E-002	2.12982E-003	-1.63115E-004	1.93066E-002	1.76613E-002	-8.97024E-004	-1.24884E-003	2.22861E-002	-1.40891E-003
	159	159	1.10020E+000	3.23107E-002	0.00000E+000	3.55481E-002	3.22365E-001	3.97283E-002	4.93913E+001	11	...........	6.62985E-002	-5.08444E-003	6.01129E-001	5.50068E-001	-2.79322E-002	-3.88906E-002	6.93895E-001	-4.38731E-002	2.14215E-003	-1.64282E-004	1.94229E-002	1.77731E-002	-9.02510E-004	-1.25658E-003	2.24202E-002	-1.41757E-003
	160	160	1.10027E+000	3.21045E-002	0.00000E+000	3.53237E-002	3.20310E-001	3.97413E-002	4.70790E+001	11	...........	6.62924E-002	-5.07236E-003	6.01035E-001	5.50086E-001	-2.78840E-002	-3.89035E-002	6.93881E-001	-4.38910E-002	2.12828E-003	-1.62845E-004	1.92959E-002	1.76602E-002	-8.95202E-004	-1.24898E-003	2.22767E-002	-1.40910E-003
	161	161	1.10019E+000	3.18360E-002	0.00000E+000	3.50256E-002	3.17643E-001	3.94588E-002	4.81455E+001	11	...........	6.58593E-002	-5.07042E-003	6.01027E-001	5.50131E-001	-2.79604E-002	-3.88967E-002	6.93816E-001	-4.38624E-002	2.09670E-003	-1.61422E-004	1.91343E-002	1.75139E-002	-8.90147E-004	-1.23831E-003	2.20883E-002	-1.39640E-003
	162	162	1.10020E+000	3.20848E-002	0.00000E+000	3.52996E-002	3.20119E-001	3.97818E-002	4.91631E+001	11	...........	6.63828E-002	-5.19333E-003	6.00968E-001	5.50170E-001	-2.79181E-002	-3.88803E-002	6.93906E-001	-4.38692E-002	2.12988E-003	-1.66627E-004	1.92819E-002	1.76521E-002	-8.95746E-004	-1.24747E-003	2.22638E-002	-1.40753E-003
	163	163	1.10027E+000	3.19077E-002	0.00000E+000	3.51071E-002	3.18359E-001	3.97691E-002	4.92573E+001	11	...........	6.63697E-002	-5.28458E-003	6.00925E-001	5.50098E-001	-2.79036E-002	-3.89090E-002	6.93894E-001	-4.38485E-002	2.11770E-003	-1.68619E-004	1.91741E-002	1.75523E-002	-8.90339E-004	-1.24150E-003	2.21405E-002	-1.39910E-003
	164	164	1.10019E+000	3.16694E-002	0.00000E+000	3.48425E-002	3.15991E-001	3.96904E-002	4.92370E+001	11	...........	6.62486E-002	-5.22792E-003	6.00861E-001	5.50081E-001	-2.78447E-002	-3.89135E-002	6.93954E-001	-4.37890E-002	2.09805E-003	-1.65565E-004	1.90289E-002	1.74207E-002	-8.81826E-004	-1.23237E-003	2.19771E-002	-1.38677E-003
	165	165	1.10019E+000	3.18225E-002	0.00000E+000	3.50109E-002	3.17511E-001	3.97129E-002	4.92484E+001	11	...........	6.62630E-002	-5.09792E-003	6.00854E-001	5.50014E-001	-2.78769E-002	-3.88978E-002	6.93912E-001	-4.38460E-002	2.10865E-003	-1.62228E-004	1.91206E-002	1.75028E-002	-8.87113E-004	-1.23782E-003	2.20820E-002	-1.39529E-003
	166	166	1.10027E+000	3.16999E-002	0.00000E+000	3.48784E-002	3.16294E-001	3.96588E-002	4.92466E+001	11	...........	6.61382E-002	-5.09444E-003	6.00703E-001	5.49908E-001	-2.78704E-002	-3.88849E-002	6.93873E-001	-4.38532E-002	2.09657E-003	-1.61493E-004	1.90422E-002	1.74320E-002	-8.83488E-004	-1.23264E-003	2.19957E-002	-1.39014E-003
	167	167	1.10020E+000	3.14301E-002	0.00000E+000	3.45792E-002	3.13616E-001	3.96582E-002	4.92598E+001	11	...........	6.61778E-002	-5.16153E-003	6.00415E-001	5.49722E-001	-2.78978E-002	-3.88836E-002	6.93802E-001	-4.38793E-002	2.07997E-003	-1.62227E-004	1.88711E-002	1.72778E-002	-8.76829E-004	-1.22211E-003	2.18062E-002	-1.37913E-003
	168	168	1.10019E+000	3.15838E-002	0.00000E+000	3.47483E-002	3.15142E-001	3.96310E-002	4.92876E+001	11	...........	6.61476E-002	-5.19194E-003	6.00232E-001	5.49566E-001	-2.78912E-002	-3.88918E-002	6.93750E-001	-4.39979E-002	2.08919E-003	-1.63981E-004	1.89576E-002	1.73574E-002	-8.80912E-004	-1.22835E-003	2.19113E-002	-1.38962E-003
	169	169	1.10027E+000	3.14183E-002	0.00000E+000	3.45685E-002	3.13498E-001	3.95027E-002	4.66229E+001	11	...........	6.59142E-002	-5.09264E-003	6.00122E-001	5.49584E-001	-2.79065E-002	-3.88665E-002	6.93827E-001	-4.40964E-002	2.07091E-003	-1.60002E-004	1.88548E-002	1.72670E-002	-8.76775E-004	-1.22112E-003	2.17988E-002	-1.38543E-003
	170	170	1.10020E+000	3.12084E-002	0.00000E+000	3.43354E-002	3.11412E-001	3.95664E-002	4.87755E+001	11	...........	6.60242E-002	-5.05167E-003	6.00117E-001	5.49660E-001	-2.79519E-002	-3.88478E-002	6.93735E-001	-4.40093E-002	2.06051E-003	-1.57654E-004	1.87287E-002	1.71540E-002	-8.72334E-004	-1.21238E-003	2.16503E-002	-1.37346E-003
	171	171	1.10019E+000	3.13689E-002	0.00000E+000	3.45118E-002	3.13010E-001	3.95921E-002	4.92539E+001	11	...........	6.60600E-002	-5.13319E-003	6.00172E-001	5.49831E-001	-2.79475E-002	-3.88671E-002	6.93715E-001	-4.39393E-002	2.07223E-003	-1.61022E-004	1.88267E-002	1.72476E-002	-8.76681E-004	-1.21922E-003	2.17610E-002	-1.37833E-003
	172	172	1.10027E+000	3.12153E-002	0.00000E+000	3.43451E-002	3.11484E-001	3.95877E-002	4.92404E+001	11	...........	6.60797E-002	-5.14972E-003	6.00287E-001	5.49894E-001	-2.78860E-002	-3.88790E-002	6.93700E-001	-4.40853E-002	2.06270E-003	-1.60750E-004	1.87381E-002	1.71651E-002	-8.70468E-004	-1.21362E-003	2.16540E-002	-1.37613E-003
	173	173	1.10020E+000	3.09573E-002	0.00000E+000	3.40593E-002	3.08923E-001	3.94975E-002	4.91788E+001	11	...........	6.59235E-002	-5.23319E-003	6.00256E-001	5.49848E-001	-2.79393E-002	-3.88869E-002	6.93553E-001	-4.39131E-002	2.04082E-003	-1.62006E-004	1.85823E-002	1.70218E-002	-8.64927E-004	-1.20384E-003	2.14706E-002	-1.35943E-003
	174	174	1.10019E+000	3.11364E-002	0.00000E+000	3.42560E-002	3.10702E-001	3.95102E-002	4.92588E+001	11	...........	6.59294E-002	-5.17542E-003	6.00261E-001	5.49745E-001	-2.79458E-002	-3.88964E-002	6.93596E-001	-4.38658E-002	2.05281E-003	-1.61144E-004	1.86900E-002	1.71171E-002	-8.70133E-004	-1.21109E-003	2.15961E-002	-1.36582E-003
	175	175	1.10026E+000	3.10088E-002	0.00000E+000	3.41179E-002	3.09430E-001	3.94811E-002	4.93215E+001	11	...........	6.58908E-002	-5.11333E-003	6.00236E-001	5.49927E-001	-2.79294E-002	-3.88669E-002	6.93646E-001	-4.39167E-002	2.04320E-003	-1.58558E-004	1.86126E-002	1.70526E-002	-8.66059E-004	-1.20522E-003	2.15092E-002	-1.36180E-003
	176	176	1.10020E+000	3.07775E-002	0.00000E+000	3.38616E-002	3.07127E-001	3.94816E-002	4.93495E+001	11	...........	6.58940E-002	-5.04861E-003	6.00266E-001	5.49905E-001	-2.78943E-002	-3.88719E-002	6.93597E-001	-4.38640E-002	2.02806E-003	-1.55384E-004	1.84747E-002	1.69247E-002	-8.58518E-004	-1.19638E-003	2.13472E-002	-1.35003E-003
	177	177	1.10019E+000	3.09389E-002	0.00000E+000	3.40387E-002	3.08731E-001	3.94582E-002	4.93410E+001	11	...........	6.58528E-002	-5.08722E-003	6.00233E-001	5.49910E-001	-2.79664E-002	-3.88983E-002	6.93636E-001	-4.38581E-002	2.03741E-003	-1.57393E-004	1.85705E-002	1.70136E-002	-8.65249E-004	-1.20347E-003	2.14603E-002	-1.35692E-003
	178	178	1.10026E+000	3.08246E-002	0.00000E+000	3.39152E-002	3.07597E-001	3.94597E-002	4.93582E+001	11	...........	6.58465E-002	-5.14403E-003	6.00201E-001	5.49994E-001	-2.79751E-002	-3.89301E-002	6.93694E-001	-4.39275E-002	2.02970E-003	-1.58563E-004	1.85010E-002	1.69534E-002	-8.62323E-004	-1.20001E-003	2.13829E-002	-1.35405E-003
	179	179	1.10021E+000	3.05457E-002	0.00000E+000	3.36066E-002	3.04830E-001	3.94174E-002	4.93770E+001	11	...........	6.57708E-002	-5.14042E-003	6.00158E-001	5.49997E-001	-2.79210E-002	-3.89507E-002	6.93545E-001	-4.38908E-002	2.00901E-003	-1.57017E-004	1.83322E-002	1.68000E-002	-8.52864E-004	-1.18977E-003	2.11848E-002	-1.34067E-003
	180	180	1.10019E+000	3.07102E-002	0.00000E+000	3.37870E-002	3.06462E-001	3.94065E-002	4.93469E+001	11	...........	6.57571E-002	-5.11542E-003	6.00364E-001	5.49969E-001	-2.79318E-002	-3.89325E-002	6.93587E-001	-4.38322E-002	2.01941E-003	-1.57095E-004	1.84373E-002	1.68896E-002	-8.57791E-004	-1.19562E-003	2.13002E-002	-1.34610E-003
	181	181	1.10026E+000	3.06167E-002	0.00000E+000	3.36864E-002	3.05532E-001	3.93698E-002	4.93333E+001	11	...........	6.56929E-002	-5.18806E-003	6.00582E-001	5.49932E-001	-2.79233E-002	-3.89483E-002	6.93622E-001	-4.37978E-002	2.01130E-003	-1.58841E-004	1.83878E-002	1.68371E-002	-8.54921E-004	-1.19247E-003	2.12364E-002	-1.34094E-003
	182	182	1.10021E+000	3.03090E-002	0.00000E+000	3.33463E-002	3.02475E-001	3.94093E-002	4.93833E+001	11	...........	6.57449E-002	-5.25278E-003	6.00849E-001	5.49834E-001	-2.79174E-002	-3.89032E-002	6.93723E-001	-4.38468E-002	1.99266E-003	-1.59207E-004	1.82112E-002	1.66649E-002	-8.46148E-004	-1.17912E-003	2.10261E-002	-1.32895E-003
	183	183	1.10019E+000	3.04660E-002	0.00000E+000	3.35183E-002	3.04039E-001	3.93592E-002	4.93635E+001	11	...........	6.56669E-002	-5.22625E-003	6.00871E-001	5.49884E-001	-2.78626E-002	-3.89211E-002	6.93646E-001	-4.38540E-002	2.00061E-003	-1.59223E-004	1.83061E-002	1.67528E-002	-8.48862E-004	-1.18577E-003	2.11326E-002	-1.33606E-003
	184	184	1.10026E+000	3.03334E-002	0.00000E+000	3.33745E-002	3.02718E-001	3.92111E-002	4.68593E+001	11	...........	6.54292E-002	-5.25319E-003	6.00905E-001	5.49822E-001	-2.78919E-002	-3.88972E-002	6.93700E-001	-4.39208E-002	1.98469E-003	-1.59347E-004	1.82275E-002	1.66780E-002	-8.46057E-004	-1.17988E-003	2.10423E-002	-1.33227E-003
	185	185	1.10021E+000	3.00900E-002	0.00000E+000	3.31054E-002	3.00300E-001	3.92945E-002	4.87756E+001	11	...........	6.55901E-002	-5.23681E-003	6.00855E-001	5.49979E-001	-2.78926E-002	-3.89124E-002	6.93738E-001	-4.40074E-002	1.97361E-003	-1.57576E-004	1.80797E-002	1.65489E-002	-8.39290E-004	-1.17087E-003	2.08746E-002	-1.32418E-003
	186	186	1.10019E+000	3.02516E-002	0.00000E+000	3.32825E-002	3.01901E-001	3.93308E-002	4.92455E+001	11	...........	6.56626E-002	-5.22306E-003	6.00882E-001	5.50033E-001	-2.78740E-002	-3.89111E-002	6.93728E-001	-4.39143E-002	1.98640E-003	-1.58006E-004	1.81777E-002	1.66394E-002	-8.43235E-004	-1.17712E-003	2.09864E-002	-1.32848E-003
	187	187	1.10025E+000	3.01663E-002	0.00000E+000	3.31906E-002	3.01055E-001	3.93061E-002	4.92321E+001	11	...........	6.55969E-002	-5.24069E-003	6.00796E-001	5.49832E-001	-2.79119E-002	-3.89306E-002	6.93686E-001	-4.38843E-002	1.97881E-003	-1.58092E-004	1.81238E-002	1.65864E-002	-8.41999E-004	-1.17439E-003	2.09259E-002	-1.32383E-003
	188	188	1.10022E+000	2.98695E-002	0.00000E+000	3.28630E-002	2.98107E-001	3.92853E-002	4.91488E+001	11	...........	6.55744E-002	-5.17417E-003	6.00891E-001	5.49834E-001	-2.78900E-002	-3.88850E-002	6.93558E-001	-4.37918E-002	1.95868E-003	-1.54550E-004	1.79483E-002	1.64233E-002	-8.33061E-004	-1.16148E-003	2.07162E-002	-1.30804E-003
	189	189	1.10019E+000	3.00656E-002	0.00000E+000	3.30778E-002	3.00054E-001	3.92988E-002	4.92866E+001	11	...........	6.55822E-002	-5.11194E-003	6.00882E-001	5.49854E-001	-2.78757E-002	-3.88846E-002	6.93585E-001	-4.38768E-002	1.97177E-003	-1.53694E-004	1.80659E-002	1.65317E-002	-8.38101E-004	-1.16909E-003	2.08531E-002	-1.31918E-003
	190	190	1.10025E+000	2.99632E-002	0.00000E+000	3.29671E-002	2.99036E-001	3.92636E-002	4.75358E+001	11	...........	6.55286E-002	-5.23597E-003	6.00782E-001	5.49914E-001	-2.78812E-002	-3.88728E-002	6.93497E-001	-4.39185E-002	1.96345E-003	-1.56887E-004	1.80014E-002	1.64772E-002	-8.35413E-004	-1.16475E-003	2.07794E-002	-1.31594E-003
	191	191	1.10022E+000	2.96263E-002	0.00000E+000	3.25954E-002	2.95690E-001	3.90760E-002	4.87238E+001	11	...........	6.52162E-002	-5.36472E-003	6.00639E-001	5.49786E-001	-2.78935E-002	-3.88712E-002	6.93441E-001	-4.37700E-002	1.93212E-003	-1.58937E-004	1.77947E-002	1.62881E-002	-8.26380E-004	-1.15161E-003	2.05441E-002	-1.29674E-003
	192	192	1.10019E+000	2.98320E-002	0.00000E+000	3.28208E-002	2.97734E-001	3.93308E-002	4.85850E+001	11	...........	6.56324E-002	-5.32958E-003	6.00717E-001	5.49768E-001	-2.78944E-002	-3.88457E-002	6.93557E-001	-4.39065E-002	1.95795E-003	-1.58992E-004	1.79206E-002	1.64007E-002	-8.32148E-004	-1.15885E-003	2.06902E-002	-1.30982E-003
	193	193	1.10025E+000	2.97309E-002	0.00000E+000	3.27115E-002	2.96729E-001	3.92056E-002	4.91984E+001	11	...........	6.54485E-002	-5.23569E-003	6.00825E-001	5.49773E-001	-2.78722E-002	-3.88692E-002	6.93631E-001	-4.38753E-002	1.94584E-003	-1.55662E-004	1.78631E-002	1.63453E-002	-8.28667E-004	-1.15562E-003	2.06223E-002	-1.30445E-003
	194	194	1.10022E+000	2.94400E-002	0.00000E+000	3.23906E-002	2.93834E-001	3.91714E-002	4.91917E+001	11	...........	6.53831E-002	-5.15000E-003	6.00999E-001	5.49701E-001	-2.79607E-002	-3.88524E-002	6.93675E-001	-4.38775E-002	1.92488E-003	-1.51616E-004	1.76934E-002	1.61832E-002	-8.23163E-004	-1.14381E-003	2.04218E-002	-1.29175E-003
	195	195	1.10019E+000	2.96023E-002	0.00000E+000	3.25680E-002	2.95445E-001	3.91302E-002	4.92270E+001	11	...........	6.53099E-002	-5.06958E-003	6.01079E-001	5.49763E-001	-2.79472E-002	-3.88568E-002	6.93579E-001	-4.40464E-002	1.93332E-003	-1.50071E-004	1.77933E-002	1.62742E-002	-8.27302E-004	-1.15025E-003	2.05315E-002	-1.30387E-003
	196	196	1.10025E+000	2.95488E-002	0.00000E+000	3.25110E-002	2.94914E-001	3.92118E-002	4.92944E+001	11	...........	6.54386E-002	-5.17819E-003	6.00990E-001	5.49824E-001	-2.79011E-002	-3.88250E-002	6.93621E-001	-4.39583E-002	1.93363E-003	-1.53009E-004	1.77585E-002	1.62466E-002	-8.24443E-004	-1.14723E-003	2.04956E-002	-1.29891E-003
	197	197	1.10023E+000	2.92465E-002	0.00000E+000	3.21778E-002	2.91911E-001	3.91302E-002	4.91402E+001	11	...........	6.53040E-002	-5.38486E-003	6.00985E-001	5.49801E-001	-2.79732E-002	-3.88036E-002	6.93601E-001	-4.39158E-002	1.90992E-003	-1.57489E-004	1.75767E-002	1.60798E-002	-8.18119E-004	-1.13487E-003	2.02854E-002	-1.28439E-003
	198	198	1.10018E+000	2.93767E-002	0.00000E+000	3.23198E-002	2.93206E-001	3.91350E-002	4.92354E+001	11	...........	6.52872E-002	-5.34931E-003	6.00867E-001	5.49772E-001	-2.79640E-002	-3.88008E-002	6.93604E-001	-4.39011E-002	1.91792E-003	-1.57145E-004	1.76515E-002	1.61505E-002	-8.21491E-004	-1.13984E-003	2.03758E-002	-1.28967E-003
	199	199	1.10025E+000	2.93564E-002	0.00000E+000	3.22992E-002	2.93004E-001	3.91342E-002	4.93387E+001	11	...........	6.52965E-002	-5.30625E-003	6.00729E-001	5.49858E-001	-2.79354E-002	-3.87669E-002	6.93600E-001	-4.39624E-002	1.91687E-003	-1.55772E-004	1.76352E-002	1.61418E-002	-8.20083E-004	-1.13806E-003	2.03616E-002	-1.29058E-003
	200	200	1.10023E+000	2.90334E-002	0.00000E+000	3.19434E-002	2.89797E-001	3.90752E-002	4.93322E+001	11	...........	6.52053E-002	-5.29167E-003	6.00789E-001	5.49955E-001	-2.79910E-002	-3.87643E-002	6.93475E-001	-4.39232E-002	1.89313E-003	-1.53635E-004	1.74429E-002	1.59671E-002	-8.12673E-004	-1.12546E-003	2.01339E-002	-1.27524E-003
	201	201	1.10018E+000	2.91786E-002	0.00000E+000	3.21019E-002	2.91239E-001	3.90995E-002	4.93066E+001	11	...........	6.52578E-002	-5.16889E-003	6.00803E-001	5.50044E-001	-2.79897E-002	-3.87872E-002	6.93446E-001	-4.39285E-002	1.90413E-003	-1.50821E-004	1.75306E-002	1.60495E-002	-8.16702E-004	-1.13176E-003	2.02338E-002	-1.28177E-003
	202	202	1.10024E+000	2.91433E-002	0.00000E+000	3.20647E-002	2.90888E-001	3.90714E-002	4.93570E+001	11	...........	6.52203E-002	-5.17181E-003	6.00823E-001	5.50066E-001	-2.79367E-002	-3.87971E-002	6.93492E-001	-4.39328E-002	1.90074E-003	-1.50724E-004	1.75100E-002	1.60307E-002	-8.14167E-004	-1.13068E-003	2.02107E-002	-1.28035E-003
	203	203	1.10023E+000	2.88205E-002	0.00000E+000	3.17092E-002	2.87680E-001	3.90323E-002	4.93653E+001	11	...........	6.51433E-002	-5.25486E-003	6.00958E-001	5.50080E-001	-2.79642E-002	-3.87971E-002	6.93464E-001	-4.38525E-002	1.87746E-003	-1.51448E-004	1.73199E-002	1.58536E-002	-8.05941E-004	-1.11815E-003	1.99860E-002	-1.26385E-003
	204	204	1.10018E+000	2.89566E-002	0.00000E+000	3.18575E-002	2.89029E-001	3.90304E-002	4.92888E+001	11	...........	6.51360E-002	-5.27028E-003	6.00894E-001	5.50075E-001	-2.79342E-002	-3.87939E-002	6.93566E-001	-4.38468E-002	1.88611E-003	-1.52609E-004	1.73998E-002	1.59283E-002	-8.08878E-004	-1.12334E-003	2.00833E-002	-1.26965E-003
	205	205	1.10024E+000	2.89294E-002	0.00000E+000	3.18293E-002	2.88768E-001	3.89968E-002	4.93324E+001	11	...........	6.50876E-002	-5.17931E-003	6.00834E-001	5.50164E-001	-2.79208E-002	-3.88032E-002	6.93521E-001	-4.38832E-002	1.88295E-003	-1.49834E-004	1.73818E-002	1.59159E-002	-8.07733E-004	-1.12255E-003	2.00631E-002	-1.26951E-003
	206	206	1.10024E+000	2.86301E-002	0.00000E+000	3.14999E-002	2.85790E-001	3.89872E-002	4.92998E+001	11	...........	6.50674E-002	-5.20347E-003	6.00606E-001	5.50097E-001	-2.79565E-002	-3.88092E-002	6.93428E-001	-4.38032E-002	1.86289E-003	-1.48976E-004	1.71954E-002	1.57493E-002	-8.00399E-004	-1.11111E-003	1.98529E-002	-1.25409E-003
	207	207	1.10018E+000	2.87559E-002	0.00000E+000	3.16368E-002	2.87040E-001	3.89797E-002	4.93289E+001	11	...........	6.50815E-002	-5.20958E-003	6.00567E-001	5.50081E-001	-2.79350E-002	-3.88112E-002	6.93601E-001	-4.40193E-002	1.87148E-003	-1.49806E-004	1.72699E-002	1.58181E-002	-8.03296E-004	-1.11605E-003	1.99451E-002	-1.26582E-003
	208	207.287	1.10041E+000	2.86882E-002	0.00000E+000	3.15687E-002	2.86360E-001	3.89791E-002	4.93291E+001	11	...........	6.50475E-002	-5.13324E-003	6.00726E-001	5.50022E-001	-2.78866E-002	-3.88251E-002	6.93627E-001	-4.40451E-002	1.86609E-003	-1.47263E-004	1.72337E-002	1.57791E-002	-8.00016E-004	-1.11382E-003	1.98989E-002	-1.26357E-003
STARTTIMEOFFSET	QUANT	585744.3	Start Time Offset (s)
