EXPLAIN
TAG	PWR800_CHARGE
TITLE	LABEL	PWR Charge	Test Identifier
DATE	LABEL	10/15/2022	Date
TIME	LABEL	13:55:43	Time
NOTES	NOTES	1	Notes...
	
PSTAT	PSTAT	REF3000-21114	Potentiostat
CAPACITY	QUANT	5.30000E-002	Capacity (A-hr)
CELLTYPE	SELECTOR	1	Cell Type
WORKINGCONNECTION	SELECTOR	0	Working Connection
MAXCHARGETIME	VARIABLEANDUNITS	7.20000E+003	s	2.00000E+000	hour(s)	Max Charge Time
CHARGEMODE	MULTIPARAM	0	1.00000E-001	Charge Mode	Constant Current	Amp(s)
CHARGECURRENT	QUANT	0.1	Charge Current (A)
VOLTAGEFINISH	TWOPARAM	T	2.50000E-002	7.20000E+003	Voltage Finish	I (A) <	Max Time(s)
SAMPLETIME	QUANT	1.00000E+000	Sample Period (s)
CHARGESTOPAT1	MULTIPARAM	2	1.10000E+000	Stop At 1	|Voltage| > Limit	V
CHARGESTOPAT2	MULTIPARAM	0	0.00000E+000	Stop At 2	None	N/A
AESELECTOR	AESELECTOR	0x1	T	Set Limits	AE Channels
AESBHCSELECTOR	TOGGLE	F	Save Both Half Cells
IRCOMP	TOGGLE	F	IR Measure
EOC	QUANT	0.2789216	Open Circuit (V)
SEQUENCER	TOGGLE	TRUE	Run as Sequence
PSTATMODEL	IQUANT	5	Pstat Model
PSTATSECTION	LABEL	REF3000-21114	Pstat Section
PSTATSERIALNO	LABEL	21114	Pstat Serial Number
CTRLMODE	IQUANT	0	Control Mode
ELECTROMETER	IQUANT	0	RE=0 or CS=1
IESTAB	IQUANT	0	I/E Stability
CASPEED	IQUANT	4	Control Amp Speed
CONVENTION	IQUANT	1	Current Convention
ICHRANGE	IQUANT	2	Ich Range
ICHRANGEMODE	TOGGLE	T	Ich Auto Range
ICHOFFSETENABLE	TOGGLE	F	Ich Offset Enable
ICHOFFSET	QUANT	0	Ich Offset (V)
ICHFILTER	IQUANT	1	Ich Filter
VCHRANGE	IQUANT	3	Vch Range
VCHRANGEMODE	TOGGLE	T	Vch Auto Range
VCHOFFSETENABLE	TOGGLE	F	Vch Offset Enable
VCHOFFSET	QUANT	0	Vch Offset (V)
VCHFILTER	IQUANT	1	Vch Filter
ACHRANGE	IQUANT	2	Ach Range
ACHOFFSETENABLE	TOGGLE	F	Ach Offset Enable
ACHOFFSET	QUANT	0	Ach Offset (V)
ACHFILTER	IQUANT	1	Ach Filter
IERANGELOWERLIMIT	IQUANT	9	I/E Range Lower Limit
IERANGEMODE	TOGGLE	F	I/E AutoRange
IERANGE	IQUANT	9	I/E Range
POSFEEDENABLE	TOGGLE	F	Positive Feedback IR Comp
POSFEEDRESISTANCE	QUANT	0	Positive Feedback Resistance (ohm)
ACHSELECT	IQUANT	1	Ach Select
SENSECABLEID	IQUANT	13	Sense Cable ID
PWRCABLEID	IQUANT	13	Power Cable ID
DCCALDATE	LABEL		DC Calibration Date
ACCALDATE	LABEL		AC Calibration Date
THERMOSELECT	IQUANT	1	Thermo Select
FRAMEWORKVERSION	LABEL	7.8.6	Framework Version
INSTRUMENTVERSION	LABEL	4.50	Instrument Version
COMPLIANCEVOLTAGE	IQUANT	0	Compliance Voltage
CURVE	TABLE	124
	Pt	T	Vf	Im	Vu	Pwr	Sig	Ach	Temp	IERange	Over	Vf1	Vf2	Vf3	Vf4	Vf5	Vf6	Vf7	Vf8	Pwr1	Pwr2	Pwr3	Pwr4	Pwr5	Pwr6	Pwr7	Pwr8
	#	s	V	A	V	W	V	V	deg C	#	bits	V	V	V	V	V	V	V	V	W	W	W	W	W	W	W	W
	0	1	5.64483E-001	9.98582E-002	0.00000E+000	5.63683E-002	9.94000E-001	3.93888E-002	4.05897E+001	11	...........	6.54054E-002	-3.38250E-003	5.63125E-001	6.92486E-001	-3.04483E-002	-3.84885E-002	6.40927E-001	-4.19082E-002	6.53127E-003	-3.37770E-004	5.62326E-002	6.91504E-002	-3.04052E-003	-3.84339E-003	6.40019E-002	-4.18488E-003
	1	2	7.57463E-001	9.98584E-002	0.00000E+000	7.56390E-002	9.94000E-001	3.98897E-002	4.22442E+001	11	...........	6.62455E-002	-3.35833E-003	5.63085E-001	6.92300E-001	-3.04118E-002	-3.84619E-002	6.41001E-001	-4.19026E-002	6.61517E-003	-3.35358E-004	5.62288E-002	6.91319E-002	-3.03687E-003	-3.84075E-003	6.40094E-002	-4.18433E-003
	2	2.32333	1.01335E+000	9.98585E-002	0.00000E+000	1.01191E-001	9.94000E-001	4.02211E-002	4.75136E+001	11	...........	6.67569E-002	-3.39261E-003	5.63059E-001	6.92207E-001	-3.03333E-002	-3.84991E-002	6.40972E-001	-4.19180E-002	6.66624E-003	-3.38781E-004	5.62262E-002	6.91227E-002	-3.02904E-003	-3.84447E-003	6.40065E-002	-4.18586E-003
	3	3	1.10152E+000	7.04097E-002	0.00000E+000	7.75574E-002	7.01169E-001	4.01123E-002	4.69566E+001	11	...........	6.65628E-002	-3.44479E-003	5.63063E-001	6.92111E-001	-3.04456E-002	-3.84789E-002	6.40888E-001	-4.19403E-002	4.68667E-003	-2.42546E-004	3.96451E-002	4.87313E-002	-2.14367E-003	-2.70928E-003	4.51247E-002	-2.95300E-003
	4	4	1.10103E+000	5.16513E-002	0.00000E+000	5.68697E-002	5.14637E-001	3.99007E-002	4.77769E+001	11	...........	6.62140E-002	-3.40917E-003	5.63149E-001	6.92042E-001	-3.04044E-002	-3.85164E-002	6.40812E-001	-4.19235E-002	3.42004E-003	-1.76088E-004	2.90874E-002	3.57448E-002	-1.57043E-003	-1.98942E-003	3.30987E-002	-2.16540E-003
	5	5	1.10084E+000	4.55454E-002	0.00000E+000	5.01384E-002	4.53925E-001	3.99761E-002	4.85256E+001	11	...........	6.63242E-002	-3.40194E-003	5.63204E-001	6.92008E-001	-3.04042E-002	-3.85471E-002	6.40918E-001	-4.19106E-002	3.02076E-003	-1.54943E-004	2.56514E-002	3.15178E-002	-1.38477E-003	-1.75564E-003	2.91909E-002	-1.90883E-003
	6	6	1.10085E+000	4.28233E-002	0.00000E+000	4.71422E-002	4.26855E-001	3.97511E-002	4.66476E+001	11	...........	6.59739E-002	-3.22903E-003	5.63216E-001	6.92155E-001	-3.03939E-002	-3.85494E-002	6.40975E-001	-4.18374E-002	2.82522E-003	-1.38277E-004	2.41188E-002	2.96403E-002	-1.30157E-003	-1.65081E-003	2.74487E-002	-1.79161E-003
	7	7	1.10093E+000	4.08719E-002	0.00000E+000	4.49972E-002	4.07460E-001	3.98386E-002	4.57529E+001	11	...........	6.61462E-002	-3.20639E-003	5.63083E-001	6.92141E-001	-3.03792E-002	-3.85485E-002	6.41021E-001	-4.18496E-002	2.70352E-003	-1.31051E-004	2.30142E-002	2.82891E-002	-1.24165E-003	-1.57555E-003	2.61997E-002	-1.71047E-003
	8	8	1.10081E+000	3.96446E-002	0.00000E+000	4.36412E-002	3.95259E-001	3.99118E-002	4.64297E+001	11	...........	6.62439E-002	-3.21569E-003	5.63350E-001	6.92101E-001	-3.03889E-002	-3.85626E-002	6.40914E-001	-4.18892E-002	2.62621E-003	-1.27485E-004	2.23338E-002	2.74380E-002	-1.20475E-003	-1.52880E-003	2.54088E-002	-1.66068E-003
	9	9	1.10084E+000	3.90612E-002	0.00000E+000	4.30002E-002	3.89461E-001	3.98932E-002	4.76147E+001	11	...........	6.62012E-002	-3.25347E-003	5.63366E-001	6.92003E-001	-3.04283E-002	-3.85493E-002	6.40925E-001	-4.18921E-002	2.58590E-003	-1.27085E-004	2.20058E-002	2.70305E-002	-1.18857E-003	-1.50578E-003	2.50353E-002	-1.63636E-003
	10	10	1.10092E+000	3.82893E-002	0.00000E+000	4.21534E-002	3.81781E-001	3.98439E-002	4.57000E+001	11	...........	6.61142E-002	-3.30028E-003	5.63397E-001	6.91853E-001	-3.04032E-002	-3.85407E-002	6.40756E-001	-4.19586E-002	2.53146E-003	-1.26365E-004	2.15720E-002	2.64906E-002	-1.16412E-003	-1.47569E-003	2.45341E-002	-1.60656E-003
	11	11	1.10081E+000	3.77836E-002	0.00000E+000	4.15926E-002	3.76760E-001	3.99713E-002	4.64785E+001	11	...........	6.63243E-002	-3.29028E-003	5.63382E-001	6.91800E-001	-3.03954E-002	-3.85197E-002	6.40875E-001	-4.19839E-002	2.50597E-003	-1.24318E-004	2.12866E-002	2.61387E-002	-1.14845E-003	-1.45541E-003	2.42145E-002	-1.58630E-003
	12	12	1.10083E+000	3.76435E-002	0.00000E+000	4.14392E-002	3.75367E-001	3.96761E-002	4.66355E+001	11	...........	6.58381E-002	-3.27903E-003	5.63446E-001	6.91809E-001	-3.03787E-002	-3.85201E-002	6.40897E-001	-4.19962E-002	2.47838E-003	-1.23434E-004	2.12101E-002	2.60421E-002	-1.14356E-003	-1.45003E-003	2.41256E-002	-1.58089E-003
	13	13	1.10091E+000	3.71948E-002	0.00000E+000	4.09482E-002	3.70899E-001	3.96929E-002	4.48302E+001	11	...........	6.58761E-002	-3.21833E-003	5.63497E-001	6.91965E-001	-3.03876E-002	-3.85454E-002	6.40827E-001	-4.19703E-002	2.45025E-003	-1.19705E-004	2.09592E-002	2.57375E-002	-1.13026E-003	-1.43369E-003	2.38354E-002	-1.56107E-003
	14	14	1.10081E+000	3.68676E-002	0.00000E+000	4.05843E-002	3.67646E-001	3.97607E-002	4.58033E+001	11	...........	6.60228E-002	-3.24639E-003	5.63425E-001	6.91925E-001	-3.03906E-002	-3.85365E-002	6.40885E-001	-4.19689E-002	2.43410E-003	-1.19686E-004	2.07721E-002	2.55096E-002	-1.12043E-003	-1.42075E-003	2.36279E-002	-1.54729E-003
	15	15	1.10083E+000	3.68998E-002	0.00000E+000	4.06204E-002	3.67973E-001	3.99473E-002	4.66772E+001	11	...........	6.63142E-002	-3.20292E-003	5.63473E-001	6.91797E-001	-3.03950E-002	-3.85364E-002	6.41098E-001	-4.19757E-002	2.44698E-003	-1.18187E-004	2.07920E-002	2.55271E-002	-1.12157E-003	-1.42198E-003	2.36563E-002	-1.54889E-003
	16	16	1.10091E+000	3.65506E-002	0.00000E+000	4.02389E-002	3.64499E-001	3.97169E-002	4.65147E+001	11	...........	6.59439E-002	-3.11361E-003	5.63452E-001	6.91749E-001	-3.04025E-002	-3.85285E-002	6.41057E-001	-4.19324E-002	2.41029E-003	-1.13804E-004	2.05945E-002	2.52839E-002	-1.11123E-003	-1.40824E-003	2.34310E-002	-1.53265E-003
	17	17	1.10082E+000	3.62840E-002	0.00000E+000	3.99421E-002	3.61843E-001	3.97217E-002	4.48291E+001	11	...........	6.59390E-002	-3.14042E-003	5.63376E-001	6.91804E-001	-3.03960E-002	-3.85465E-002	6.41036E-001	-4.19457E-002	2.39253E-003	-1.13947E-004	2.04416E-002	2.51014E-002	-1.10289E-003	-1.39862E-003	2.32594E-002	-1.52196E-003
	18	18	1.10083E+000	3.63729E-002	0.00000E+000	4.00402E-002	3.62733E-001	3.95112E-002	4.49254E+001	11	...........	6.55989E-002	-3.12056E-003	5.63428E-001	6.91836E-001	-3.03749E-002	-3.85394E-002	6.40958E-001	-4.19939E-002	2.38602E-003	-1.13504E-004	2.04935E-002	2.51641E-002	-1.10482E-003	-1.40179E-003	2.33135E-002	-1.52744E-003
	19	19	1.10091E+000	3.61184E-002	0.00000E+000	3.97630E-002	3.60208E-001	3.96097E-002	4.59298E+001	11	...........	6.57831E-002	-3.25319E-003	5.63399E-001	6.91902E-001	-3.03492E-002	-3.85707E-002	6.40997E-001	-4.20565E-002	2.37598E-003	-1.17500E-004	2.03491E-002	2.49904E-002	-1.09616E-003	-1.39311E-003	2.31518E-002	-1.51901E-003
	20	20	1.10082E+000	3.58489E-002	0.00000E+000	3.94632E-002	3.57521E-001	3.95227E-002	4.52168E+001	11	...........	6.58115E-002	-3.28431E-003	5.63441E-001	6.91857E-001	-3.03611E-002	-3.85444E-002	6.41128E-001	-4.20521E-002	2.35927E-003	-1.17739E-004	2.01988E-002	2.48023E-002	-1.08841E-003	-1.38178E-003	2.29838E-002	-1.50752E-003
	21	21	1.10083E+000	3.59740E-002	0.00000E+000	3.96012E-002	3.58769E-001	3.95107E-002	4.62655E+001	11	...........	6.59508E-002	-3.22403E-003	5.63337E-001	6.91887E-001	-3.03703E-002	-3.85528E-002	6.41143E-001	-4.22218E-002	2.37252E-003	-1.15981E-004	2.02655E-002	2.48900E-002	-1.09254E-003	-1.38690E-003	2.30645E-002	-1.51889E-003
	22	22	1.10091E+000	3.57584E-002	0.00000E+000	3.93667E-002	3.56629E-001	3.94426E-002	4.58405E+001	11	...........	6.58049E-002	-3.19083E-003	5.63534E-001	6.91892E-001	-3.03686E-002	-3.85574E-002	6.41066E-001	-4.21765E-002	2.35308E-003	-1.14099E-004	2.01511E-002	2.47410E-002	-1.08593E-003	-1.37875E-003	2.29235E-002	-1.50817E-003
	23	23	1.10082E+000	3.55044E-002	0.00000E+000	3.90840E-002	3.54092E-001	3.90816E-002	4.46818E+001	11	...........	6.52371E-002	-3.19542E-003	5.63603E-001	6.91767E-001	-3.03439E-002	-3.85579E-002	6.41105E-001	-4.21443E-002	2.31620E-003	-1.13451E-004	2.00104E-002	2.45608E-002	-1.07734E-003	-1.36898E-003	2.27620E-002	-1.49631E-003
	24	24	1.10083E+000	3.56453E-002	0.00000E+000	3.92393E-002	3.55501E-001	3.96034E-002	4.55388E+001	11	...........	6.61017E-002	-3.27611E-003	5.63760E-001	6.91697E-001	-3.03576E-002	-3.85515E-002	6.41122E-001	-4.20617E-002	2.35621E-003	-1.16778E-004	2.00954E-002	2.46557E-002	-1.08211E-003	-1.37418E-003	2.28529E-002	-1.49930E-003
	25	25	1.10091E+000	3.54336E-002	0.00000E+000	3.90091E-002	3.53393E-001	3.93847E-002	4.61843E+001	11	...........	6.57371E-002	-3.21167E-003	5.63830E-001	6.91879E-001	-3.03686E-002	-3.85551E-002	6.41057E-001	-4.21974E-002	2.32930E-003	-1.13801E-004	1.99785E-002	2.45158E-002	-1.07607E-003	-1.36615E-003	2.27150E-002	-1.49520E-003
	26	26	1.10082E+000	3.51818E-002	0.00000E+000	3.87289E-002	3.50891E-001	3.91425E-002	4.43240E+001	11	...........	6.53335E-002	-3.31611E-003	5.63766E-001	6.91855E-001	-3.03762E-002	-3.85612E-002	6.41156E-001	-4.21636E-002	2.29855E-003	-1.16667E-004	1.98343E-002	2.43407E-002	-1.06869E-003	-1.35665E-003	2.25570E-002	-1.48339E-003
	27	27	1.10082E+000	3.53247E-002	0.00000E+000	3.88863E-002	3.52311E-001	3.93345E-002	4.61480E+001	11	...........	6.56414E-002	-3.30139E-003	5.63624E-001	6.91806E-001	-3.03851E-002	-3.85346E-002	6.41140E-001	-4.20744E-002	2.31876E-003	-1.16621E-004	1.99098E-002	2.44378E-002	-1.07335E-003	-1.36122E-003	2.26481E-002	-1.48627E-003
	28	28	1.10090E+000	3.51577E-002	0.00000E+000	3.87052E-002	3.50649E-001	3.93115E-002	4.58146E+001	11	...........	6.56056E-002	-3.37486E-003	5.63635E-001	6.91753E-001	-3.03806E-002	-3.85253E-002	6.41136E-001	-4.20110E-002	2.30654E-003	-1.18652E-004	1.98161E-002	2.43204E-002	-1.06811E-003	-1.35446E-003	2.25409E-002	-1.47701E-003
	29	29	1.10083E+000	3.48932E-002	0.00000E+000	3.84113E-002	3.48017E-001	3.92731E-002	4.54973E+001	11	...........	6.55408E-002	-3.29403E-003	5.63470E-001	6.91610E-001	-3.03535E-002	-3.85161E-002	6.41251E-001	-4.20281E-002	2.28693E-003	-1.14939E-004	1.96613E-002	2.41324E-002	-1.05913E-003	-1.34395E-003	2.23753E-002	-1.46649E-003
	30	30	1.10082E+000	3.50401E-002	0.00000E+000	3.85730E-002	3.49475E-001	3.93059E-002	4.60264E+001	11	...........	6.56110E-002	-3.29861E-003	5.63498E-001	6.91724E-001	-3.03787E-002	-3.85439E-002	6.41267E-001	-4.19632E-002	2.29901E-003	-1.15584E-004	1.97450E-002	2.42381E-002	-1.06447E-003	-1.35058E-003	2.24701E-002	-1.47039E-003
	31	31	1.10090E+000	3.48472E-002	0.00000E+000	3.83634E-002	3.47560E-001	3.89041E-002	4.46583E+001	11	...........	6.49358E-002	-3.26569E-003	5.63603E-001	6.91751E-001	-3.03682E-002	-3.85556E-002	6.41247E-001	-4.19022E-002	2.26283E-003	-1.13800E-004	1.96400E-002	2.41056E-002	-1.05825E-003	-1.34355E-003	2.23457E-002	-1.46018E-003
	32	32	1.10083E+000	3.46417E-002	0.00000E+000	3.81345E-002	3.45511E-001	3.94297E-002	4.60695E+001	11	...........	6.58062E-002	-3.29514E-003	5.63477E-001	6.91874E-001	-3.03458E-002	-3.85529E-002	6.41312E-001	-4.19417E-002	2.27964E-003	-1.14149E-004	1.95198E-002	2.39677E-002	-1.05123E-003	-1.33554E-003	2.22161E-002	-1.45293E-003
	33	33	1.10082E+000	3.47814E-002	0.00000E+000	3.82882E-002	3.46901E-001	3.91237E-002	4.61527E+001	11	...........	6.52935E-002	-3.37167E-003	5.63343E-001	6.91832E-001	-3.03836E-002	-3.85604E-002	6.41196E-001	-4.20847E-002	2.27100E-003	-1.17271E-004	1.95938E-002	2.40629E-002	-1.05678E-003	-1.34119E-003	2.23017E-002	-1.46377E-003
	34	34	1.10090E+000	3.45835E-002	0.00000E+000	3.80730E-002	3.44940E-001	3.91618E-002	4.51090E+001	11	...........	6.53561E-002	-3.27931E-003	5.63530E-001	6.91989E-001	-3.03931E-002	-3.85689E-002	6.41181E-001	-4.21021E-002	2.26024E-003	-1.13410E-004	1.94888E-002	2.39314E-002	-1.05110E-003	-1.33385E-003	2.21743E-002	-1.45604E-003
	35	35	1.10083E+000	3.43326E-002	0.00000E+000	3.77943E-002	3.42445E-001	3.90938E-002	4.37955E+001	11	...........	6.52592E-002	-3.28778E-003	5.63436E-001	6.91969E-001	-3.03931E-002	-3.85762E-002	6.41222E-001	-4.21300E-002	2.24052E-003	-1.12878E-004	1.93442E-002	2.37571E-002	-1.04347E-003	-1.32442E-003	2.20148E-002	-1.44643E-003
	36	36	1.10082E+000	3.45016E-002	0.00000E+000	3.79801E-002	3.44117E-001	3.89904E-002	4.59514E+001	11	...........	6.50818E-002	-3.30375E-003	5.63381E-001	6.91891E-001	-3.04104E-002	-3.85911E-002	6.41100E-001	-4.21054E-002	2.24543E-003	-1.13985E-004	1.94375E-002	2.38713E-002	-1.04921E-003	-1.33145E-003	2.21190E-002	-1.45270E-003
	37	37	1.10090E+000	3.43342E-002	0.00000E+000	3.77985E-002	3.42459E-001	3.91970E-002	4.61079E+001	11	...........	6.54243E-002	-3.30889E-003	5.63349E-001	6.91937E-001	-3.03996E-002	-3.85978E-002	6.41118E-001	-4.20524E-002	2.24629E-003	-1.13608E-004	1.93421E-002	2.37571E-002	-1.04375E-003	-1.32522E-003	2.20123E-002	-1.44383E-003
	38	38	1.10083E+000	3.40994E-002	0.00000E+000	3.75378E-002	3.40125E-001	3.91333E-002	4.62362E+001	11	...........	6.53183E-002	-3.25500E-003	5.63232E-001	6.91813E-001	-3.04092E-002	-3.85599E-002	6.41257E-001	-4.20450E-002	2.22732E-003	-1.10994E-004	1.92059E-002	2.35905E-002	-1.03694E-003	-1.31487E-003	2.18665E-002	-1.43371E-003
	39	39	1.10082E+000	3.42368E-002	0.00000E+000	3.76887E-002	3.41493E-001	3.88837E-002	4.52856E+001	11	...........	6.49139E-002	-3.26736E-003	5.63272E-001	6.91724E-001	-3.03806E-002	-3.85533E-002	6.41364E-001	-4.21090E-002	2.22245E-003	-1.11864E-004	1.92846E-002	2.36825E-002	-1.04013E-003	-1.31994E-003	2.19583E-002	-1.44168E-003
	40	40	1.10090E+000	3.41307E-002	0.00000E+000	3.75744E-002	3.40441E-001	3.92142E-002	4.40528E+001	11	...........	6.54587E-002	-3.24167E-003	5.63267E-001	6.91810E-001	-3.04137E-002	-3.85464E-002	6.41260E-001	-4.20615E-002	2.23415E-003	-1.10640E-004	1.92247E-002	2.36119E-002	-1.03804E-003	-1.31561E-003	2.18866E-002	-1.43559E-003
	41	41	1.10084E+000	3.38416E-002	0.00000E+000	3.72541E-002	3.37565E-001	3.88562E-002	4.56198E+001	11	...........	6.48649E-002	-3.21347E-003	5.63227E-001	6.91625E-001	-3.04328E-002	-3.85529E-002	6.41226E-001	-4.20831E-002	2.19513E-003	-1.08749E-004	1.90605E-002	2.34057E-002	-1.02989E-003	-1.30469E-003	2.17001E-002	-1.42416E-003
	42	42	1.10082E+000	3.39876E-002	0.00000E+000	3.74142E-002	3.39016E-001	3.91480E-002	4.66221E+001	11	...........	6.53624E-002	-3.17694E-003	5.63355E-001	6.91647E-001	-3.04201E-002	-3.85557E-002	6.41156E-001	-4.22269E-002	2.22151E-003	-1.07977E-004	1.91471E-002	2.35074E-002	-1.03391E-003	-1.31041E-003	2.17914E-002	-1.43519E-003
	43	43	1.10090E+000	3.38482E-002	0.00000E+000	3.72633E-002	3.37632E-001	3.89902E-002	4.54996E+001	11	...........	6.50643E-002	-3.16583E-003	5.63208E-001	6.91778E-001	-3.04160E-002	-3.85579E-002	6.41189E-001	-4.22249E-002	2.20231E-003	-1.07158E-004	1.90635E-002	2.34154E-002	-1.02953E-003	-1.30511E-003	2.17031E-002	-1.42923E-003
	44	44	1.10084E+000	3.36098E-002	0.00000E+000	3.69990E-002	3.35261E-001	3.91327E-002	4.58254E+001	11	...........	6.52965E-002	-3.08681E-003	5.63126E-001	6.91752E-001	-3.04387E-002	-3.85679E-002	6.41182E-001	-4.21458E-002	2.19460E-003	-1.03747E-004	1.89266E-002	2.32497E-002	-1.02304E-003	-1.29626E-003	2.15500E-002	-1.41651E-003
	45	45	1.10082E+000	3.37240E-002	0.00000E+000	3.71240E-002	3.36395E-001	3.87689E-002	4.52039E+001	11	...........	6.47093E-002	-3.21931E-003	5.63016E-001	6.91919E-001	-3.04818E-002	-3.85585E-002	6.41081E-001	-4.22189E-002	2.18225E-003	-1.08568E-004	1.89872E-002	2.33343E-002	-1.02797E-003	-1.30035E-003	2.16198E-002	-1.42379E-003
	46	46	1.10089E+000	3.36652E-002	0.00000E+000	3.70618E-002	3.35809E-001	3.89072E-002	4.52612E+001	11	...........	6.49426E-002	-3.29944E-003	5.63124E-001	6.91999E-001	-3.04708E-002	-3.85615E-002	6.41047E-001	-4.22708E-002	2.18631E-003	-1.11076E-004	1.89577E-002	2.32963E-002	-1.02581E-003	-1.29818E-003	2.15810E-002	-1.42306E-003
	47	47	1.10084E+000	3.33745E-002	0.00000E+000	3.67400E-002	3.32919E-001	3.91121E-002	4.62446E+001	11	...........	6.52808E-002	-3.39236E-003	5.63319E-001	6.91954E-001	-3.04618E-002	-3.85596E-002	6.41051E-001	-4.21550E-002	2.17872E-003	-1.13218E-004	1.88005E-002	2.30937E-002	-1.01665E-003	-1.28691E-003	2.13948E-002	-1.40690E-003
	48	48	1.10082E+000	3.34768E-002	0.00000E+000	3.68520E-002	3.33937E-001	3.86228E-002	4.53035E+001	11	...........	6.44618E-002	-3.29458E-003	5.63267E-001	6.91896E-001	-3.04721E-002	-3.85261E-002	6.40987E-001	-4.20972E-002	2.15797E-003	-1.10292E-004	1.88564E-002	2.31625E-002	-1.02011E-003	-1.28973E-003	2.14582E-002	-1.40928E-003
	49	49	1.10089E+000	3.34140E-002	0.00000E+000	3.67852E-002	3.33308E-001	3.91647E-002	4.46029E+001	11	...........	6.53569E-002	-3.31514E-003	5.63287E-001	6.91826E-001	-3.04804E-002	-3.85101E-002	6.40996E-001	-4.20683E-002	2.18384E-003	-1.10772E-004	1.88217E-002	2.31167E-002	-1.01847E-003	-1.28678E-003	2.14183E-002	-1.40567E-003
	50	50	1.10084E+000	3.31002E-002	0.00000E+000	3.64381E-002	3.30193E-001	3.86856E-002	4.53679E+001	11	...........	6.45519E-002	-3.20097E-003	5.63280E-001	6.91667E-001	-3.04804E-002	-3.84953E-002	6.40990E-001	-4.19800E-002	2.13668E-003	-1.05953E-004	1.86447E-002	2.28943E-002	-1.00891E-003	-1.27420E-003	2.12169E-002	-1.38955E-003
	51	51	1.10082E+000	3.32615E-002	0.00000E+000	3.66149E-002	3.31797E-001	3.89013E-002	4.59850E+001	11	...........	6.49228E-002	-3.19139E-003	5.63268E-001	6.91568E-001	-3.04953E-002	-3.85054E-002	6.41026E-001	-4.20142E-002	2.15943E-003	-1.06150E-004	1.87351E-002	2.30026E-002	-1.01432E-003	-1.28075E-003	2.13215E-002	-1.39745E-003
	52	52	1.10089E+000	3.31480E-002	0.00000E+000	3.64923E-002	3.30670E-001	3.89582E-002	4.53809E+001	11	...........	6.50290E-002	-3.14347E-003	5.63155E-001	6.91588E-001	-3.05000E-002	-3.85244E-002	6.41004E-001	-4.20007E-002	2.15558E-003	-1.04200E-004	1.86675E-002	2.29248E-002	-1.01101E-003	-1.27701E-003	2.12480E-002	-1.39224E-003
	53	53	1.10085E+000	3.28780E-002	0.00000E+000	3.61937E-002	3.27981E-001	3.89014E-002	4.60722E+001	11	...........	6.49315E-002	-3.10917E-003	5.63117E-001	6.91567E-001	-3.04658E-002	-3.85454E-002	6.41116E-001	-4.20114E-002	2.13482E-003	-1.02223E-004	1.85142E-002	2.27374E-002	-1.00166E-003	-1.26730E-003	2.10786E-002	-1.38125E-003
	54	54	1.10082E+000	3.30027E-002	0.00000E+000	3.63299E-002	3.29211E-001	3.87237E-002	4.51377E+001	11	...........	6.46317E-002	-3.15847E-003	5.63185E-001	6.91545E-001	-3.04517E-002	-3.85418E-002	6.41184E-001	-4.20375E-002	2.13302E-003	-1.04238E-004	1.85866E-002	2.28228E-002	-1.00499E-003	-1.27198E-003	2.11608E-002	-1.38735E-003
	55	55	1.10089E+000	3.29370E-002	0.00000E+000	3.62599E-002	3.28570E-001	3.88269E-002	4.49951E+001	11	...........	6.48018E-002	-3.20069E-003	5.63325E-001	6.91516E-001	-3.04481E-002	-3.85097E-002	6.41266E-001	-4.20337E-002	2.13438E-003	-1.05421E-004	1.85542E-002	2.27765E-002	-1.00287E-003	-1.26840E-003	2.11214E-002	-1.38447E-003
	56	56	1.10085E+000	3.26278E-002	0.00000E+000	3.59184E-002	3.25495E-001	3.87601E-002	4.48549E+001	11	...........	6.46764E-002	-3.21486E-003	5.63334E-001	6.91490E-001	-3.04542E-002	-3.84933E-002	6.41143E-001	-4.20903E-002	2.11025E-003	-1.04894E-004	1.83804E-002	2.25618E-002	-9.93652E-004	-1.25595E-003	2.09191E-002	-1.37331E-003
	57	57	1.10082E+000	3.28095E-002	0.00000E+000	3.61172E-002	3.27297E-001	3.88034E-002	4.60358E+001	11	...........	6.47493E-002	-3.31681E-003	5.63357E-001	6.91531E-001	-3.04672E-002	-3.84901E-002	6.41190E-001	-4.20432E-002	2.12439E-003	-1.08823E-004	1.84835E-002	2.26888E-002	-9.99615E-004	-1.26284E-003	2.10371E-002	-1.37942E-003
	58	58	1.10088E+000	3.27217E-002	0.00000E+000	3.60228E-002	3.26425E-001	3.86617E-002	4.51891E+001	11	...........	6.45179E-002	-3.27639E-003	5.63359E-001	6.91469E-001	-3.04544E-002	-3.84551E-002	6.41396E-001	-4.21446E-002	2.11114E-003	-1.07209E-004	1.84341E-002	2.26260E-002	-9.96522E-004	-1.25832E-003	2.09876E-002	-1.37904E-003
	59	59	1.10085E+000	3.23999E-002	0.00000E+000	3.56675E-002	3.23229E-001	3.86801E-002	4.48465E+001	11	...........	6.45500E-002	-3.23639E-003	5.63295E-001	6.91415E-001	-3.04503E-002	-3.84642E-002	6.41381E-001	-4.21651E-002	2.09141E-003	-1.04859E-004	1.82507E-002	2.24017E-002	-9.86585E-004	-1.24623E-003	2.07807E-002	-1.36615E-003
	60	60	1.10082E+000	3.25766E-002	0.00000E+000	3.58609E-002	3.24987E-001	3.86299E-002	4.65267E+001	11	...........	6.44912E-002	-3.26958E-003	5.63368E-001	6.91401E-001	-3.04679E-002	-3.84864E-002	6.41357E-001	-4.20735E-002	2.10091E-003	-1.06512E-004	1.83527E-002	2.25235E-002	-9.92542E-004	-1.25376E-003	2.08933E-002	-1.37061E-003
	61	61	1.10088E+000	3.25096E-002	0.00000E+000	3.57893E-002	3.24317E-001	3.88494E-002	4.60001E+001	11	...........	6.48435E-002	-3.41375E-003	5.63351E-001	6.91331E-001	-3.04507E-002	-3.84664E-002	6.41229E-001	-4.21683E-002	2.10804E-003	-1.10980E-004	1.83143E-002	2.24749E-002	-9.89941E-004	-1.25053E-003	2.08461E-002	-1.37088E-003
	62	62	1.10086E+000	3.21697E-002	0.00000E+000	3.54142E-002	3.20932E-001	3.85361E-002	4.54041E+001	11	...........	6.43260E-002	-3.31444E-003	5.63305E-001	6.91440E-001	-3.04546E-002	-3.84942E-002	6.41122E-001	-4.21911E-002	2.06935E-003	-1.06625E-004	1.81214E-002	2.22434E-002	-9.79715E-004	-1.23835E-003	2.06247E-002	-1.35728E-003
	63	63	1.10081E+000	3.23011E-002	0.00000E+000	3.55576E-002	3.22242E-001	3.85952E-002	4.46447E+001	11	...........	6.44181E-002	-3.33347E-003	5.63369E-001	6.91502E-001	-3.04689E-002	-3.84679E-002	6.41025E-001	-4.20935E-002	2.08078E-003	-1.07675E-004	1.81975E-002	2.23363E-002	-9.84180E-004	-1.24256E-003	2.07059E-002	-1.35967E-003
	64	64	1.10088E+000	3.23060E-002	0.00000E+000	3.55651E-002	3.22291E-001	3.88352E-002	4.66905E+001	11	...........	6.48162E-002	-3.41694E-003	5.63413E-001	6.91449E-001	-3.04787E-002	-3.84593E-002	6.41015E-001	-4.21210E-002	2.09395E-003	-1.10388E-004	1.82016E-002	2.23379E-002	-9.84647E-004	-1.24247E-003	2.07086E-002	-1.36076E-003
	65	65	1.10086E+000	3.19625E-002	0.00000E+000	3.51863E-002	3.18878E-001	3.85843E-002	4.40061E+001	11	...........	6.43983E-002	-3.34236E-003	5.63402E-001	6.91489E-001	-3.04650E-002	-3.84442E-002	6.41085E-001	-4.22537E-002	2.05833E-003	-1.06830E-004	1.80078E-002	2.21017E-002	-9.73739E-004	-1.22877E-003	2.04907E-002	-1.35054E-003
	66	66	1.10081E+000	3.20506E-002	0.00000E+000	3.52816E-002	3.19751E-001	3.85214E-002	4.57943E+001	11	...........	6.42668E-002	-3.26125E-003	5.63303E-001	6.91517E-001	-3.04260E-002	-3.84158E-002	6.40835E-001	-4.21426E-002	2.05979E-003	-1.04525E-004	1.80542E-002	2.21635E-002	-9.75170E-004	-1.23125E-003	2.05391E-002	-1.35070E-003
	67	67	1.10088E+000	3.20602E-002	0.00000E+000	3.52943E-002	3.19853E-001	3.86037E-002	4.47172E+001	11	...........	6.44142E-002	-3.32708E-003	5.63373E-001	6.91479E-001	-3.04189E-002	-3.84133E-002	6.40779E-001	-4.20964E-002	2.06513E-003	-1.06667E-004	1.80618E-002	2.21689E-002	-9.75235E-004	-1.23154E-003	2.05435E-002	-1.34962E-003
	68	68	1.10086E+000	3.17829E-002	0.00000E+000	3.49887E-002	3.17095E-001	3.88166E-002	4.57690E+001	11	...........	6.47989E-002	-3.26806E-003	5.63363E-001	6.91493E-001	-3.04315E-002	-3.84121E-002	6.40701E-001	-4.21112E-002	2.05950E-003	-1.03868E-004	1.79053E-002	2.19777E-002	-9.67202E-004	-1.22085E-003	2.03633E-002	-1.33842E-003
	69	69	1.10081E+000	3.18859E-002	0.00000E+000	3.51004E-002	3.18114E-001	3.85227E-002	4.54458E+001	11	...........	6.43042E-002	-3.31472E-003	5.63276E-001	6.91394E-001	-3.04376E-002	-3.84212E-002	6.40830E-001	-4.19686E-002	2.05040E-003	-1.05693E-004	1.79606E-002	2.20457E-002	-9.70532E-004	-1.22510E-003	2.04334E-002	-1.33821E-003
	70	70	1.10087E+000	3.18334E-002	0.00000E+000	3.50445E-002	3.17590E-001	3.84820E-002	4.47639E+001	11	...........	6.42185E-002	-3.30278E-003	5.63107E-001	6.91417E-001	-3.04629E-002	-3.84403E-002	6.40886E-001	-4.19406E-002	2.04429E-003	-1.05139E-004	1.79256E-002	2.20101E-002	-9.69737E-004	-1.22368E-003	2.04016E-002	-1.33511E-003
	71	71	1.10087E+000	3.15412E-002	0.00000E+000	3.47227E-002	3.14685E-001	3.87425E-002	4.45899E+001	11	...........	6.46682E-002	-3.29597E-003	5.63151E-001	6.91337E-001	-3.05001E-002	-3.84551E-002	6.40722E-001	-4.18854E-002	2.03971E-003	-1.03959E-004	1.77624E-002	2.18056E-002	-9.62010E-004	-1.21292E-003	2.02091E-002	-1.32111E-003
	72	72	1.10081E+000	3.16375E-002	0.00000E+000	3.48269E-002	3.15647E-001	3.83064E-002	4.45602E+001	11	...........	6.39258E-002	-3.27750E-003	5.63199E-001	6.91353E-001	-3.05067E-002	-3.84389E-002	6.40821E-001	-4.19258E-002	2.02246E-003	-1.03692E-004	1.78182E-002	2.18727E-002	-9.65156E-004	-1.21611E-003	2.02740E-002	-1.32643E-003
	73	73	1.10087E+000	3.16637E-002	0.00000E+000	3.48577E-002	3.15909E-001	3.85724E-002	4.57952E+001	11	...........	6.43822E-002	-3.35375E-003	5.63531E-001	6.91356E-001	-3.05199E-002	-3.84517E-002	6.40899E-001	-4.19749E-002	2.03858E-003	-1.06192E-004	1.78435E-002	2.18909E-002	-9.66373E-004	-1.21752E-003	2.02932E-002	-1.32908E-003
	74	74	1.10087E+000	3.13025E-002	0.00000E+000	3.44601E-002	3.12317E-001	3.86729E-002	4.53058E+001	11	...........	6.45555E-002	-3.38861E-003	5.63565E-001	6.91406E-001	-3.05322E-002	-3.84478E-002	6.40894E-001	-4.19679E-002	2.02075E-003	-1.06072E-004	1.76410E-002	2.16427E-002	-9.55735E-004	-1.20351E-003	2.00616E-002	-1.31370E-003
	75	75	1.10081E+000	3.14492E-002	0.00000E+000	3.46196E-002	3.13769E-001	3.85748E-002	4.56473E+001	11	...........	6.43736E-002	-3.32028E-003	5.63378E-001	6.91409E-001	-3.05136E-002	-3.84312E-002	6.40870E-001	-4.20668E-002	2.02450E-003	-1.04420E-004	1.77178E-002	2.17442E-002	-9.59628E-004	-1.20863E-003	2.01548E-002	-1.32297E-003
	76	76	1.10087E+000	3.13958E-002	0.00000E+000	3.45627E-002	3.13238E-001	3.82844E-002	4.35710E+001	11	...........	6.38669E-002	-3.40889E-003	5.63310E-001	6.91484E-001	-3.05008E-002	-3.84435E-002	6.40961E-001	-4.21422E-002	2.00516E-003	-1.07025E-004	1.76856E-002	2.17097E-002	-9.57599E-004	-1.20697E-003	2.01235E-002	-1.32309E-003
	77	77	1.10087E+000	3.11323E-002	0.00000E+000	3.42727E-002	3.10622E-001	3.86537E-002	4.57968E+001	11	...........	6.45021E-002	-3.30986E-003	5.63387E-001	6.91602E-001	-3.05003E-002	-3.84403E-002	6.41019E-001	-4.21143E-002	2.00810E-003	-1.03043E-004	1.75395E-002	2.15312E-002	-9.49543E-004	-1.19673E-003	1.99564E-002	-1.31111E-003
	78	78	1.10081E+000	3.12225E-002	0.00000E+000	3.43700E-002	3.11519E-001	3.85049E-002	4.52839E+001	11	...........	6.42849E-002	-3.28694E-003	5.63379E-001	6.91763E-001	-3.05081E-002	-3.84426E-002	6.41040E-001	-4.20075E-002	2.00713E-003	-1.02627E-004	1.75901E-002	2.15986E-002	-9.52537E-004	-1.20027E-003	2.00149E-002	-1.31158E-003
	79	79	1.10087E+000	3.12490E-002	0.00000E+000	3.44009E-002	3.11781E-001	3.85167E-002	4.52980E+001	11	...........	6.42689E-002	-3.28875E-003	5.63362E-001	6.91653E-001	-3.05087E-002	-3.84422E-002	6.41046E-001	-4.19936E-002	2.00834E-003	-1.02770E-004	1.76045E-002	2.16134E-002	-9.53368E-004	-1.20128E-003	2.00320E-002	-1.31226E-003
	80	80	1.10088E+000	3.09117E-002	0.00000E+000	3.40299E-002	3.08428E-001	3.83667E-002	4.53627E+001	11	...........	6.40515E-002	-3.36028E-003	5.63478E-001	6.91591E-001	-3.05124E-002	-3.84258E-002	6.41117E-001	-4.21151E-002	1.97994E-003	-1.03872E-004	1.74180E-002	2.13782E-002	-9.43188E-004	-1.18781E-003	1.98180E-002	-1.30185E-003
	81	81	1.10081E+000	3.10233E-002	0.00000E+000	3.41507E-002	3.09543E-001	3.83528E-002	4.57881E+001	11	...........	6.39829E-002	-3.26694E-003	5.63507E-001	6.91530E-001	-3.05047E-002	-3.84118E-002	6.41052E-001	-4.20951E-002	1.98496E-003	-1.01351E-004	1.74819E-002	2.14536E-002	-9.46358E-004	-1.19166E-003	1.98876E-002	-1.30593E-003
	82	82	1.10086E+000	3.10394E-002	0.00000E+000	3.41701E-002	3.09701E-001	3.84044E-002	4.46576E+001	11	...........	6.40833E-002	-3.29403E-003	5.63467E-001	6.91350E-001	-3.05107E-002	-3.84233E-002	6.41085E-001	-4.21240E-002	1.98911E-003	-1.02244E-004	1.74897E-002	2.14591E-002	-9.47032E-004	-1.19264E-003	1.98988E-002	-1.30750E-003
	83	83	1.10088E+000	3.07265E-002	0.00000E+000	3.38263E-002	3.06595E-001	3.84677E-002	4.68118E+001	11	...........	6.42076E-002	-3.21681E-003	5.63480E-001	6.91392E-001	-3.04940E-002	-3.84267E-002	6.40977E-001	-4.20337E-002	1.97288E-003	-9.88413E-005	1.73138E-002	2.12441E-002	-9.36976E-004	-1.18072E-003	1.96950E-002	-1.29155E-003
	84	84	1.10081E+000	3.07977E-002	0.00000E+000	3.39023E-002	3.07299E-001	3.84768E-002	4.50293E+001	11	...........	6.42044E-002	-3.34306E-003	5.63446E-001	6.91397E-001	-3.05083E-002	-3.84367E-002	6.41013E-001	-4.21431E-002	1.97735E-003	-1.02958E-004	1.73528E-002	2.12934E-002	-9.39586E-004	-1.18376E-003	1.97417E-002	-1.29791E-003
	85	85	1.10086E+000	3.08027E-002	0.00000E+000	3.39096E-002	3.07354E-001	3.81163E-002	4.43713E+001	11	...........	6.35961E-002	-3.22569E-003	5.63302E-001	6.91352E-001	-3.05281E-002	-3.84311E-002	6.40979E-001	-4.22414E-002	1.95893E-003	-9.93602E-005	1.73513E-002	2.12955E-002	-9.40348E-004	-1.18378E-003	1.97439E-002	-1.30115E-003
	86	86	1.10088E+000	3.05544E-002	0.00000E+000	3.36368E-002	3.04881E-001	3.85660E-002	4.60884E+001	11	...........	6.43747E-002	-3.20556E-003	5.63272E-001	6.91324E-001	-3.05375E-002	-3.84322E-002	6.41004E-001	-4.21256E-002	1.96693E-003	-9.79439E-005	1.72104E-002	2.11230E-002	-9.33055E-004	-1.17427E-003	1.95855E-002	-1.28712E-003
	87	87	1.10081E+000	3.05944E-002	0.00000E+000	3.36786E-002	3.05277E-001	3.81898E-002	4.55945E+001	11	...........	6.37108E-002	-3.21403E-003	5.63107E-001	6.91303E-001	-3.05296E-002	-3.84196E-002	6.41103E-001	-4.20207E-002	1.94920E-003	-9.83313E-005	1.72279E-002	2.11500E-002	-9.34035E-004	-1.17543E-003	1.96142E-002	-1.28560E-003
	88	88	1.10086E+000	3.05952E-002	0.00000E+000	3.36810E-002	3.05282E-001	3.82717E-002	4.38422E+001	11	...........	6.38486E-002	-3.26042E-003	5.62937E-001	6.91162E-001	-3.05537E-002	-3.84328E-002	6.41043E-001	-4.19308E-002	1.95346E-003	-9.97532E-005	1.72232E-002	2.11463E-002	-9.34799E-004	-1.17586E-003	1.96129E-002	-1.28288E-003
	89	89	1.10089E+000	3.03413E-002	0.00000E+000	3.34024E-002	3.02761E-001	3.85335E-002	4.43930E+001	11	...........	6.43071E-002	-3.34917E-003	5.62971E-001	6.91164E-001	-3.05179E-002	-3.84497E-002	6.40990E-001	-4.19639E-002	1.95116E-003	-1.01618E-004	1.70813E-002	2.09709E-002	-9.25954E-004	-1.16662E-003	1.94485E-002	-1.27324E-003
	90	90	1.10081E+000	3.04110E-002	0.00000E+000	3.34766E-002	3.03453E-001	3.83191E-002	4.61610E+001	11	...........	6.39504E-002	-3.27875E-003	5.62974E-001	6.91158E-001	-3.05192E-002	-3.85015E-002	6.40960E-001	-4.19447E-002	1.94480E-003	-9.97101E-005	1.71206E-002	2.10188E-002	-9.28118E-004	-1.17087E-003	1.94922E-002	-1.27558E-003
	91	91	1.10086E+000	3.04198E-002	0.00000E+000	3.34878E-002	3.03537E-001	3.82311E-002	4.60630E+001	11	...........	6.38117E-002	-3.35528E-003	5.63037E-001	6.91107E-001	-3.05117E-002	-3.85189E-002	6.41025E-001	-4.19864E-002	1.94114E-003	-1.02067E-004	1.71275E-002	2.10233E-002	-9.28159E-004	-1.17174E-003	1.94999E-002	-1.27722E-003
	92	92	1.10089E+000	3.01227E-002	0.00000E+000	3.31618E-002	3.00585E-001	3.83734E-002	4.50716E+001	11	...........	6.40415E-002	-3.34917E-003	5.62986E-001	6.91112E-001	-3.04993E-002	-3.85269E-002	6.41010E-001	-4.19878E-002	1.92910E-003	-1.00886E-004	1.69586E-002	2.08181E-002	-9.18720E-004	-1.16053E-003	1.93089E-002	-1.26478E-003
	93	93	1.10081E+000	3.01895E-002	0.00000E+000	3.32327E-002	3.01249E-001	3.81345E-002	4.54231E+001	11	...........	6.36200E-002	-3.31389E-003	5.62888E-001	6.90923E-001	-3.04682E-002	-3.85383E-002	6.40910E-001	-4.19372E-002	1.92065E-003	-1.00044E-004	1.69933E-002	2.08586E-002	-9.19818E-004	-1.16345E-003	1.93487E-002	-1.26606E-003
	94	94	1.10086E+000	3.02257E-002	0.00000E+000	3.32742E-002	3.01603E-001	3.83583E-002	4.51605E+001	11	...........	6.40162E-002	-3.32514E-003	5.62917E-001	6.90854E-001	-3.04479E-002	-3.85401E-002	6.40843E-001	-4.18782E-002	1.93494E-003	-1.00505E-004	1.70146E-002	2.08816E-002	-9.20311E-004	-1.16490E-003	1.93699E-002	-1.26580E-003
	95	95	1.10089E+000	2.99135E-002	0.00000E+000	3.29315E-002	2.98503E-001	3.82127E-002	4.56957E+001	11	...........	6.37640E-002	-3.27306E-003	5.62806E-001	6.90828E-001	-3.04481E-002	-3.85465E-002	6.40805E-001	-4.19418E-002	1.90740E-003	-9.79085E-005	1.68355E-002	2.06651E-002	-9.10808E-004	-1.15306E-003	1.91687E-002	-1.25463E-003
	96	96	1.10081E+000	2.99721E-002	0.00000E+000	3.29935E-002	2.99084E-001	3.83145E-002	4.41724E+001	11	...........	6.39544E-002	-3.22264E-003	5.62914E-001	6.90933E-001	-3.04717E-002	-3.85587E-002	6.40911E-001	-4.19535E-002	1.91685E-003	-9.65892E-005	1.68717E-002	2.07087E-002	-9.13299E-004	-1.15569E-003	1.92094E-002	-1.25743E-003
	97	97	1.10085E+000	3.00087E-002	0.00000E+000	3.30351E-002	2.99449E-001	3.80119E-002	4.39816E+001	11	...........	6.34269E-002	-3.24500E-003	5.62918E-001	6.90939E-001	-3.04558E-002	-3.85550E-002	6.40932E-001	-4.19672E-002	1.90336E-003	-9.73782E-005	1.68924E-002	2.07342E-002	-9.13940E-004	-1.15699E-003	1.92335E-002	-1.25938E-003
	98	98	1.10090E+000	2.97212E-002	0.00000E+000	3.27199E-002	2.96593E-001	3.83387E-002	4.66023E+001	11	...........	6.39656E-002	-3.28208E-003	5.62847E-001	6.91086E-001	-3.04342E-002	-3.85350E-002	6.40975E-001	-4.19931E-002	1.90113E-003	-9.75473E-005	1.67285E-002	2.05399E-002	-9.04539E-004	-1.14530E-003	1.90505E-002	-1.24808E-003
	99	99	1.10081E+000	2.97865E-002	0.00000E+000	3.27892E-002	2.97243E-001	3.82921E-002	4.55750E+001	11	...........	6.39139E-002	-3.34389E-003	5.62713E-001	6.91072E-001	-3.04224E-002	-3.85419E-002	6.40989E-001	-4.19317E-002	1.90377E-003	-9.96027E-005	1.67612E-002	2.05846E-002	-9.06175E-004	-1.14803E-003	1.90928E-002	-1.24900E-003
	100	100	1.10085E+000	2.98186E-002	0.00000E+000	3.28257E-002	2.97560E-001	3.82236E-002	4.61227E+001	11	...........	6.37650E-002	-3.33278E-003	5.62654E-001	6.91107E-001	-3.04203E-002	-3.85347E-002	6.40990E-001	-4.18974E-002	1.90138E-003	-9.93788E-005	1.67776E-002	2.06079E-002	-9.07090E-004	-1.14905E-003	1.91134E-002	-1.24932E-003
	101	101	1.10090E+000	2.95131E-002	0.00000E+000	3.24910E-002	2.94523E-001	3.79716E-002	4.33886E+001	11	...........	6.33476E-002	-3.34264E-003	5.62570E-001	6.91131E-001	-3.04590E-002	-3.85154E-002	6.40969E-001	-4.20215E-002	1.86959E-003	-9.86518E-005	1.66032E-002	2.03975E-002	-8.98941E-004	-1.13671E-003	1.89170E-002	-1.24019E-003
	102	102	1.10080E+000	2.96211E-002	0.00000E+000	3.26071E-002	2.95598E-001	3.83837E-002	4.58594E+001	11	...........	6.40685E-002	-3.27847E-003	5.62710E-001	6.91081E-001	-3.04747E-002	-3.84936E-002	6.41051E-001	-4.21007E-002	1.89778E-003	-9.71120E-005	1.66681E-002	2.04706E-002	-9.02695E-004	-1.14022E-003	1.89887E-002	-1.24707E-003
	103	103	1.10085E+000	2.96210E-002	0.00000E+000	3.26082E-002	2.95592E-001	3.80523E-002	4.54629E+001	11	...........	6.35004E-002	-3.30333E-003	5.62671E-001	6.91028E-001	-3.04599E-002	-3.84639E-002	6.41066E-001	-4.21937E-002	1.88095E-003	-9.78481E-005	1.66669E-002	2.04690E-002	-9.02252E-004	-1.13934E-003	1.89890E-002	-1.24982E-003
	104	104	1.10090E+000	2.93825E-002	0.00000E+000	3.23473E-002	2.93223E-001	3.81510E-002	4.57644E+001	11	...........	6.36507E-002	-3.15292E-003	5.62685E-001	6.91067E-001	-3.04654E-002	-3.84711E-002	6.40934E-001	-4.20879E-002	1.87022E-003	-9.26407E-005	1.65331E-002	2.03053E-002	-8.95151E-004	-1.13038E-003	1.88323E-002	-1.23665E-003
	105	105	1.10080E+000	2.93840E-002	0.00000E+000	3.23461E-002	2.93241E-001	3.80727E-002	4.54163E+001	11	...........	6.35194E-002	-3.16347E-003	5.62710E-001	6.91174E-001	-3.04533E-002	-3.84885E-002	6.40935E-001	-4.21508E-002	1.86646E-003	-9.29556E-005	1.65347E-002	2.03095E-002	-8.94842E-004	-1.13095E-003	1.88333E-002	-1.23856E-003
	106	106	1.10085E+000	2.94480E-002	0.00000E+000	3.24177E-002	2.93879E-001	3.80869E-002	4.45715E+001	11	...........	6.35418E-002	-3.29000E-003	5.62882E-001	6.91186E-001	-3.04589E-002	-3.84710E-002	6.41039E-001	-4.22475E-002	1.87118E-003	-9.68840E-005	1.65758E-002	2.03541E-002	-8.96954E-004	-1.13289E-003	1.88773E-002	-1.24410E-003
	107	107	1.10090E+000	2.91663E-002	0.00000E+000	3.21092E-002	2.91083E-001	3.82130E-002	4.66421E+001	11	...........	6.37835E-002	-3.36264E-003	5.62855E-001	6.91362E-001	-3.04843E-002	-3.84839E-002	6.40966E-001	-4.23433E-002	1.86033E-003	-9.80758E-005	1.64164E-002	2.01645E-002	-8.89116E-004	-1.12243E-003	1.86946E-002	-1.23500E-003
	108	108	1.10081E+000	2.91553E-002	0.00000E+000	3.20943E-002	2.90973E-001	3.79562E-002	4.47935E+001	11	...........	6.33135E-002	-3.28514E-003	5.62758E-001	6.91329E-001	-3.05008E-002	-3.84865E-002	6.40930E-001	-4.22068E-002	1.84592E-003	-9.57791E-005	1.64074E-002	2.01559E-002	-8.89260E-004	-1.12208E-003	1.86865E-002	-1.23055E-003
	109	109	1.10085E+000	2.92404E-002	0.00000E+000	3.21892E-002	2.91815E-001	3.82042E-002	4.48241E+001	11	...........	6.37417E-002	-3.25778E-003	5.62699E-001	6.91373E-001	-3.04856E-002	-3.84733E-002	6.41019E-001	-4.21667E-002	1.86383E-003	-9.52588E-005	1.64536E-002	2.02160E-002	-8.91411E-004	-1.12498E-003	1.87437E-002	-1.23297E-003
	110	110	1.10090E+000	2.89762E-002	0.00000E+000	3.18999E-002	2.89195E-001	3.79083E-002	4.37102E+001	11	...........	6.32347E-002	-3.21000E-003	5.62681E-001	6.91392E-001	-3.04789E-002	-3.84583E-002	6.40861E-001	-4.21326E-002	1.83230E-003	-9.30135E-005	1.63043E-002	2.00339E-002	-8.83161E-004	-1.11438E-003	1.85697E-002	-1.22084E-003
	111	111	1.10081E+000	2.89758E-002	0.00000E+000	3.18967E-002	2.89190E-001	3.80338E-002	4.61786E+001	11	...........	6.34469E-002	-3.26556E-003	5.62780E-001	6.91493E-001	-3.04856E-002	-3.84651E-002	6.40806E-001	-4.21089E-002	1.83842E-003	-9.46220E-005	1.63070E-002	2.00365E-002	-8.83342E-004	-1.11456E-003	1.85679E-002	-1.22014E-003
	112	112	1.10084E+000	2.90730E-002	0.00000E+000	3.20047E-002	2.90156E-001	3.81593E-002	4.54327E+001	11	...........	6.36678E-002	-3.26931E-003	5.62874E-001	6.91522E-001	-3.05047E-002	-3.84807E-002	6.40908E-001	-4.20644E-002	1.85101E-003	-9.50484E-005	1.63644E-002	2.01046E-002	-8.86862E-004	-1.11875E-003	1.86331E-002	-1.22294E-003
	113	113	1.10091E+000	2.87547E-002	0.00000E+000	3.16562E-002	2.86991E-001	3.77578E-002	4.49706E+001	11	...........	6.29547E-002	-3.17222E-003	5.62784E-001	6.91471E-001	-3.04786E-002	-3.84822E-002	6.40774E-001	-4.22078E-002	1.81024E-003	-9.12163E-005	1.61827E-002	1.98830E-002	-8.76403E-004	-1.10654E-003	1.84253E-002	-1.21367E-003
	114	114	1.10081E+000	2.87542E-002	0.00000E+000	3.16528E-002	2.86988E-001	3.82379E-002	4.34488E+001	11	...........	6.38062E-002	-3.30153E-003	5.62851E-001	6.91558E-001	-3.04915E-002	-3.84661E-002	6.40823E-001	-4.21517E-002	1.83470E-003	-9.49327E-005	1.61843E-002	1.98852E-002	-8.76758E-004	-1.10606E-003	1.84263E-002	-1.21204E-003
	115	115	1.10084E+000	2.88612E-002	0.00000E+000	3.17715E-002	2.88054E-001	3.80010E-002	4.53398E+001	11	...........	6.34257E-002	-3.18931E-003	5.62943E-001	6.91598E-001	-3.04871E-002	-3.84700E-002	6.40818E-001	-4.21018E-002	1.83054E-003	-9.20471E-005	1.62472E-002	1.99603E-002	-8.79893E-004	-1.11029E-003	1.84948E-002	-1.21511E-003
	116	116	1.10091E+000	2.86162E-002	0.00000E+000	3.15037E-002	2.85617E-001	3.79737E-002	4.50444E+001	11	...........	6.33412E-002	-3.27583E-003	5.62833E-001	6.91543E-001	-3.04879E-002	-3.84764E-002	6.40843E-001	-4.20015E-002	1.81258E-003	-9.37417E-005	1.61061E-002	1.97893E-002	-8.72447E-004	-1.10105E-003	1.83385E-002	-1.20192E-003
	117	117	1.10081E+000	2.85625E-002	0.00000E+000	3.14418E-002	2.85087E-001	3.80278E-002	4.47136E+001	11	...........	6.34518E-002	-3.29944E-003	5.62866E-001	6.91475E-001	-3.05094E-002	-3.84807E-002	6.40894E-001	-4.19771E-002	1.81234E-003	-9.42404E-005	1.60769E-002	1.97503E-002	-8.71426E-004	-1.09910E-003	1.83055E-002	-1.19897E-003
	118	118	1.10084E+000	2.86551E-002	0.00000E+000	3.15447E-002	2.86005E-001	3.77959E-002	4.31986E+001	11	...........	6.30283E-002	-3.31889E-003	5.62904E-001	6.91387E-001	-3.05039E-002	-3.84365E-002	6.40965E-001	-4.19522E-002	1.80608E-003	-9.51031E-005	1.61301E-002	1.98118E-002	-8.74092E-004	-1.10140E-003	1.83669E-002	-1.20214E-003
	119	119	1.10091E+000	2.84509E-002	0.00000E+000	3.13218E-002	2.83981E-001	3.81871E-002	4.38127E+001	11	...........	6.37204E-002	-3.25736E-003	5.62871E-001	6.91351E-001	-3.04940E-002	-3.84397E-002	6.40959E-001	-4.19372E-002	1.81290E-003	-9.26749E-005	1.60142E-002	1.96695E-002	-8.67583E-004	-1.09364E-003	1.82359E-002	-1.19315E-003
	120	120	1.10081E+000	2.84135E-002	0.00000E+000	3.12778E-002	2.83609E-001	3.79928E-002	4.41766E+001	11	...........	6.33635E-002	-3.25750E-003	5.62843E-001	6.91197E-001	-3.04878E-002	-3.83958E-002	6.40918E-001	-4.20089E-002	1.80038E-003	-9.25571E-005	1.59924E-002	1.96393E-002	-8.66266E-004	-1.09096E-003	1.82108E-002	-1.19362E-003
	121	121	1.10084E+000	2.84861E-002	0.00000E+000	3.13586E-002	2.84332E-001	3.80022E-002	4.45276E+001	11	...........	6.33844E-002	-3.19458E-003	5.62828E-001	6.90875E-001	-3.04644E-002	-3.83894E-002	6.40905E-001	-4.19760E-002	1.80558E-003	-9.10013E-005	1.60328E-002	1.96804E-002	-8.67814E-004	-1.09357E-003	1.82569E-002	-1.19573E-003
	122	122	1.10091E+000	2.82463E-002	0.00000E+000	3.10965E-002	2.81940E-001	3.79264E-002	4.51562E+001	11	...........	6.32504E-002	-3.28139E-003	5.62780E-001	6.90868E-001	-3.04556E-002	-3.83885E-002	6.41035E-001	-4.19525E-002	1.78659E-003	-9.26872E-005	1.58965E-002	1.95145E-002	-8.60258E-004	-1.08433E-003	1.81069E-002	-1.18500E-003
	123	122.368	1.10085E+000	2.83429E-002	0.00000E+000	3.12013E-002	2.82908E-001	3.84387E-002	4.41898E+001	11	...........	6.41686E-002	-3.38952E-003	5.62835E-001	6.90773E-001	-3.04702E-002	-3.83952E-002	6.41001E-001	-4.20004E-002	1.81872E-003	-9.60687E-005	1.59524E-002	1.95785E-002	-8.63614E-004	-1.08823E-003	1.81678E-002	-1.19041E-003
STARTTIMEOFFSET	QUANT	755085.6	Start Time Offset (s)
