EXPLAIN
TAG	PWR800_CHARGE
TITLE	LABEL	PWR Charge	Test Identifier
DATE	LABEL	10/16/2022	Date
TIME	LABEL	10:04:03	Time
NOTES	NOTES	1	Notes...
	
PSTAT	PSTAT	REF3000-21114	Potentiostat
CAPACITY	QUANT	5.30000E-002	Capacity (A-hr)
CELLTYPE	SELECTOR	1	Cell Type
WORKINGCONNECTION	SELECTOR	0	Working Connection
MAXCHARGETIME	VARIABLEANDUNITS	7.20000E+003	s	2.00000E+000	hour(s)	Max Charge Time
CHARGEMODE	MULTIPARAM	0	1.00000E-001	Charge Mode	Constant Current	Amp(s)
CHARGECURRENT	QUANT	0.1	Charge Current (A)
VOLTAGEFINISH	TWOPARAM	T	2.50000E-002	7.20000E+003	Voltage Finish	I (A) <	Max Time(s)
SAMPLETIME	QUANT	1.00000E+000	Sample Period (s)
CHARGESTOPAT1	MULTIPARAM	2	1.10000E+000	Stop At 1	|Voltage| > Limit	V
CHARGESTOPAT2	MULTIPARAM	0	0.00000E+000	Stop At 2	None	N/A
AESELECTOR	AESELECTOR	0x1	T	Set Limits	AE Channels
AESBHCSELECTOR	TOGGLE	F	Save Both Half Cells
IRCOMP	TOGGLE	F	IR Measure
EOC	QUANT	0.2740886	Open Circuit (V)
SEQUENCER	TOGGLE	TRUE	Run as Sequence
PSTATMODEL	IQUANT	5	Pstat Model
PSTATSECTION	LABEL	REF3000-21114	Pstat Section
PSTATSERIALNO	LABEL	21114	Pstat Serial Number
CTRLMODE	IQUANT	0	Control Mode
ELECTROMETER	IQUANT	0	RE=0 or CS=1
IESTAB	IQUANT	0	I/E Stability
CASPEED	IQUANT	4	Control Amp Speed
CONVENTION	IQUANT	1	Current Convention
ICHRANGE	IQUANT	2	Ich Range
ICHRANGEMODE	TOGGLE	T	Ich Auto Range
ICHOFFSETENABLE	TOGGLE	F	Ich Offset Enable
ICHOFFSET	QUANT	0	Ich Offset (V)
ICHFILTER	IQUANT	1	Ich Filter
VCHRANGE	IQUANT	3	Vch Range
VCHRANGEMODE	TOGGLE	T	Vch Auto Range
VCHOFFSETENABLE	TOGGLE	F	Vch Offset Enable
VCHOFFSET	QUANT	0	Vch Offset (V)
VCHFILTER	IQUANT	1	Vch Filter
ACHRANGE	IQUANT	2	Ach Range
ACHOFFSETENABLE	TOGGLE	F	Ach Offset Enable
ACHOFFSET	QUANT	0	Ach Offset (V)
ACHFILTER	IQUANT	1	Ach Filter
IERANGELOWERLIMIT	IQUANT	9	I/E Range Lower Limit
IERANGEMODE	TOGGLE	F	I/E AutoRange
IERANGE	IQUANT	9	I/E Range
POSFEEDENABLE	TOGGLE	F	Positive Feedback IR Comp
POSFEEDRESISTANCE	QUANT	0	Positive Feedback Resistance (ohm)
ACHSELECT	IQUANT	1	Ach Select
SENSECABLEID	IQUANT	13	Sense Cable ID
PWRCABLEID	IQUANT	13	Power Cable ID
DCCALDATE	LABEL		DC Calibration Date
ACCALDATE	LABEL		AC Calibration Date
THERMOSELECT	IQUANT	1	Thermo Select
FRAMEWORKVERSION	LABEL	7.8.6	Framework Version
INSTRUMENTVERSION	LABEL	4.50	Instrument Version
COMPLIANCEVOLTAGE	IQUANT	0	Compliance Voltage
CURVE	TABLE	61
	Pt	T	Vf	Im	Vu	Pwr	Sig	Ach	Temp	IERange	Over	Vf1	Vf2	Vf3	Vf4	Vf5	Vf6	Vf7	Vf8	Pwr1	Pwr2	Pwr3	Pwr4	Pwr5	Pwr6	Pwr7	Pwr8
	#	s	V	A	V	W	V	V	deg C	#	bits	V	V	V	V	V	V	V	V	W	W	W	W	W	W	W	W
	0	1	5.70095E-001	9.98652E-002	0.00000E+000	5.69327E-002	9.94000E-001	3.80477E-002	3.94848E+001	11	...........	6.31161E-002	-4.33917E-003	5.75664E-001	6.24511E-001	-2.92506E-002	-3.89590E-002	6.66759E-001	-4.30715E-002	6.30310E-003	-4.33332E-004	5.74888E-002	6.23669E-002	-2.92111E-003	-3.89065E-003	6.65860E-002	-4.30135E-003
	1	2	8.29843E-001	9.98651E-002	0.00000E+000	8.28724E-002	9.94000E-001	3.87621E-002	4.37301E+001	11	...........	6.42894E-002	-4.37681E-003	5.75703E-001	6.24378E-001	-2.92687E-002	-3.89515E-002	6.66748E-001	-4.30229E-002	6.42027E-003	-4.37090E-004	5.74926E-002	6.23536E-002	-2.92293E-003	-3.88990E-003	6.65849E-002	-4.29649E-003
	2	2.05667	1.08789E+000	9.98665E-002	0.00000E+000	1.08643E-001	9.94000E-001	3.91338E-002	4.89206E+001	11	...........	6.48823E-002	-4.49265E-003	5.75789E-001	6.24441E-001	-2.88627E-002	-3.90760E-002	6.66711E-001	-4.30686E-002	6.47957E-003	-4.48665E-004	5.75021E-002	6.23608E-002	-2.88242E-003	-3.90238E-003	6.65821E-002	-4.30111E-003
	3	3	1.10142E+000	6.33473E-002	0.00000E+000	6.97718E-002	6.30879E-001	3.86365E-002	4.78252E+001	11	...........	6.40534E-002	-4.51914E-003	5.75791E-001	6.24502E-001	-2.92862E-002	-3.89473E-002	6.66819E-001	-4.30863E-002	4.05762E-003	-2.86276E-004	3.64748E-002	3.95605E-002	-1.85520E-003	-2.46721E-003	4.22412E-002	-2.72940E-003
	4	4	1.10092E+000	4.62706E-002	0.00000E+000	5.09402E-002	4.61087E-001	3.83735E-002	4.71670E+001	11	...........	6.36456E-002	-4.48278E-003	5.75735E-001	6.24363E-001	-2.92737E-002	-3.89364E-002	6.66835E-001	-4.31097E-002	2.94492E-003	-2.07421E-004	2.66396E-002	2.88896E-002	-1.35451E-003	-1.80161E-003	3.08548E-002	-1.99471E-003
	5	5	1.10093E+000	4.10372E-002	0.00000E+000	4.51792E-002	4.09045E-001	3.86295E-002	4.64647E+001	11	...........	6.40667E-002	-4.49889E-003	5.75543E-001	6.24363E-001	-2.92846E-002	-3.89385E-002	6.66639E-001	-4.30078E-002	2.62912E-003	-1.84622E-004	2.36187E-002	2.56221E-002	-1.20176E-003	-1.59793E-003	2.73570E-002	-1.76492E-003
	6	6	1.10081E+000	3.84494E-002	0.00000E+000	4.23255E-002	3.83323E-001	3.85463E-002	4.66471E+001	11	...........	6.39096E-002	-4.42806E-003	5.75511E-001	6.24566E-001	-2.92836E-002	-3.89510E-002	6.66498E-001	-4.30362E-002	2.45728E-003	-1.70256E-004	2.21280E-002	2.40142E-002	-1.12594E-003	-1.49764E-003	2.56264E-002	-1.65472E-003
	7	7	1.10085E+000	3.68063E-002	0.00000E+000	4.05181E-002	3.66988E-001	3.85285E-002	4.61621E+001	11	...........	6.38708E-002	-4.32569E-003	5.75658E-001	6.24566E-001	-2.92904E-002	-3.89622E-002	6.66506E-001	-4.30542E-002	2.35085E-003	-1.59213E-004	2.11878E-002	2.29879E-002	-1.07807E-003	-1.43405E-003	2.45316E-002	-1.58466E-003
	8	8	1.10091E+000	3.52577E-002	0.00000E+000	3.88154E-002	3.51586E-001	3.83410E-002	4.62853E+001	11	...........	6.35796E-002	-4.32403E-003	5.75646E-001	6.24492E-001	-2.92996E-002	-3.89428E-002	6.66582E-001	-4.30740E-002	2.24167E-003	-1.52455E-004	2.02960E-002	2.20182E-002	-1.03304E-003	-1.37303E-003	2.35022E-002	-1.51869E-003
	9	9	1.10080E+000	3.43997E-002	0.00000E+000	3.78672E-002	3.43054E-001	3.85913E-002	4.59702E+001	11	...........	6.39819E-002	-4.20931E-003	5.75622E-001	6.24466E-001	-2.92632E-002	-3.89285E-002	6.66657E-001	-4.30408E-002	2.20096E-003	-1.44799E-004	1.98012E-002	2.14815E-002	-1.00664E-003	-1.33913E-003	2.29328E-002	-1.48059E-003
	10	10	1.10084E+000	3.38127E-002	0.00000E+000	3.72222E-002	3.37221E-001	3.83977E-002	4.36097E+001	11	...........	6.36754E-002	-4.11653E-003	5.75460E-001	6.24354E-001	-2.92544E-002	-3.89332E-002	6.66636E-001	-4.31347E-002	2.15304E-003	-1.39191E-004	1.94579E-002	2.11111E-002	-9.89171E-004	-1.31644E-003	2.25407E-002	-1.45850E-003
	11	11	1.10090E+000	3.30658E-002	0.00000E+000	3.64021E-002	3.29794E-001	3.84726E-002	4.61888E+001	11	...........	6.38292E-002	-4.03708E-003	5.75454E-001	6.24400E-001	-2.92494E-002	-3.89225E-002	6.66611E-001	-4.30815E-002	2.11056E-003	-1.33489E-004	1.90278E-002	2.06463E-002	-9.67156E-004	-1.28700E-003	2.20420E-002	-1.42452E-003
	12	12	1.10079E+000	3.27342E-002	0.00000E+000	3.60336E-002	3.26497E-001	3.84467E-002	4.57644E+001	11	...........	6.37581E-002	-4.07764E-003	5.75769E-001	6.24317E-001	-2.92685E-002	-3.89114E-002	6.66711E-001	-4.30110E-002	2.08707E-003	-1.33478E-004	1.88474E-002	2.04365E-002	-9.58081E-004	-1.27374E-003	2.18243E-002	-1.40793E-003
	13	13	1.10083E+000	3.25044E-002	0.00000E+000	3.57819E-002	3.24211E-001	3.83643E-002	4.50524E+001	11	...........	6.36125E-002	-4.11764E-003	5.75740E-001	6.24357E-001	-2.92697E-002	-3.89040E-002	6.66633E-001	-4.31087E-002	2.06769E-003	-1.33841E-004	1.87141E-002	2.02943E-002	-9.51394E-004	-1.26455E-003	2.16685E-002	-1.40122E-003
	14	14	1.10090E+000	3.20003E-002	0.00000E+000	3.52290E-002	3.19198E-001	3.85573E-002	4.53168E+001	11	...........	6.39132E-002	-4.07056E-003	5.75797E-001	6.24238E-001	-2.92558E-002	-3.89168E-002	6.66576E-001	-4.31312E-002	2.04524E-003	-1.30259E-004	1.84257E-002	1.99758E-002	-9.36194E-004	-1.24535E-003	2.13306E-002	-1.38021E-003
	15	15	1.10079E+000	3.18316E-002	0.00000E+000	3.50400E-002	3.17526E-001	3.83729E-002	4.38263E+001	11	...........	6.36082E-002	-4.16444E-003	5.75772E-001	6.24354E-001	-2.92492E-002	-3.89303E-002	6.66656E-001	-4.31875E-002	2.02475E-003	-1.32561E-004	1.83278E-002	1.98742E-002	-9.31048E-004	-1.23921E-003	2.12207E-002	-1.37473E-003
	16	16	1.10083E+000	3.17874E-002	0.00000E+000	3.49926E-002	3.17082E-001	3.84761E-002	4.47043E+001	11	...........	6.37914E-002	-4.18750E-003	5.75824E-001	6.24475E-001	-2.92472E-002	-3.89328E-002	6.66506E-001	-4.30869E-002	2.02777E-003	-1.33110E-004	1.83040E-002	1.98505E-002	-9.29694E-004	-1.23757E-003	2.11865E-002	-1.36962E-003
	17	17	1.10089E+000	3.14060E-002	0.00000E+000	3.45747E-002	3.13290E-001	3.83733E-002	4.47901E+001	11	...........	6.36557E-002	-4.15500E-003	5.75882E-001	6.24284E-001	-2.92221E-002	-3.89140E-002	6.66503E-001	-4.31510E-002	1.99917E-003	-1.30492E-004	1.80862E-002	1.96063E-002	-9.17750E-004	-1.22214E-003	2.09322E-002	-1.35520E-003
	18	18	1.10079E+000	3.12907E-002	0.00000E+000	3.44446E-002	3.12144E-001	3.82684E-002	4.39209E+001	11	...........	6.34811E-002	-4.14403E-003	5.75838E-001	6.24254E-001	-2.92206E-002	-3.89040E-002	6.66490E-001	-4.30483E-002	1.98637E-003	-1.29670E-004	1.80184E-002	1.95334E-002	-9.14332E-004	-1.21734E-003	2.08550E-002	-1.34701E-003
	19	19	1.10083E+000	3.12803E-002	0.00000E+000	3.44343E-002	3.12038E-001	3.83124E-002	4.42998E+001	11	...........	6.35465E-002	-4.22347E-003	5.75965E-001	6.24185E-001	-2.92257E-002	-3.88904E-002	6.66434E-001	-4.30579E-002	1.98775E-003	-1.32111E-004	1.80163E-002	1.95247E-002	-9.14187E-004	-1.21650E-003	2.08462E-002	-1.34686E-003
	20	20	1.10089E+000	3.09640E-002	0.00000E+000	3.40881E-002	3.08902E-001	3.81890E-002	4.33837E+001	11	...........	6.35774E-002	-4.33236E-003	5.75992E-001	6.24169E-001	-2.92254E-002	-3.89039E-002	6.66549E-001	-4.30503E-002	1.96861E-003	-1.34147E-004	1.78350E-002	1.93268E-002	-9.04936E-004	-1.20462E-003	2.06390E-002	-1.33301E-003
	21	21	1.10079E+000	3.08869E-002	0.00000E+000	3.40001E-002	3.08135E-001	3.79556E-002	4.39224E+001	11	...........	6.33251E-002	-4.17861E-003	5.76125E-001	6.23927E-001	-2.92225E-002	-3.89112E-002	6.66611E-001	-4.30492E-002	1.95592E-003	-1.29064E-004	1.77947E-002	1.92712E-002	-9.02593E-004	-1.20185E-003	2.05896E-002	-1.32966E-003
	22	22	1.10083E+000	3.09407E-002	0.00000E+000	3.40604E-002	3.08671E-001	3.81312E-002	4.50870E+001	11	...........	6.36118E-002	-4.34736E-003	5.76252E-001	6.23878E-001	-2.92282E-002	-3.89153E-002	6.66703E-001	-4.30011E-002	1.96820E-003	-1.34510E-004	1.78296E-002	1.93033E-002	-9.04342E-004	-1.20407E-003	2.06283E-002	-1.33049E-003
	23	23	1.10089E+000	3.06412E-002	0.00000E+000	3.37328E-002	3.05695E-001	3.81479E-002	4.39278E+001	11	...........	6.36464E-002	-4.33833E-003	5.76263E-001	6.23703E-001	-2.92442E-002	-3.89179E-002	6.66679E-001	-4.31974E-002	1.95020E-003	-1.32932E-004	1.76574E-002	1.91110E-002	-8.96077E-004	-1.19249E-003	2.04278E-002	-1.32362E-003
	24	24	1.10079E+000	3.05791E-002	0.00000E+000	3.36613E-002	3.05075E-001	3.79623E-002	4.52365E+001	11	...........	6.33446E-002	-4.27639E-003	5.76049E-001	6.23593E-001	-2.92807E-002	-3.88899E-002	6.66648E-001	-4.30535E-002	1.93702E-003	-1.30768E-004	1.76151E-002	1.90689E-002	-8.95378E-004	-1.18922E-003	2.03855E-002	-1.31654E-003
	25	25	1.10083E+000	3.06323E-002	0.00000E+000	3.37208E-002	3.05601E-001	3.79381E-002	4.37264E+001	11	...........	6.33043E-002	-4.22958E-003	5.75990E-001	6.23688E-001	-2.92989E-002	-3.88768E-002	6.66580E-001	-4.29897E-002	1.93915E-003	-1.29562E-004	1.76439E-002	1.91050E-002	-8.97491E-004	-1.19088E-003	2.04189E-002	-1.31687E-003
	26	26	1.10089E+000	3.03479E-002	0.00000E+000	3.34097E-002	3.02775E-001	3.78365E-002	4.27379E+001	11	...........	6.31372E-002	-4.15264E-003	5.76094E-001	6.23723E-001	-2.92864E-002	-3.88843E-002	6.66632E-001	-4.30647E-002	1.91608E-003	-1.26024E-004	1.74832E-002	1.89287E-002	-8.88780E-004	-1.18006E-003	2.02309E-002	-1.30692E-003
	27	27	1.10080E+000	3.03315E-002	0.00000E+000	3.33888E-002	3.02611E-001	3.82509E-002	4.46242E+001	11	...........	6.38321E-002	-4.18153E-003	5.76085E-001	6.23680E-001	-2.92844E-002	-3.89136E-002	6.66611E-001	-4.30989E-002	1.93612E-003	-1.26832E-004	1.74735E-002	1.89172E-002	-8.88242E-004	-1.18031E-003	2.02193E-002	-1.30725E-003
	28	28	1.10083E+000	3.03771E-002	0.00000E+000	3.34399E-002	3.03066E-001	3.77419E-002	4.47045E+001	11	...........	6.29893E-002	-4.12319E-003	5.76047E-001	6.23705E-001	-2.92710E-002	-3.89367E-002	6.66585E-001	-4.30053E-002	1.91344E-003	-1.25251E-004	1.74987E-002	1.89464E-002	-8.89169E-004	-1.18278E-003	2.02490E-002	-1.30638E-003
	29	29	1.10089E+000	3.01361E-002	0.00000E+000	3.31766E-002	3.00672E-001	3.80558E-002	4.45437E+001	11	...........	6.34999E-002	-4.15083E-003	5.76047E-001	6.23749E-001	-2.92683E-002	-3.89636E-002	6.66513E-001	-4.31660E-002	1.91364E-003	-1.25090E-004	1.73598E-002	1.87974E-002	-8.82033E-004	-1.17421E-003	2.00861E-002	-1.30085E-003
	30	30	1.10080E+000	3.00506E-002	0.00000E+000	3.30796E-002	2.99819E-001	3.78333E-002	4.51459E+001	11	...........	6.31176E-002	-4.09833E-003	5.76048E-001	6.23743E-001	-2.92883E-002	-3.89721E-002	6.66452E-001	-4.32226E-002	1.89672E-003	-1.23157E-004	1.73106E-002	1.87439E-002	-8.80132E-004	-1.17113E-003	2.00273E-002	-1.29887E-003
	31	31	1.10082E+000	3.01096E-002	0.00000E+000	3.31454E-002	3.00407E-001	3.80232E-002	4.44650E+001	11	...........	6.34565E-002	-4.11653E-003	5.76202E-001	6.23807E-001	-2.92940E-002	-3.89846E-002	6.66439E-001	-4.32254E-002	1.91065E-003	-1.23947E-004	1.73492E-002	1.87826E-002	-8.82032E-004	-1.17381E-003	2.00662E-002	-1.30150E-003
	32	32	1.10089E+000	2.98927E-002	0.00000E+000	3.29087E-002	2.98254E-001	3.76822E-002	4.27328E+001	11	...........	6.28799E-002	-4.06306E-003	5.76357E-001	6.23816E-001	-2.92875E-002	-3.89626E-002	6.66378E-001	-4.30879E-002	1.87965E-003	-1.21456E-004	1.72289E-002	1.86476E-002	-8.75483E-004	-1.16470E-003	1.99199E-002	-1.28802E-003
	33	33	1.10080E+000	2.98322E-002	0.00000E+000	3.28393E-002	2.97651E-001	3.80797E-002	4.48233E+001	11	...........	6.35568E-002	-4.11194E-003	5.76411E-001	6.23913E-001	-2.92633E-002	-3.89839E-002	6.66484E-001	-4.30490E-002	1.89604E-003	-1.22668E-004	1.71956E-002	1.86127E-002	-8.72991E-004	-1.16298E-003	1.98827E-002	-1.28425E-003
	34	34	1.10082E+000	2.98917E-002	0.00000E+000	3.29055E-002	2.98243E-001	3.77960E-002	4.46718E+001	11	...........	6.30760E-002	-4.16625E-003	5.76451E-001	6.23953E-001	-2.92615E-002	-3.89758E-002	6.66660E-001	-4.31142E-002	1.88545E-003	-1.24536E-004	1.72311E-002	1.86510E-002	-8.74675E-004	-1.16505E-003	1.99276E-002	-1.28875E-003
	35	35	1.10089E+000	2.96839E-002	0.00000E+000	3.26787E-002	2.96173E-001	3.78616E-002	4.54226E+001	11	...........	6.31967E-002	-4.18444E-003	5.76459E-001	6.23909E-001	-2.92912E-002	-3.89649E-002	6.66648E-001	-4.31153E-002	1.87592E-003	-1.24210E-004	1.71115E-002	1.85200E-002	-8.69477E-004	-1.15663E-003	1.97887E-002	-1.27983E-003
	36	36	1.10080E+000	2.95899E-002	0.00000E+000	3.25725E-002	2.95237E-001	3.79097E-002	4.40407E+001	11	...........	6.32761E-002	-4.18653E-003	5.76335E-001	6.24034E-001	-2.92797E-002	-3.89753E-002	6.66658E-001	-4.31947E-002	1.87233E-003	-1.23879E-004	1.70537E-002	1.84651E-002	-8.66383E-004	-1.15327E-003	1.97263E-002	-1.27813E-003
	37	37	1.10082E+000	2.96566E-002	0.00000E+000	3.26468E-002	2.95904E-001	3.74228E-002	4.34532E+001	11	...........	6.24431E-002	-4.12667E-003	5.76317E-001	6.24105E-001	-2.92712E-002	-3.89500E-002	6.66695E-001	-4.31764E-002	1.85185E-003	-1.22383E-004	1.70916E-002	1.85088E-002	-8.68087E-004	-1.15513E-003	1.97719E-002	-1.28047E-003
	38	38	1.10089E+000	2.94719E-002	0.00000E+000	3.24454E-002	2.94067E-001	3.80712E-002	4.45467E+001	11	...........	6.35329E-002	-4.26931E-003	5.76365E-001	6.24095E-001	-2.92739E-002	-3.89360E-002	6.66859E-001	-4.32585E-002	1.87244E-003	-1.25825E-004	1.69866E-002	1.83933E-002	-8.62758E-004	-1.14752E-003	1.96536E-002	-1.27491E-003
	39	39	1.10080E+000	2.93650E-002	0.00000E+000	3.23250E-002	2.93007E-001	3.79679E-002	4.44695E+001	11	...........	6.33612E-002	-4.35806E-003	5.76263E-001	6.24184E-001	-2.92746E-002	-3.89311E-002	6.66921E-001	-4.33235E-002	1.86060E-003	-1.27974E-004	1.69220E-002	1.83291E-002	-8.59647E-004	-1.14321E-003	1.95841E-002	-1.27219E-003
	40	40	1.10082E+000	2.94440E-002	0.00000E+000	3.24126E-002	2.93792E-001	3.75661E-002	4.48501E+001	11	...........	6.27017E-002	-4.15764E-003	5.76137E-001	6.24214E-001	-2.92692E-002	-3.89233E-002	6.66813E-001	-4.32999E-002	1.84619E-003	-1.22417E-004	1.69638E-002	1.83793E-002	-8.61801E-004	-1.14606E-003	1.96336E-002	-1.27492E-003
	41	41	1.10089E+000	2.92531E-002	0.00000E+000	3.22044E-002	2.91894E-001	3.78683E-002	4.56241E+001	11	...........	6.31983E-002	-4.06694E-003	5.76298E-001	6.24211E-001	-2.92344E-002	-3.89340E-002	6.66881E-001	-4.32837E-002	1.84875E-003	-1.18971E-004	1.68585E-002	1.82601E-002	-8.55199E-004	-1.13894E-003	1.95084E-002	-1.26619E-003
	42	42	1.10080E+000	2.91166E-002	0.00000E+000	3.20516E-002	2.90535E-001	3.76153E-002	4.21685E+001	11	...........	6.27730E-002	-4.03694E-003	5.76293E-001	6.24162E-001	-2.92192E-002	-3.89215E-002	6.66801E-001	-4.31768E-002	1.82774E-003	-1.17542E-004	1.67797E-002	1.81735E-002	-8.50762E-004	-1.13326E-003	1.94150E-002	-1.25716E-003
	43	43	1.10082E+000	2.92544E-002	0.00000E+000	3.22039E-002	2.91908E-001	3.77252E-002	4.42175E+001	11	...........	6.29892E-002	-4.04181E-003	5.76381E-001	6.24062E-001	-2.92333E-002	-3.89243E-002	6.66720E-001	-4.31831E-002	1.84271E-003	-1.18241E-004	1.68617E-002	1.82566E-002	-8.55204E-004	-1.13871E-003	1.95045E-002	-1.26330E-003
	44	44	1.10089E+000	2.90725E-002	0.00000E+000	3.20057E-002	2.90100E-001	3.77999E-002	4.49182E+001	11	...........	6.30761E-002	-4.03639E-003	5.76452E-001	6.24052E-001	-2.92428E-002	-3.89261E-002	6.66650E-001	-4.31665E-002	1.83378E-003	-1.17348E-004	1.67589E-002	1.81428E-002	-8.50162E-004	-1.13168E-003	1.93812E-002	-1.25496E-003
	45	45	1.10080E+000	2.89132E-002	0.00000E+000	3.18277E-002	2.88518E-001	3.76632E-002	4.50871E+001	11	...........	6.28594E-002	-4.10292E-003	5.76327E-001	6.24161E-001	-2.92369E-002	-3.89031E-002	6.66653E-001	-4.31342E-002	1.81747E-003	-1.18628E-004	1.66634E-002	1.80465E-002	-8.45332E-004	-1.12481E-003	1.92750E-002	-1.24715E-003
	46	46	1.10082E+000	2.90292E-002	0.00000E+000	3.19561E-002	2.89676E-001	3.78338E-002	4.48551E+001	11	...........	6.31333E-002	-4.23556E-003	5.76339E-001	6.24224E-001	-2.92558E-002	-3.89101E-002	6.66665E-001	-4.32101E-002	1.83271E-003	-1.22955E-004	1.67307E-002	1.81207E-002	-8.49273E-004	-1.12953E-003	1.93528E-002	-1.25436E-003
	47	47	1.10088E+000	2.88758E-002	0.00000E+000	3.17890E-002	2.88148E-001	3.75854E-002	4.45791E+001	11	...........	6.27340E-002	-4.17181E-003	5.76273E-001	6.24203E-001	-2.92699E-002	-3.89089E-002	6.66650E-001	-4.31807E-002	1.81150E-003	-1.20464E-004	1.66404E-002	1.80244E-002	-8.45192E-004	-1.12353E-003	1.92501E-002	-1.24688E-003
	48	48	1.10081E+000	2.87053E-002	0.00000E+000	3.15990E-002	2.86455E-001	3.74830E-002	4.35164E+001	11	...........	6.25500E-002	-4.14833E-003	5.76234E-001	6.24347E-001	-2.93082E-002	-3.89096E-002	6.66676E-001	-4.31256E-002	1.79552E-003	-1.19079E-004	1.65410E-002	1.79221E-002	-8.41301E-004	-1.11691E-003	1.91372E-002	-1.23793E-003
	49	49	1.10082E+000	2.88282E-002	0.00000E+000	3.17346E-002	2.87673E-001	3.77780E-002	4.43838E+001	11	...........	6.30362E-002	-4.07750E-003	5.76275E-001	6.24480E-001	-2.93007E-002	-3.89183E-002	6.66718E-001	-4.32139E-002	1.81722E-003	-1.17547E-004	1.66129E-002	1.80026E-002	-8.44685E-004	-1.12194E-003	1.92202E-002	-1.24578E-003
	50	50	1.10089E+000	2.86507E-002	0.00000E+000	3.15411E-002	2.85911E-001	3.75235E-002	4.37662E+001	11	...........	6.26254E-002	-4.07556E-003	5.76236E-001	6.24460E-001	-2.93211E-002	-3.89235E-002	6.66703E-001	-4.31354E-002	1.79426E-003	-1.16767E-004	1.65095E-002	1.78912E-002	-8.40070E-004	-1.11518E-003	1.91015E-002	-1.23586E-003
	51	51	1.10081E+000	2.85231E-002	0.00000E+000	3.13985E-002	2.84643E-001	3.77227E-002	4.44719E+001	11	...........	6.29587E-002	-4.11306E-003	5.76211E-001	6.24452E-001	-2.93368E-002	-3.89032E-002	6.66808E-001	-4.32162E-002	1.79578E-003	-1.17317E-004	1.64353E-002	1.78113E-002	-8.36777E-004	-1.10964E-003	1.90194E-002	-1.23266E-003
	52	52	1.10082E+000	2.86124E-002	0.00000E+000	3.14972E-002	2.85535E-001	3.75264E-002	4.41536E+001	11	...........	6.26111E-002	-4.06903E-003	5.76108E-001	6.24427E-001	-2.93328E-002	-3.89279E-002	6.66814E-001	-4.31372E-002	1.79146E-003	-1.16425E-004	1.64839E-002	1.78664E-002	-8.39283E-004	-1.11382E-003	1.90792E-002	-1.23426E-003
	53	53	1.10088E+000	2.84631E-002	0.00000E+000	3.13346E-002	2.84047E-001	3.75254E-002	4.37690E+001	11	...........	6.26144E-002	-3.99458E-003	5.76006E-001	6.24428E-001	-2.93210E-002	-3.89347E-002	6.66710E-001	-4.31022E-002	1.78220E-003	-1.13698E-004	1.63949E-002	1.77732E-002	-8.34567E-004	-1.10820E-003	1.89767E-002	-1.22682E-003
	54	54	1.10081E+000	2.83142E-002	0.00000E+000	3.11686E-002	2.82569E-001	3.77339E-002	4.40572E+001	11	...........	6.29779E-002	-4.10486E-003	5.75935E-001	6.24533E-001	-2.93165E-002	-3.89343E-002	6.66608E-001	-4.31115E-002	1.78317E-003	-1.16226E-004	1.63071E-002	1.76831E-002	-8.30074E-004	-1.10239E-003	1.88745E-002	-1.22067E-003
	55	55	1.10082E+000	2.84261E-002	0.00000E+000	3.12920E-002	2.83680E-001	3.76683E-002	4.37142E+001	11	...........	6.28658E-002	-4.15097E-003	5.76078E-001	6.24365E-001	-2.92812E-002	-3.89162E-002	6.66652E-001	-4.30897E-002	1.78703E-003	-1.17996E-004	1.63756E-002	1.77482E-002	-8.32351E-004	-1.10624E-003	1.89503E-002	-1.22487E-003
	56	56	1.10088E+000	2.82938E-002	0.00000E+000	3.11481E-002	2.82362E-001	3.74482E-002	4.42086E+001	11	...........	6.25124E-002	-4.17653E-003	5.75982E-001	6.24121E-001	-2.92800E-002	-3.89275E-002	6.66564E-001	-4.31000E-002	1.76871E-003	-1.18170E-004	1.62967E-002	1.76587E-002	-8.28441E-004	-1.10141E-003	1.88596E-002	-1.21946E-003
	57	57	1.10081E+000	2.81227E-002	0.00000E+000	3.09578E-002	2.80657E-001	3.76068E-002	4.48716E+001	11	...........	6.27787E-002	-4.17750E-003	5.75932E-001	6.24206E-001	-2.92854E-002	-3.89458E-002	6.66699E-001	-4.32064E-002	1.76551E-003	-1.17482E-004	1.61967E-002	1.75544E-002	-8.23584E-004	-1.09526E-003	1.87493E-002	-1.21508E-003
	58	58	1.10082E+000	2.82284E-002	0.00000E+000	3.10743E-002	2.81710E-001	3.75820E-002	4.38632E+001	11	...........	6.27079E-002	-4.15750E-003	5.76090E-001	6.24255E-001	-2.92771E-002	-3.89250E-002	6.66648E-001	-4.31836E-002	1.77014E-003	-1.17359E-004	1.62621E-002	1.76217E-002	-8.26444E-004	-1.09879E-003	1.88184E-002	-1.21900E-003
	59	59	1.10088E+000	2.81029E-002	0.00000E+000	3.09379E-002	2.80467E-001	3.74644E-002	4.40914E+001	11	...........	6.25022E-002	-4.05944E-003	5.76107E-001	6.24109E-001	-2.92785E-002	-3.89056E-002	6.66581E-001	-4.31706E-002	1.75649E-003	-1.14082E-004	1.61903E-002	1.75392E-002	-8.22809E-004	-1.09336E-003	1.87328E-002	-1.21322E-003
	60	59.765	1.10085E+000	2.79600E-002	0.00000E+000	3.07798E-002	2.79042E-001	3.76419E-002	4.43019E+001	11	...........	6.28317E-002	-4.12273E-003	5.76078E-001	6.24050E-001	-2.92887E-002	-3.89194E-002	6.66623E-001	-4.31478E-002	1.75677E-003	-1.15272E-004	1.61072E-002	1.74484E-002	-8.18911E-004	-1.08819E-003	1.86388E-002	-1.20641E-003
STARTTIMEOFFSET	QUANT	827567.8	Start Time Offset (s)
