EXPLAIN
TAG	PWR800_CHARGE
TITLE	LABEL	PWR Charge	Test Identifier
DATE	LABEL	10/11/2022	Date
TIME	LABEL	6:31:35	Time
NOTES	NOTES	1	Notes...
	
PSTAT	PSTAT	REF3000-21114	Potentiostat
CAPACITY	QUANT	5.30000E-002	Capacity (A-hr)
CELLTYPE	SELECTOR	1	Cell Type
WORKINGCONNECTION	SELECTOR	0	Working Connection
MAXCHARGETIME	VARIABLEANDUNITS	7.20000E+003	s	2.00000E+000	hour(s)	Max Charge Time
CHARGEMODE	MULTIPARAM	0	1.00000E-001	Charge Mode	Constant Current	Amp(s)
CHARGECURRENT	QUANT	0.1	Charge Current (A)
VOLTAGEFINISH	TWOPARAM	T	2.50000E-002	7.20000E+003	Voltage Finish	I (A) <	Max Time(s)
SAMPLETIME	QUANT	1.00000E+000	Sample Period (s)
CHARGESTOPAT1	MULTIPARAM	2	1.10000E+000	Stop At 1	|Voltage| > Limit	V
CHARGESTOPAT2	MULTIPARAM	0	0.00000E+000	Stop At 2	None	N/A
AESELECTOR	AESELECTOR	0x1	T	Set Limits	AE Channels
AESBHCSELECTOR	TOGGLE	F	Save Both Half Cells
IRCOMP	TOGGLE	F	IR Measure
EOC	QUANT	0.3219353	Open Circuit (V)
SEQUENCER	TOGGLE	TRUE	Run as Sequence
PSTATMODEL	IQUANT	5	Pstat Model
PSTATSECTION	LABEL	REF3000-21114	Pstat Section
PSTATSERIALNO	LABEL	21114	Pstat Serial Number
CTRLMODE	IQUANT	0	Control Mode
ELECTROMETER	IQUANT	0	RE=0 or CS=1
IESTAB	IQUANT	0	I/E Stability
CASPEED	IQUANT	4	Control Amp Speed
CONVENTION	IQUANT	1	Current Convention
ICHRANGE	IQUANT	2	Ich Range
ICHRANGEMODE	TOGGLE	T	Ich Auto Range
ICHOFFSETENABLE	TOGGLE	F	Ich Offset Enable
ICHOFFSET	QUANT	0	Ich Offset (V)
ICHFILTER	IQUANT	1	Ich Filter
VCHRANGE	IQUANT	3	Vch Range
VCHRANGEMODE	TOGGLE	T	Vch Auto Range
VCHOFFSETENABLE	TOGGLE	F	Vch Offset Enable
VCHOFFSET	QUANT	0	Vch Offset (V)
VCHFILTER	IQUANT	1	Vch Filter
ACHRANGE	IQUANT	2	Ach Range
ACHOFFSETENABLE	TOGGLE	F	Ach Offset Enable
ACHOFFSET	QUANT	0	Ach Offset (V)
ACHFILTER	IQUANT	1	Ach Filter
IERANGELOWERLIMIT	IQUANT	9	I/E Range Lower Limit
IERANGEMODE	TOGGLE	F	I/E AutoRange
IERANGE	IQUANT	9	I/E Range
POSFEEDENABLE	TOGGLE	F	Positive Feedback IR Comp
POSFEEDRESISTANCE	QUANT	0	Positive Feedback Resistance (ohm)
ACHSELECT	IQUANT	1	Ach Select
SENSECABLEID	IQUANT	13	Sense Cable ID
PWRCABLEID	IQUANT	13	Power Cable ID
DCCALDATE	LABEL		DC Calibration Date
ACCALDATE	LABEL		AC Calibration Date
THERMOSELECT	IQUANT	1	Thermo Select
FRAMEWORKVERSION	LABEL	7.8.6	Framework Version
INSTRUMENTVERSION	LABEL	4.50	Instrument Version
COMPLIANCEVOLTAGE	IQUANT	0	Compliance Voltage
CURVE	TABLE	249
	Pt	T	Vf	Im	Vu	Pwr	Sig	Ach	Temp	IERange	Over	Vf1	Vf2	Vf3	Vf4	Vf5	Vf6	Vf7	Vf8	Pwr1	Pwr2	Pwr3	Pwr4	Pwr5	Pwr6	Pwr7	Pwr8
	#	s	V	A	V	W	V	V	deg C	#	bits	V	V	V	V	V	V	V	V	W	W	W	W	W	W	W	W
	0	1	5.59174E-001	9.98582E-002	0.00000E+000	5.58382E-002	9.94000E-001	3.75143E-002	3.42553E+001	11	...........	6.22908E-002	-3.86972E-003	5.57793E-001	6.82740E-001	-3.08314E-002	-3.95821E-002	6.50308E-001	-4.25349E-002	6.22025E-003	-3.86424E-004	5.57002E-002	6.81772E-002	-3.07877E-003	-3.95260E-003	6.49386E-002	-4.24746E-003
	1	2	6.87596E-001	9.98586E-002	0.00000E+000	6.86624E-002	9.94000E-001	3.73382E-002	3.50125E+001	11	...........	6.20103E-002	-4.00667E-003	5.57830E-001	6.82739E-001	-3.07912E-002	-3.95719E-002	6.50243E-001	-4.26125E-002	6.19226E-003	-4.00100E-004	5.57041E-002	6.81773E-002	-3.07477E-003	-3.95160E-003	6.49324E-002	-4.25523E-003
	2	3	8.31661E-001	9.98594E-002	0.00000E+000	8.30493E-002	9.94000E-001	3.80564E-002	3.69021E+001	11	...........	6.31951E-002	-3.92708E-003	5.57829E-001	6.82678E-001	-3.07439E-002	-3.95671E-002	6.50163E-001	-4.26710E-002	6.31063E-003	-3.92156E-004	5.57045E-002	6.81719E-002	-3.07007E-003	-3.95115E-003	6.49249E-002	-4.26110E-003
	3	3.63667	1.01835E+000	9.98596E-002	0.00000E+000	1.01692E-001	9.94000E-001	3.76055E-002	3.86184E+001	11	...........	6.24749E-002	-3.97622E-003	5.57858E-001	6.82712E-001	-3.07552E-002	-3.95737E-002	6.50185E-001	-4.26998E-002	6.23872E-003	-3.97064E-004	5.57075E-002	6.81753E-002	-3.07121E-003	-3.95182E-003	6.49272E-002	-4.26399E-003
	4	4	1.10090E+000	8.35781E-002	0.00000E+000	9.20113E-002	8.32090E-001	3.76509E-002	3.95994E+001	11	...........	6.25283E-002	-3.80543E-003	5.57719E-001	6.82802E-001	-3.06907E-002	-3.95787E-002	6.50194E-001	-4.26911E-002	5.22599E-003	-3.18050E-004	4.66131E-002	5.70673E-002	-2.56507E-003	-3.30792E-003	5.43420E-002	-3.56804E-003
	5	5	1.10052E+000	7.02485E-002	0.00000E+000	7.73102E-002	6.99537E-001	3.81713E-002	3.89126E+001	11	...........	6.33878E-002	-3.75778E-003	5.57775E-001	6.82721E-001	-3.07158E-002	-3.95400E-002	6.50115E-001	-4.26410E-002	4.45290E-003	-2.63978E-004	3.91829E-002	4.79602E-002	-2.15774E-003	-2.77763E-003	4.56696E-002	-2.99547E-003
	6	6	1.10029E+000	6.40297E-002	0.00000E+000	7.04512E-002	6.37697E-001	3.77657E-002	4.08249E+001	11	...........	6.26946E-002	-3.65819E-003	5.57659E-001	6.82668E-001	-3.07069E-002	-3.95507E-002	6.50165E-001	-4.26396E-002	4.01432E-003	-2.34233E-004	3.57068E-002	4.37111E-002	-1.96616E-003	-2.53242E-003	4.16299E-002	-2.73020E-003
	7	7	1.10028E+000	6.19658E-002	0.00000E+000	6.81798E-002	6.17172E-001	3.77189E-002	4.00429E+001	11	...........	6.26014E-002	-3.78528E-003	5.57679E-001	6.82778E-001	-3.07094E-002	-3.95503E-002	6.50202E-001	-4.26137E-002	3.87914E-003	-2.34558E-004	3.45570E-002	4.23089E-002	-1.90293E-003	-2.45076E-003	4.02903E-002	-2.64059E-003
	8	8	1.10042E+000	6.05571E-002	0.00000E+000	6.66381E-002	6.03160E-001	3.78182E-002	3.93468E+001	11	...........	6.27926E-002	-3.76153E-003	5.57575E-001	6.82787E-001	-3.07258E-002	-3.95556E-002	6.50175E-001	-4.26293E-002	3.80254E-003	-2.27787E-004	3.37651E-002	4.13476E-002	-1.86067E-003	-2.39537E-003	3.93727E-002	-2.58151E-003
	9	9	1.10027E+000	5.94286E-002	0.00000E+000	6.53874E-002	5.91935E-001	3.75701E-002	3.97138E+001	11	...........	6.23615E-002	-3.72861E-003	5.57519E-001	6.82754E-001	-3.07054E-002	-3.95279E-002	6.50180E-001	-4.26218E-002	3.70606E-003	-2.21586E-004	3.31326E-002	4.05751E-002	-1.82478E-003	-2.34909E-003	3.86393E-002	-2.53296E-003
	10	10	1.10026E+000	5.90552E-002	0.00000E+000	6.49761E-002	5.88222E-001	3.75892E-002	3.88522E+001	11	...........	6.24271E-002	-3.77056E-003	5.57581E-001	6.82760E-001	-3.07251E-002	-3.94988E-002	6.50147E-001	-4.26018E-002	3.68664E-003	-2.22671E-004	3.29280E-002	4.03205E-002	-1.81448E-003	-2.33261E-003	3.83946E-002	-2.51586E-003
	11	11	1.10041E+000	5.85573E-002	0.00000E+000	6.44368E-002	5.83275E-001	3.76093E-002	3.80126E+001	11	...........	6.24442E-002	-3.86014E-003	5.57725E-001	6.82683E-001	-3.07639E-002	-3.94782E-002	6.49996E-001	-4.25667E-002	3.65656E-003	-2.26039E-004	3.26589E-002	3.99761E-002	-1.80145E-003	-2.31173E-003	3.80620E-002	-2.49259E-003
	12	12	1.10027E+000	5.80319E-002	0.00000E+000	6.38506E-002	5.78047E-001	3.78023E-002	3.95511E+001	11	...........	6.27461E-002	-3.85514E-003	5.57752E-001	6.82663E-001	-3.07837E-002	-3.94840E-002	6.50122E-001	-4.25879E-002	3.64128E-003	-2.23721E-004	3.23674E-002	3.96163E-002	-1.78644E-003	-2.29134E-003	3.77279E-002	-2.47146E-003
	13	13	1.10026E+000	5.79472E-002	0.00000E+000	6.37570E-002	5.77207E-001	3.70713E-002	3.93393E+001	11	...........	6.15800E-002	-3.75681E-003	5.57731E-001	6.82626E-001	-3.08117E-002	-3.94854E-002	6.50124E-001	-4.26024E-002	3.56839E-003	-2.17696E-004	3.23190E-002	3.95562E-002	-1.78545E-003	-2.28807E-003	3.76729E-002	-2.46869E-003
	14	14	1.10040E+000	5.75548E-002	0.00000E+000	6.33335E-002	5.73309E-001	3.77368E-002	3.87510E+001	11	...........	6.26661E-002	-3.73847E-003	5.57750E-001	6.82537E-001	-3.08117E-002	-3.94937E-002	6.50094E-001	-4.26050E-002	3.60673E-003	-2.15167E-004	3.21012E-002	3.92833E-002	-1.77336E-003	-2.27305E-003	3.74160E-002	-2.45212E-003
	15	15	1.10027E+000	5.69693E-002	0.00000E+000	6.26816E-002	5.67487E-001	3.72229E-002	3.91096E+001	11	...........	6.18018E-002	-3.60444E-003	5.57796E-001	6.82616E-001	-3.08586E-002	-3.94832E-002	6.50188E-001	-4.26412E-002	3.52081E-003	-2.05343E-004	3.17773E-002	3.88882E-002	-1.75799E-003	-2.24933E-003	3.70408E-002	-2.42924E-003
	16	16	1.10025E+000	5.71388E-002	0.00000E+000	6.28672E-002	5.69172E-001	3.72821E-002	3.91007E+001	11	...........	6.19090E-002	-3.56611E-003	5.57991E-001	6.82654E-001	-3.08376E-002	-3.94957E-002	6.50066E-001	-4.26474E-002	3.53741E-003	-2.03763E-004	3.18829E-002	3.90060E-002	-1.76203E-003	-2.25674E-003	3.71440E-002	-2.43682E-003
	17	17	1.10040E+000	5.68711E-002	0.00000E+000	6.25810E-002	5.66509E-001	3.74264E-002	3.92551E+001	11	...........	6.21393E-002	-3.62861E-003	5.58022E-001	6.82656E-001	-3.07972E-002	-3.94590E-002	6.50054E-001	-4.26382E-002	3.53393E-003	-2.06363E-004	3.17353E-002	3.88234E-002	-1.75147E-003	-2.24408E-003	3.69693E-002	-2.42488E-003
	18	18	1.10027E+000	5.62645E-002	0.00000E+000	6.19062E-002	5.60481E-001	3.71227E-002	3.86152E+001	11	...........	6.16593E-002	-3.72014E-003	5.58128E-001	6.82708E-001	-3.07614E-002	-3.94432E-002	6.49899E-001	-4.25758E-002	3.46923E-003	-2.09312E-004	3.14028E-002	3.84122E-002	-1.73077E-003	-2.21925E-003	3.65662E-002	-2.39551E-003
	19	19	1.10026E+000	5.64868E-002	0.00000E+000	6.21502E-002	5.62692E-001	3.73698E-002	3.96894E+001	11	...........	6.20679E-002	-3.71792E-003	5.58053E-001	6.82666E-001	-3.07007E-002	-3.94371E-002	6.50157E-001	-4.25325E-002	3.50602E-003	-2.10013E-004	3.15226E-002	3.85616E-002	-1.73418E-003	-2.22768E-003	3.67253E-002	-2.40253E-003
	20	20	1.10039E+000	5.61745E-002	0.00000E+000	6.18139E-002	5.59589E-001	3.69656E-002	3.86637E+001	11	...........	6.15483E-002	-3.67444E-003	5.57987E-001	6.82574E-001	-3.06786E-002	-3.94311E-002	6.50370E-001	-4.25151E-002	3.45745E-003	-2.06410E-004	3.13447E-002	3.83433E-002	-1.72336E-003	-2.21502E-003	3.65342E-002	-2.38827E-003
	21	21	1.10028E+000	5.55930E-002	0.00000E+000	6.11680E-002	5.53807E-001	3.69141E-002	3.92234E+001	11	...........	6.15328E-002	-3.75708E-003	5.57961E-001	6.82592E-001	-3.06892E-002	-3.94286E-002	6.50381E-001	-4.25476E-002	3.42079E-003	-2.08868E-004	3.10188E-002	3.79474E-002	-1.70610E-003	-2.19196E-003	3.61566E-002	-2.36535E-003
	22	22	1.10025E+000	5.58703E-002	0.00000E+000	6.14714E-002	5.56561E-001	3.70844E-002	3.97892E+001	11	...........	6.18539E-002	-3.67833E-003	5.57827E-001	6.82622E-001	-3.07068E-002	-3.94772E-002	6.50314E-001	-4.25904E-002	3.45579E-003	-2.05509E-004	3.11659E-002	3.81383E-002	-1.71560E-003	-2.20560E-003	3.63332E-002	-2.37954E-003
	23	23	1.10039E+000	5.55915E-002	0.00000E+000	6.11725E-002	5.53788E-001	3.69843E-002	3.95052E+001	11	...........	6.16686E-002	-3.69486E-003	5.57892E-001	6.82622E-001	-3.06965E-002	-3.94833E-002	6.50354E-001	-4.26208E-002	3.42825E-003	-2.05403E-004	3.10140E-002	3.79480E-002	-1.70646E-003	-2.19494E-003	3.61541E-002	-2.36935E-003
	24	24	1.10028E+000	5.51191E-002	0.00000E+000	6.06464E-002	5.49091E-001	3.70935E-002	3.97531E+001	11	...........	6.18412E-002	-3.75639E-003	5.58005E-001	6.82644E-001	-3.06849E-002	-3.94826E-002	6.50402E-001	-4.26050E-002	3.40863E-003	-2.07049E-004	3.07567E-002	3.76267E-002	-1.69132E-003	-2.17625E-003	3.58496E-002	-2.34835E-003
	25	25	1.10026E+000	5.52467E-002	0.00000E+000	6.07855E-002	5.50362E-001	3.67509E-002	3.93319E+001	11	...........	6.12017E-002	-3.77611E-003	5.57899E-001	6.82610E-001	-3.06917E-002	-3.94885E-002	6.50437E-001	-4.25922E-002	3.38119E-003	-2.08618E-004	3.08220E-002	3.77119E-002	-1.69561E-003	-2.18161E-003	3.59345E-002	-2.35308E-003
	26	26	1.10038E+000	5.49555E-002	0.00000E+000	6.04721E-002	5.47463E-001	3.69296E-002	3.74076E+001	11	...........	6.15647E-002	-3.83431E-003	5.57927E-001	6.82646E-001	-3.06674E-002	-3.94840E-002	6.50449E-001	-4.25821E-002	3.38332E-003	-2.10716E-004	3.06612E-002	3.75151E-002	-1.68534E-003	-2.16987E-003	3.57458E-002	-2.34012E-003
	27	27	1.10029E+000	5.44733E-002	0.00000E+000	5.99364E-002	5.42674E-001	3.68213E-002	3.95856E+001	11	...........	6.13282E-002	-3.79583E-003	5.57909E-001	6.82727E-001	-3.06524E-002	-3.94922E-002	6.50311E-001	-4.26025E-002	3.34075E-003	-2.06772E-004	3.03911E-002	3.71904E-002	-1.66974E-003	-2.15127E-003	3.54246E-002	-2.32070E-003
	28	28	1.10025E+000	5.47710E-002	0.00000E+000	6.02617E-002	5.45629E-001	3.70054E-002	3.93910E+001	11	...........	6.16611E-002	-3.81458E-003	5.58127E-001	6.82788E-001	-3.06661E-002	-3.94637E-002	6.50464E-001	-4.25811E-002	3.37724E-003	-2.08929E-004	3.05692E-002	3.73970E-002	-1.67961E-003	-2.16147E-003	3.56266E-002	-2.33221E-003
	29	29	1.10038E+000	5.45288E-002	0.00000E+000	6.00026E-002	5.43228E-001	3.69441E-002	3.86832E+001	11	...........	6.15876E-002	-3.73486E-003	5.58140E-001	6.82752E-001	-3.06665E-002	-3.94800E-002	6.50517E-001	-4.26233E-002	3.35830E-003	-2.03658E-004	3.04347E-002	3.72297E-002	-1.67221E-003	-2.15280E-003	3.54719E-002	-2.32420E-003
	30	30	1.10029E+000	5.40265E-002	0.00000E+000	5.94449E-002	5.38225E-001	3.66972E-002	3.85612E+001	11	...........	6.11107E-002	-3.67139E-003	5.58100E-001	6.82757E-001	-3.06944E-002	-3.94728E-002	6.50442E-001	-4.26261E-002	3.30159E-003	-1.98352E-004	3.01521E-002	3.68869E-002	-1.65831E-003	-2.13257E-003	3.51411E-002	-2.30294E-003
	31	31	1.10025E+000	5.42220E-002	0.00000E+000	5.96580E-002	5.40174E-001	3.70845E-002	3.96333E+001	11	...........	6.18543E-002	-3.72000E-003	5.58174E-001	6.82840E-001	-3.07339E-002	-3.95026E-002	6.50472E-001	-4.26011E-002	3.35387E-003	-2.01706E-004	3.02653E-002	3.70250E-002	-1.66645E-003	-2.14191E-003	3.52699E-002	-2.30992E-003
	32	32	1.10038E+000	5.40394E-002	0.00000E+000	5.94638E-002	5.38361E-001	3.65509E-002	3.72739E+001	11	...........	6.08947E-002	-3.56014E-003	5.58162E-001	6.82827E-001	-3.07181E-002	-3.94953E-002	6.50518E-001	-4.25678E-002	3.29071E-003	-1.92388E-004	3.01627E-002	3.68995E-002	-1.65998E-003	-2.13430E-003	3.51536E-002	-2.30034E-003
	33	33	1.10030E+000	5.35089E-002	0.00000E+000	5.88756E-002	5.33081E-001	3.68729E-002	3.98309E+001	11	...........	6.14810E-002	-3.61486E-003	5.58168E-001	6.82834E-001	-3.06675E-002	-3.94936E-002	6.50545E-001	-4.25965E-002	3.28978E-003	-1.93427E-004	2.98669E-002	3.65377E-002	-1.64098E-003	-2.11326E-003	3.48099E-002	-2.27929E-003
	34	34	1.10025E+000	5.37278E-002	0.00000E+000	5.91139E-002	5.35256E-001	3.69305E-002	3.93580E+001	11	...........	6.15653E-002	-3.69708E-003	5.58205E-001	6.82767E-001	-3.06703E-002	-3.94807E-002	6.50515E-001	-4.25871E-002	3.30777E-003	-1.98636E-004	2.99911E-002	3.66836E-002	-1.64785E-003	-2.12121E-003	3.49507E-002	-2.28811E-003
	35	35	1.10038E+000	5.35278E-002	0.00000E+000	5.89008E-002	5.33275E-001	3.67207E-002	3.77808E+001	11	...........	6.11221E-002	-3.72528E-003	5.58192E-001	6.82783E-001	-3.06312E-002	-3.94669E-002	6.50465E-001	-4.26435E-002	3.27173E-003	-1.99406E-004	2.98788E-002	3.65478E-002	-1.63962E-003	-2.11258E-003	3.48180E-002	-2.28261E-003
	36	36	1.10030E+000	5.29877E-002	0.00000E+000	5.83025E-002	5.27900E-001	3.65151E-002	3.88065E+001	11	...........	6.08226E-002	-3.78250E-003	5.58202E-001	6.82764E-001	-3.06550E-002	-3.94454E-002	6.50369E-001	-4.26618E-002	3.22285E-003	-2.00426E-004	2.95778E-002	3.61781E-002	-1.62434E-003	-2.09012E-003	3.44615E-002	-2.26055E-003
	37	37	1.10024E+000	5.32108E-002	0.00000E+000	5.85449E-002	5.30117E-001	3.69841E-002	3.87895E+001	11	...........	6.16250E-002	-3.88903E-003	5.58237E-001	6.82752E-001	-3.06553E-002	-3.94331E-002	6.50361E-001	-4.26292E-002	3.27912E-003	-2.06938E-004	2.97042E-002	3.63298E-002	-1.63119E-003	-2.09827E-003	3.46062E-002	-2.26833E-003
	38	38	1.10037E+000	5.30604E-002	0.00000E+000	5.83864E-002	5.28622E-001	3.68017E-002	3.86512E+001	11	...........	6.13068E-002	-3.73472E-003	5.58290E-001	6.82721E-001	-3.06604E-002	-3.93989E-002	6.50407E-001	-4.26708E-002	3.25297E-003	-1.98166E-004	2.96231E-002	3.62255E-002	-1.62686E-003	-2.09052E-003	3.45109E-002	-2.26413E-003
	39	39	1.10031E+000	5.25246E-002	0.00000E+000	5.77934E-002	5.23293E-001	3.67093E-002	3.91948E+001	11	...........	6.11357E-002	-3.70875E-003	5.58222E-001	6.82706E-001	-3.06508E-002	-3.93847E-002	6.50336E-001	-4.26619E-002	3.21113E-003	-1.94801E-004	2.93204E-002	3.58589E-002	-1.60992E-003	-2.06867E-003	3.41586E-002	-2.24080E-003
	40	40	1.10024E+000	5.27166E-002	0.00000E+000	5.80010E-002	5.25202E-001	3.65814E-002	3.94742E+001	11	...........	6.09319E-002	-3.67542E-003	5.58183E-001	6.82778E-001	-3.06553E-002	-3.93629E-002	6.50264E-001	-4.26172E-002	3.21213E-003	-1.93756E-004	2.94255E-002	3.59938E-002	-1.61604E-003	-2.07508E-003	3.42797E-002	-2.24664E-003
	41	41	1.10037E+000	5.26092E-002	0.00000E+000	5.78897E-002	5.24135E-001	3.67976E-002	3.80903E+001	11	...........	6.12982E-002	-3.61056E-003	5.58111E-001	6.82826E-001	-3.06390E-002	-3.93726E-002	6.50288E-001	-4.26060E-002	3.22485E-003	-1.89948E-004	2.93618E-002	3.59229E-002	-1.61190E-003	-2.07136E-003	3.42111E-002	-2.24147E-003
	42	42	1.10031E+000	5.20325E-002	0.00000E+000	5.72517E-002	5.18397E-001	3.65875E-002	3.93296E+001	11	...........	6.09662E-002	-3.69181E-003	5.58073E-001	6.82835E-001	-3.06392E-002	-3.93414E-002	6.50371E-001	-4.26006E-002	3.17223E-003	-1.92094E-004	2.90379E-002	3.55296E-002	-1.59423E-003	-2.04703E-003	3.38404E-002	-2.21661E-003
	43	43	1.10025E+000	5.22691E-002	0.00000E+000	5.75088E-002	5.20750E-001	3.66627E-002	3.89708E+001	11	...........	6.10914E-002	-3.78944E-003	5.58203E-001	6.82796E-001	-3.06214E-002	-3.93099E-002	6.50456E-001	-4.25651E-002	3.19319E-003	-1.98071E-004	2.91767E-002	3.56891E-002	-1.60055E-003	-2.05469E-003	3.39987E-002	-2.22484E-003
	44	44	1.10036E+000	5.21021E-002	0.00000E+000	5.73313E-002	5.19095E-001	3.65936E-002	3.83677E+001	11	...........	6.09415E-002	-3.82250E-003	5.58334E-001	6.82853E-001	-3.06628E-002	-3.93121E-002	6.50460E-001	-4.26297E-002	3.17518E-003	-1.99160E-004	2.90904E-002	3.55781E-002	-1.59760E-003	-2.04824E-003	3.38904E-002	-2.22110E-003
	45	45	1.10032E+000	5.16305E-002	0.00000E+000	5.68101E-002	5.14406E-001	3.66470E-002	3.85038E+001	11	...........	6.10381E-002	-3.82056E-003	5.58397E-001	6.82818E-001	-3.07412E-002	-3.92940E-002	6.50407E-001	-4.26549E-002	3.15142E-003	-1.97257E-004	2.88303E-002	3.52542E-002	-1.58719E-003	-2.02877E-003	3.35808E-002	-2.20229E-003
	46	46	1.10024E+000	5.18056E-002	0.00000E+000	5.69986E-002	5.16144E-001	3.65203E-002	3.92712E+001	11	...........	6.08226E-002	-3.75542E-003	5.58361E-001	6.82829E-001	-3.07762E-002	-3.92907E-002	6.50426E-001	-4.26667E-002	3.15095E-003	-1.94551E-004	2.89262E-002	3.53743E-002	-1.59438E-003	-2.03548E-003	3.36957E-002	-2.21037E-003
	47	47	1.10036E+000	5.17680E-002	0.00000E+000	5.69635E-002	5.15770E-001	3.67075E-002	3.90574E+001	11	...........	6.11053E-002	-3.76000E-003	5.58370E-001	6.82865E-001	-3.07247E-002	-3.92892E-002	6.50471E-001	-4.26307E-002	3.16330E-003	-1.94648E-004	2.89057E-002	3.53505E-002	-1.59056E-003	-2.03392E-003	3.36736E-002	-2.20690E-003
	48	48	1.10033E+000	5.11138E-002	0.00000E+000	5.62419E-002	5.09273E-001	3.63890E-002	3.83100E+001	11	...........	6.06294E-002	-3.73736E-003	5.58398E-001	6.82790E-001	-3.06787E-002	-3.92612E-002	6.50441E-001	-4.26336E-002	3.09900E-003	-1.91031E-004	2.85419E-002	3.49000E-002	-1.56811E-003	-2.00679E-003	3.32466E-002	-2.17917E-003
	49	49	1.10024E+000	5.13610E-002	0.00000E+000	5.65093E-002	5.11728E-001	3.64926E-002	3.94432E+001	11	...........	6.07899E-002	-3.69083E-003	5.58450E-001	6.82773E-001	-3.06783E-002	-3.92999E-002	6.50358E-001	-4.26460E-002	3.12223E-003	-1.89565E-004	2.86825E-002	3.50679E-002	-1.57567E-003	-2.01848E-003	3.34031E-002	-2.19034E-003
	50	50	1.10036E+000	5.12347E-002	0.00000E+000	5.63764E-002	5.10469E-001	3.65222E-002	3.97671E+001	11	...........	6.08225E-002	-3.65167E-003	5.58470E-001	6.82953E-001	-3.06546E-002	-3.93400E-002	6.50414E-001	-4.26612E-002	3.11622E-003	-1.87092E-004	2.86130E-002	3.49909E-002	-1.57058E-003	-2.01557E-003	3.33238E-002	-2.18574E-003
	51	51	1.10033E+000	5.06561E-002	0.00000E+000	5.57384E-002	5.04718E-001	3.61643E-002	3.83722E+001	11	...........	6.02510E-002	-3.72986E-003	5.58191E-001	6.82977E-001	-3.06535E-002	-3.93303E-002	6.50439E-001	-4.26419E-002	3.05208E-003	-1.88940E-004	2.82758E-002	3.45970E-002	-1.55279E-003	-1.99232E-003	3.29488E-002	-2.16008E-003
	52	52	1.10024E+000	5.07506E-002	0.00000E+000	5.58380E-002	5.05656E-001	3.64481E-002	3.88640E+001	11	...........	6.07396E-002	-3.73333E-003	5.58192E-001	6.82948E-001	-3.06857E-002	-3.93025E-002	6.50438E-001	-4.26708E-002	3.08257E-003	-1.89469E-004	2.83286E-002	3.46600E-002	-1.55732E-003	-1.99463E-003	3.30101E-002	-2.16557E-003
	53	53	1.10035E+000	5.08214E-002	0.00000E+000	5.59212E-002	5.06361E-001	3.64159E-002	3.70775E+001	11	...........	6.06633E-002	-3.68542E-003	5.58175E-001	6.82866E-001	-3.06467E-002	-3.93261E-002	6.50302E-001	-4.26479E-002	3.08300E-003	-1.87298E-004	2.83672E-002	3.47042E-002	-1.55751E-003	-1.99861E-003	3.30493E-002	-2.16743E-003
	54	54	1.10034E+000	5.02601E-002	0.00000E+000	5.53033E-002	5.00784E-001	3.64576E-002	3.87960E+001	11	...........	6.07639E-002	-3.63667E-003	5.58221E-001	6.82758E-001	-3.05997E-002	-3.93174E-002	6.50354E-001	-4.26418E-002	3.05400E-003	-1.82779E-004	2.80563E-002	3.43155E-002	-1.53795E-003	-1.97610E-003	3.26869E-002	-2.14318E-003
	55	55	1.10023E+000	5.03902E-002	0.00000E+000	5.54410E-002	5.02072E-001	3.64012E-002	3.80301E+001	11	...........	6.06233E-002	-3.70778E-003	5.58270E-001	6.82715E-001	-3.06125E-002	-3.93282E-002	6.50406E-001	-4.26462E-002	3.05482E-003	-1.86836E-004	2.81313E-002	3.44021E-002	-1.54257E-003	-1.98176E-003	3.27741E-002	-2.14895E-003
	56	56	1.10034E+000	5.03267E-002	0.00000E+000	5.53767E-002	5.01441E-001	3.61212E-002	3.91675E+001	11	...........	6.01868E-002	-3.69694E-003	5.58252E-001	6.82809E-001	-3.06125E-002	-3.93168E-002	6.50510E-001	-4.26312E-002	3.02900E-003	-1.86055E-004	2.80950E-002	3.43635E-002	-1.54063E-003	-1.97869E-003	3.27380E-002	-2.14549E-003
	57	57	1.10035E+000	4.97464E-002	0.00000E+000	5.47384E-002	4.95673E-001	3.65317E-002	3.88851E+001	11	...........	6.08590E-002	-3.70306E-003	5.58319E-001	6.82941E-001	-3.05711E-002	-3.93222E-002	6.50423E-001	-4.26549E-002	3.02752E-003	-1.84214E-004	2.77744E-002	3.39739E-002	-1.52080E-003	-1.95614E-003	3.23562E-002	-2.12193E-003
	58	58	1.10024E+000	4.99058E-002	0.00000E+000	5.49082E-002	4.97256E-001	3.64234E-002	3.77376E+001	11	...........	6.06771E-002	-3.62347E-003	5.58403E-001	6.82904E-001	-3.06231E-002	-3.93237E-002	6.50352E-001	-4.26340E-002	3.02814E-003	-1.80832E-004	2.78675E-002	3.40809E-002	-1.52827E-003	-1.96248E-003	3.24563E-002	-2.12768E-003
	59	59	1.10033E+000	4.99125E-002	0.00000E+000	5.49204E-002	4.97325E-001	3.59970E-002	3.97989E+001	11	...........	5.99939E-002	-3.67444E-003	5.58391E-001	6.82886E-001	-3.06861E-002	-3.93239E-002	6.50459E-001	-4.26324E-002	2.99444E-003	-1.83401E-004	2.78707E-002	3.40845E-002	-1.53162E-003	-1.96275E-003	3.24660E-002	-2.12789E-003
	60	60	1.10036E+000	4.93054E-002	0.00000E+000	5.42534E-002	4.91291E-001	3.64337E-002	3.82151E+001	11	...........	6.06997E-002	-3.72014E-003	5.58680E-001	6.83005E-001	-3.07082E-002	-3.93312E-002	6.50451E-001	-4.26699E-002	2.99282E-003	-1.83423E-004	2.75459E-002	3.36758E-002	-1.51408E-003	-1.93924E-003	3.20707E-002	-2.10385E-003
	61	61	1.10023E+000	4.95489E-002	0.00000E+000	5.45153E-002	4.93711E-001	3.62563E-002	3.86407E+001	11	...........	6.04394E-002	-3.56722E-003	5.58807E-001	6.83244E-001	-3.06614E-002	-3.93608E-002	6.50375E-001	-4.26511E-002	2.99471E-003	-1.76752E-004	2.76883E-002	3.38540E-002	-1.51924E-003	-1.95029E-003	3.22254E-002	-2.11332E-003
	62	62	1.10033E+000	4.94582E-002	0.00000E+000	5.44204E-002	4.92807E-001	3.58581E-002	3.77170E+001	11	...........	5.98585E-002	-3.59264E-003	5.58791E-001	6.83228E-001	-3.06293E-002	-3.93569E-002	6.50376E-001	-4.26490E-002	2.96049E-003	-1.77685E-004	2.76368E-002	3.37912E-002	-1.51487E-003	-1.94652E-003	3.21664E-002	-2.10934E-003
	63	63	1.10036E+000	4.89131E-002	0.00000E+000	5.38221E-002	4.87387E-001	3.65400E-002	3.86641E+001	11	...........	6.08276E-002	-3.65792E-003	5.58837E-001	6.83265E-001	-3.06203E-002	-3.93586E-002	6.50431E-001	-4.26265E-002	2.97527E-003	-1.78920E-004	2.73345E-002	3.34206E-002	-1.49773E-003	-1.92515E-003	3.18146E-002	-2.08500E-003
	64	64	1.10023E+000	4.90444E-002	0.00000E+000	5.39602E-002	4.88693E-001	3.60678E-002	3.96588E+001	11	...........	6.01210E-002	-3.55264E-003	5.58775E-001	6.83128E-001	-3.06378E-002	-3.93586E-002	6.50521E-001	-4.26272E-002	2.94859E-003	-1.74237E-004	2.74048E-002	3.35036E-002	-1.50261E-003	-1.93032E-003	3.19044E-002	-2.09062E-003
	65	65	1.10033E+000	4.90191E-002	0.00000E+000	5.39372E-002	4.88442E-001	3.64017E-002	3.76306E+001	11	...........	6.06525E-002	-3.58167E-003	5.58544E-001	6.82920E-001	-3.06582E-002	-3.93551E-002	6.50399E-001	-4.26669E-002	2.97313E-003	-1.75570E-004	2.73793E-002	3.34761E-002	-1.50284E-003	-1.92915E-003	3.18820E-002	-2.09150E-003
	66	66	1.10036E+000	4.84674E-002	0.00000E+000	5.33317E-002	4.82957E-001	3.57628E-002	3.84219E+001	11	...........	5.96442E-002	-3.63153E-003	5.58466E-001	6.82863E-001	-3.06492E-002	-3.93589E-002	6.50415E-001	-4.26619E-002	2.89080E-003	-1.76011E-004	2.70674E-002	3.30966E-002	-1.48549E-003	-1.90762E-003	3.15239E-002	-2.06771E-003
	67	67	1.10023E+000	4.86786E-002	0.00000E+000	5.35576E-002	4.85057E-001	3.63675E-002	3.87716E+001	11	...........	6.06186E-002	-3.61056E-003	5.58582E-001	6.82803E-001	-3.06144E-002	-3.93424E-002	6.50396E-001	-4.26032E-002	2.95083E-003	-1.75757E-004	2.71910E-002	3.32379E-002	-1.49027E-003	-1.91513E-003	3.16604E-002	-2.07386E-003
	68	68	1.10033E+000	4.85880E-002	0.00000E+000	5.34628E-002	4.84161E-001	3.58180E-002	3.83099E+001	11	...........	5.96819E-002	-3.61528E-003	5.58365E-001	6.82685E-001	-3.06050E-002	-3.93381E-002	6.50423E-001	-4.25635E-002	2.89983E-003	-1.75659E-004	2.71299E-002	3.31703E-002	-1.48704E-003	-1.91136E-003	3.16028E-002	-2.06808E-003
	69	69	1.10037E+000	4.80383E-002	0.00000E+000	5.28599E-002	4.78695E-001	3.60556E-002	3.81582E+001	11	...........	6.01247E-002	-3.56889E-003	5.58331E-001	6.82708E-001	-3.06106E-002	-3.93301E-002	6.50432E-001	-4.26318E-002	2.88829E-003	-1.71443E-004	2.68213E-002	3.27961E-002	-1.47048E-003	-1.88935E-003	3.12457E-002	-2.04796E-003
	70	70	1.10023E+000	4.82053E-002	0.00000E+000	5.30370E-002	4.80352E-001	3.62225E-002	3.86244E+001	11	...........	6.03385E-002	-3.68264E-003	5.58301E-001	6.82728E-001	-3.06337E-002	-3.93443E-002	6.50358E-001	-4.26656E-002	2.90863E-003	-1.77523E-004	2.69130E-002	3.29111E-002	-1.47671E-003	-1.89660E-003	3.13507E-002	-2.05671E-003
	71	71	1.10032E+000	4.82499E-002	0.00000E+000	5.30904E-002	4.80796E-001	3.63471E-002	3.85992E+001	11	...........	6.05265E-002	-3.67028E-003	5.58521E-001	6.82737E-001	-3.06544E-002	-3.93476E-002	6.50427E-001	-4.26428E-002	2.92040E-003	-1.77090E-004	2.69486E-002	3.29420E-002	-1.47907E-003	-1.89852E-003	3.13830E-002	-2.05751E-003
	72	72	1.10037E+000	4.75462E-002	0.00000E+000	5.23186E-002	4.73801E-001	3.59400E-002	3.87325E+001	11	...........	5.98696E-002	-3.80347E-003	5.58635E-001	6.82714E-001	-3.06568E-002	-3.93639E-002	6.50380E-001	-4.25976E-002	2.84657E-003	-1.80841E-004	2.65610E-002	3.24605E-002	-1.45762E-003	-1.87160E-003	3.09231E-002	-2.02536E-003
	73	73	1.10023E+000	4.77377E-002	0.00000E+000	5.25223E-002	4.75704E-001	3.59834E-002	3.84801E+001	11	...........	5.99679E-002	-3.83611E-003	5.58844E-001	6.82769E-001	-3.06933E-002	-3.93436E-002	6.50410E-001	-4.26272E-002	2.86273E-003	-1.83127E-004	2.66779E-002	3.25938E-002	-1.46523E-003	-1.87817E-003	3.10491E-002	-2.03492E-003
	74	74	1.10032E+000	4.77462E-002	0.00000E+000	5.25360E-002	4.75791E-001	3.58783E-002	3.92357E+001	11	...........	5.98114E-002	-3.74208E-003	5.58846E-001	6.82845E-001	-3.07165E-002	-3.93206E-002	6.50380E-001	-4.26362E-002	2.85577E-003	-1.78670E-004	2.66828E-002	3.26033E-002	-1.46660E-003	-1.87741E-003	3.10532E-002	-2.03572E-003
	75	75	1.10038E+000	4.71843E-002	0.00000E+000	5.19208E-002	4.70202E-001	3.60511E-002	3.76539E+001	11	...........	6.01001E-002	-3.60722E-003	5.58852E-001	6.82789E-001	-3.07476E-002	-3.93289E-002	6.50371E-001	-4.26356E-002	2.83578E-003	-1.70204E-004	2.63690E-002	3.22169E-002	-1.45081E-003	-1.85571E-003	3.06873E-002	-2.01173E-003
	76	76	1.10022E+000	4.72156E-002	0.00000E+000	5.19476E-002	4.70517E-001	3.58298E-002	3.77511E+001	11	...........	5.96642E-002	-3.49972E-003	5.58776E-001	6.82746E-001	-3.07462E-002	-3.93224E-002	6.50402E-001	-4.26729E-002	2.81708E-003	-1.65242E-004	2.63830E-002	3.22363E-002	-1.45170E-003	-1.85663E-003	3.07091E-002	-2.01483E-003
	77	77	1.10032E+000	4.73039E-002	0.00000E+000	5.20493E-002	4.71393E-001	3.59992E-002	3.70600E+001	11	...........	5.99572E-002	-3.79778E-003	5.58713E-001	6.82697E-001	-3.07569E-002	-3.93089E-002	6.50320E-001	-4.26639E-002	2.83621E-003	-1.79650E-004	2.64293E-002	3.22942E-002	-1.45492E-003	-1.85946E-003	3.07626E-002	-2.01817E-003
	78	78	1.10038E+000	4.68316E-002	0.00000E+000	5.15327E-002	4.66701E-001	3.63281E-002	3.77270E+001	11	...........	6.04975E-002	-3.83667E-003	5.58672E-001	6.82658E-001	-3.07524E-002	-3.92724E-002	6.50247E-001	-4.26586E-002	2.83319E-003	-1.79677E-004	2.61635E-002	3.19699E-002	-1.44018E-003	-1.83919E-003	3.04521E-002	-1.99777E-003
	79	79	1.10023E+000	4.68608E-002	0.00000E+000	5.15575E-002	4.66992E-001	3.58653E-002	3.82214E+001	11	...........	5.97319E-002	-3.77611E-003	5.58665E-001	6.82689E-001	-3.07426E-002	-3.92447E-002	6.50171E-001	-4.26524E-002	2.79909E-003	-1.76952E-004	2.61795E-002	3.19914E-002	-1.44062E-003	-1.83904E-003	3.04675E-002	-1.99872E-003
	80	80	1.10031E+000	4.69499E-002	0.00000E+000	5.16592E-002	4.67875E-001	3.58473E-002	3.79125E+001	11	...........	5.97115E-002	-3.75139E-003	5.58637E-001	6.82763E-001	-3.07846E-002	-3.92357E-002	6.50229E-001	-4.26397E-002	2.80345E-003	-1.76127E-004	2.62279E-002	3.20557E-002	-1.44533E-003	-1.84211E-003	3.05282E-002	-2.00193E-003
	81	81	1.10039E+000	4.64294E-002	0.00000E+000	5.10906E-002	4.62701E-001	3.60443E-002	3.82132E+001	11	...........	6.00131E-002	-3.68194E-003	5.58587E-001	6.82759E-001	-3.07949E-002	-3.92144E-002	6.50118E-001	-4.26356E-002	2.78637E-003	-1.70950E-004	2.59349E-002	3.17001E-002	-1.42979E-003	-1.82070E-003	3.01846E-002	-1.97954E-003
	82	82	1.10022E+000	4.64953E-002	0.00000E+000	5.11552E-002	4.63358E-001	3.55996E-002	3.86464E+001	11	...........	5.93372E-002	-3.65958E-003	5.58545E-001	6.82708E-001	-3.08151E-002	-3.92118E-002	6.50214E-001	-4.26531E-002	2.75890E-003	-1.70153E-004	2.59697E-002	3.17427E-002	-1.43276E-003	-1.82316E-003	3.02319E-002	-1.98317E-003
	83	83	1.10031E+000	4.64594E-002	0.00000E+000	5.11196E-002	4.63000E-001	3.58370E-002	3.70944E+001	11	...........	5.97668E-002	-3.72431E-003	5.58681E-001	6.82692E-001	-3.08467E-002	-3.91935E-002	6.50240E-001	-4.26131E-002	2.77673E-003	-1.73029E-004	2.59559E-002	3.17174E-002	-1.43312E-003	-1.82090E-003	3.02097E-002	-1.97978E-003
	84	84	1.10039E+000	4.60992E-002	0.00000E+000	5.07270E-002	4.59421E-001	3.59162E-002	3.84810E+001	11	...........	5.98533E-002	-3.63500E-003	5.58771E-001	6.82671E-001	-3.08446E-002	-3.91714E-002	6.50297E-001	-4.25529E-002	2.75919E-003	-1.67570E-004	2.57589E-002	3.14706E-002	-1.42191E-003	-1.80577E-003	2.99782E-002	-1.96165E-003
	85	85	1.10023E+000	4.60328E-002	0.00000E+000	5.06466E-002	4.58759E-001	3.57381E-002	3.86228E+001	11	...........	5.95528E-002	-3.61389E-003	5.58872E-001	6.82637E-001	-3.08536E-002	-3.91883E-002	6.50164E-001	-4.25689E-002	2.74138E-003	-1.66358E-004	2.57265E-002	3.14237E-002	-1.42028E-003	-1.80395E-003	2.99289E-002	-1.95957E-003
	86	86	1.10030E+000	4.61153E-002	0.00000E+000	5.07409E-002	4.59581E-001	3.56937E-002	3.85612E+001	11	...........	5.94651E-002	-3.51764E-003	5.58965E-001	6.82665E-001	-3.08217E-002	-3.91907E-002	6.50117E-001	-4.26528E-002	2.74226E-003	-1.62217E-004	2.57769E-002	3.14814E-002	-1.42135E-003	-1.80729E-003	2.99804E-002	-1.96695E-003
	87	87	1.10039E+000	4.56226E-002	0.00000E+000	5.02028E-002	4.54677E-001	3.62443E-002	3.76378E+001	11	...........	6.03229E-002	-3.61875E-003	5.59036E-001	6.82669E-001	-3.07946E-002	-3.92260E-002	6.50120E-001	-4.26608E-002	2.75209E-003	-1.65097E-004	2.55047E-002	3.11451E-002	-1.40493E-003	-1.78959E-003	2.96602E-002	-1.94630E-003
	88	88	1.10023E+000	4.56161E-002	0.00000E+000	5.01883E-002	4.54615E-001	3.57099E-002	3.78224E+001	11	...........	5.94912E-002	-3.70264E-003	5.59042E-001	6.82672E-001	-3.07994E-002	-3.92444E-002	6.50236E-001	-4.26399E-002	2.71376E-003	-1.68900E-004	2.55013E-002	3.11408E-002	-1.40495E-003	-1.79018E-003	2.96612E-002	-1.94506E-003
	89	89	1.10030E+000	4.57690E-002	0.00000E+000	5.03594E-002	4.56139E-001	3.58065E-002	3.93607E+001	11	...........	5.97079E-002	-3.73736E-003	5.59101E-001	6.82663E-001	-3.07482E-002	-3.92521E-002	6.50344E-001	-4.26507E-002	2.73277E-003	-1.71055E-004	2.55895E-002	3.12448E-002	-1.40731E-003	-1.79653E-003	2.97656E-002	-1.95208E-003
	90	90	1.10040E+000	4.52087E-002	0.00000E+000	4.97477E-002	4.50563E-001	3.56529E-002	3.75924E+001	11	...........	5.94154E-002	-3.72403E-003	5.59008E-001	6.82658E-001	-3.07403E-002	-3.92371E-002	6.50274E-001	-4.25846E-002	2.68609E-003	-1.68358E-004	2.52720E-002	3.08620E-002	-1.38973E-003	-1.77386E-003	2.93980E-002	-1.92519E-003
	91	91	1.10022E+000	4.52513E-002	0.00000E+000	4.97866E-002	4.50991E-001	3.58187E-002	3.79063E+001	11	...........	5.96928E-002	-3.69972E-003	5.58966E-001	6.82682E-001	-3.06918E-002	-3.92086E-002	6.50329E-001	-4.25814E-002	2.70118E-003	-1.67417E-004	2.52940E-002	3.08923E-002	-1.38885E-003	-1.77424E-003	2.94283E-002	-1.92686E-003
	92	92	1.10029E+000	4.53204E-002	0.00000E+000	4.98658E-002	4.51676E-001	3.55571E-002	3.83744E+001	11	...........	5.92501E-002	-3.69028E-003	5.59042E-001	6.82689E-001	-3.06626E-002	-3.91919E-002	6.50410E-001	-4.26204E-002	2.68524E-003	-1.67245E-004	2.53360E-002	3.09397E-002	-1.38964E-003	-1.77619E-003	2.94768E-002	-1.93157E-003
	93	93	1.10040E+000	4.48259E-002	0.00000E+000	4.93265E-002	4.46759E-001	3.57634E-002	3.77581E+001	11	...........	5.95724E-002	-3.74653E-003	5.59187E-001	6.82657E-001	-3.06571E-002	-3.92026E-002	6.50474E-001	-4.26129E-002	2.67038E-003	-1.67941E-004	2.50661E-002	3.06007E-002	-1.37423E-003	-1.75729E-003	2.91581E-002	-1.91016E-003
	94	94	1.10023E+000	4.48650E-002	0.00000E+000	4.93617E-002	4.47147E-001	3.58939E-002	3.84083E+001	11	...........	5.97410E-002	-3.89972E-003	5.59116E-001	6.82644E-001	-3.06578E-002	-3.91769E-002	6.50447E-001	-4.25183E-002	2.68028E-003	-1.74961E-004	2.50848E-002	3.06268E-002	-1.37546E-003	-1.75767E-003	2.91823E-002	-1.90759E-003
	95	95	1.10029E+000	4.48719E-002	0.00000E+000	4.93723E-002	4.47216E-001	3.54432E-002	3.84460E+001	11	...........	5.90174E-002	-3.81861E-003	5.59087E-001	6.82592E-001	-3.06600E-002	-3.91747E-002	6.50424E-001	-4.25622E-002	2.64822E-003	-1.71348E-004	2.50873E-002	3.06292E-002	-1.37577E-003	-1.75784E-003	2.91857E-002	-1.90985E-003
	96	96	1.10040E+000	4.44547E-002	0.00000E+000	4.89181E-002	4.43067E-001	3.57802E-002	3.85033E+001	11	...........	5.95849E-002	-3.68181E-003	5.59251E-001	6.82610E-001	-3.06624E-002	-3.91587E-002	6.50529E-001	-4.25732E-002	2.64883E-003	-1.63674E-004	2.48613E-002	3.03452E-002	-1.36309E-003	-1.74079E-003	2.89191E-002	-1.89258E-003
	97	97	1.10023E+000	4.44385E-002	0.00000E+000	4.88926E-002	4.42903E-001	3.57690E-002	3.83743E+001	11	...........	5.95869E-002	-3.70625E-003	5.59343E-001	6.82668E-001	-3.06572E-002	-3.91631E-002	6.50371E-001	-4.25851E-002	2.64796E-003	-1.64700E-004	2.48564E-002	3.03368E-002	-1.36236E-003	-1.74035E-003	2.89016E-002	-1.89242E-003
	98	98	1.10029E+000	4.45295E-002	0.00000E+000	4.89954E-002	4.43809E-001	3.53942E-002	3.78339E+001	11	...........	5.90015E-002	-3.75222E-003	5.59228E-001	6.82671E-001	-3.06579E-002	-3.91644E-002	6.50477E-001	-4.26492E-002	2.62731E-003	-1.67085E-004	2.49021E-002	3.03990E-002	-1.36518E-003	-1.74397E-003	2.89654E-002	-1.89915E-003
	99	99	1.10040E+000	4.41625E-002	0.00000E+000	4.85965E-002	4.40162E-001	3.54773E-002	3.85708E+001	11	...........	5.91614E-002	-3.62014E-003	5.59266E-001	6.82679E-001	-3.06444E-002	-3.91810E-002	6.50452E-001	-4.26464E-002	2.61271E-003	-1.59874E-004	2.46986E-002	3.01488E-002	-1.35333E-003	-1.73033E-003	2.87256E-002	-1.88337E-003
	100	100	1.10023E+000	4.40817E-002	0.00000E+000	4.84999E-002	4.39355E-001	3.54865E-002	3.76983E+001	11	...........	5.91692E-002	-3.50361E-003	5.59272E-001	6.82651E-001	-3.06361E-002	-3.91940E-002	6.50521E-001	-4.26322E-002	2.60828E-003	-1.54445E-004	2.46537E-002	3.00924E-002	-1.35049E-003	-1.72774E-003	2.86761E-002	-1.87930E-003
	101	101	1.10029E+000	4.42562E-002	0.00000E+000	4.86947E-002	4.41090E-001	3.54589E-002	3.72010E+001	11	...........	5.90933E-002	-3.52931E-003	5.59283E-001	6.82671E-001	-3.06692E-002	-3.91904E-002	6.50496E-001	-4.26344E-002	2.61524E-003	-1.56194E-004	2.47517E-002	3.02124E-002	-1.35730E-003	-1.73442E-003	2.87885E-002	-1.88684E-003
	102	102	1.10040E+000	4.37435E-002	0.00000E+000	4.81355E-002	4.35995E-001	3.54297E-002	3.90555E+001	11	...........	5.90249E-002	-3.71125E-003	5.59273E-001	6.82692E-001	-3.06633E-002	-3.92114E-002	6.50460E-001	-4.26339E-002	2.58195E-003	-1.62343E-004	2.44646E-002	2.98633E-002	-1.34132E-003	-1.71524E-003	2.84534E-002	-1.86496E-003
	103	103	1.10023E+000	4.36711E-002	0.00000E+000	4.80483E-002	4.35273E-001	3.56482E-002	3.80567E+001	11	...........	5.94193E-002	-3.80319E-003	5.59287E-001	6.82741E-001	-3.06640E-002	-3.92294E-002	6.50367E-001	-4.26585E-002	2.59491E-003	-1.66090E-004	2.44247E-002	2.98160E-002	-1.33913E-003	-1.71319E-003	2.84023E-002	-1.86294E-003
	104	104	1.10029E+000	4.37838E-002	0.00000E+000	4.81748E-002	4.36395E-001	3.55251E-002	3.85061E+001	11	...........	5.91889E-002	-3.70319E-003	5.59308E-001	6.82807E-001	-3.06746E-002	-3.92340E-002	6.50364E-001	-4.26308E-002	2.59152E-003	-1.62140E-004	2.44887E-002	2.98959E-002	-1.34305E-003	-1.71782E-003	2.84754E-002	-1.86654E-003
	105	105	1.10041E+000	4.33742E-002	0.00000E+000	4.77292E-002	4.32321E-001	3.54432E-002	3.82687E+001	11	...........	5.90628E-002	-3.68403E-003	5.59438E-001	6.82842E-001	-3.07132E-002	-3.92310E-002	6.50481E-001	-4.26269E-002	2.56180E-003	-1.59792E-004	2.42651E-002	2.96177E-002	-1.33216E-003	-1.70161E-003	2.82141E-002	-1.84891E-003
	106	106	1.10024E+000	4.32405E-002	0.00000E+000	4.75748E-002	4.30993E-001	3.55094E-002	3.72852E+001	11	...........	5.91760E-002	-3.74222E-003	5.59397E-001	6.82900E-001	-3.07297E-002	-3.92351E-002	6.50391E-001	-4.26504E-002	2.55880E-003	-1.61816E-004	2.41886E-002	2.95290E-002	-1.32877E-003	-1.69655E-003	2.81232E-002	-1.84423E-003
	107	107	1.10028E+000	4.34199E-002	0.00000E+000	4.77741E-002	4.32773E-001	3.53862E-002	3.72320E+001	11	...........	5.89318E-002	-3.59931E-003	5.59260E-001	6.82787E-001	-3.07668E-002	-3.92068E-002	6.50287E-001	-4.26461E-002	2.55881E-003	-1.56281E-004	2.42830E-002	2.96465E-002	-1.33589E-003	-1.70236E-003	2.82354E-002	-1.85169E-003
	108	108	1.10041E+000	4.29213E-002	0.00000E+000	4.72308E-002	4.27817E-001	3.52938E-002	3.79084E+001	11	...........	5.88135E-002	-3.79556E-003	5.59268E-001	6.82853E-001	-3.07364E-002	-3.91982E-002	6.50296E-001	-4.26568E-002	2.52435E-003	-1.62910E-004	2.40045E-002	2.93089E-002	-1.31925E-003	-1.68244E-003	2.79115E-002	-1.83088E-003
	109	109	1.10024E+000	4.29459E-002	0.00000E+000	4.72506E-002	4.28061E-001	3.56332E-002	3.85051E+001	11	...........	5.93626E-002	-3.60444E-003	5.59108E-001	6.82829E-001	-3.07251E-002	-3.92218E-002	6.50416E-001	-4.26171E-002	2.54938E-003	-1.54796E-004	2.40114E-002	2.93247E-002	-1.31952E-003	-1.68441E-003	2.79327E-002	-1.83023E-003
	110	110	1.10028E+000	4.30076E-002	0.00000E+000	4.73205E-002	4.28676E-001	3.57332E-002	3.77240E+001	11	...........	5.95265E-002	-3.59458E-003	5.59147E-001	6.82834E-001	-3.07228E-002	-3.92028E-002	6.50310E-001	-4.26428E-002	2.56009E-003	-1.54594E-004	2.40476E-002	2.93671E-002	-1.32131E-003	-1.68602E-003	2.79683E-002	-1.83396E-003
	111	111	1.10040E+000	4.26239E-002	0.00000E+000	4.69035E-002	4.24860E-001	3.51346E-002	3.85255E+001	11	...........	5.85185E-002	-3.52347E-003	5.59043E-001	6.82893E-001	-3.06642E-002	-3.92131E-002	6.50317E-001	-4.26100E-002	2.49428E-003	-1.50184E-004	2.38286E-002	2.91076E-002	-1.30703E-003	-1.67141E-003	2.77190E-002	-1.81620E-003
	112	112	1.10024E+000	4.25150E-002	0.00000E+000	4.67766E-002	4.23779E-001	3.56235E-002	3.76606E+001	11	...........	5.94061E-002	-3.65569E-003	5.58897E-001	6.82823E-001	-3.06028E-002	-3.92417E-002	6.50383E-001	-4.26603E-002	2.52565E-003	-1.55422E-004	2.37615E-002	2.90302E-002	-1.30108E-003	-1.66836E-003	2.76510E-002	-1.81370E-003
	113	113	1.10028E+000	4.27042E-002	0.00000E+000	4.69866E-002	4.25659E-001	3.50647E-002	3.77147E+001	11	...........	5.84046E-002	-3.65097E-003	5.58631E-001	6.82844E-001	-3.06164E-002	-3.92587E-002	6.50385E-001	-4.26721E-002	2.49412E-003	-1.55912E-004	2.38559E-002	2.91603E-002	-1.30745E-003	-1.67651E-003	2.77742E-002	-1.82228E-003
	114	114	1.10040E+000	4.22844E-002	0.00000E+000	4.65299E-002	4.21486E-001	3.54690E-002	3.81163E+001	11	...........	5.91350E-002	-3.56417E-003	5.58793E-001	6.82919E-001	-3.06310E-002	-3.92678E-002	6.50434E-001	-4.26586E-002	2.50049E-003	-1.50709E-004	2.36283E-002	2.88768E-002	-1.29521E-003	-1.66042E-003	2.75032E-002	-1.80380E-003
	115	115	1.10024E+000	4.21315E-002	0.00000E+000	4.63547E-002	4.19965E-001	3.52552E-002	3.69806E+001	11	...........	5.87603E-002	-3.58847E-003	5.58864E-001	6.82867E-001	-3.06151E-002	-3.92742E-002	6.50339E-001	-4.26261E-002	2.47566E-003	-1.51188E-004	2.35458E-002	2.87702E-002	-1.28986E-003	-1.65468E-003	2.73997E-002	-1.79590E-003
	116	116	1.10028E+000	4.23024E-002	0.00000E+000	4.65445E-002	4.21665E-001	3.51342E-002	3.85809E+001	11	...........	5.85397E-002	-3.51014E-003	5.58794E-001	6.82780E-001	-3.06132E-002	-3.92822E-002	6.50177E-001	-4.26500E-002	2.47637E-003	-1.48487E-004	2.36383E-002	2.88832E-002	-1.29501E-003	-1.66173E-003	2.75040E-002	-1.80420E-003
	117	117	1.10040E+000	4.19665E-002	0.00000E+000	4.61799E-002	4.18330E-001	3.56339E-002	3.80381E+001	11	...........	5.93662E-002	-3.50083E-003	5.58688E-001	6.82812E-001	-3.06236E-002	-3.92183E-002	6.50217E-001	-4.26601E-002	2.49139E-003	-1.46918E-004	2.34462E-002	2.86552E-002	-1.28517E-003	-1.64586E-003	2.72873E-002	-1.79030E-003
	118	118	1.10024E+000	4.18126E-002	0.00000E+000	4.60039E-002	4.16793E-001	3.52560E-002	3.68004E+001	11	...........	5.87025E-002	-3.30944E-003	5.58606E-001	6.82885E-001	-3.06349E-002	-3.91865E-002	6.50141E-001	-4.26558E-002	2.45451E-003	-1.38377E-004	2.33568E-002	2.85532E-002	-1.28092E-003	-1.63849E-003	2.71841E-002	-1.78355E-003
	119	119	1.10028E+000	4.19492E-002	0.00000E+000	4.61559E-002	4.18151E-001	3.50398E-002	3.78235E+001	11	...........	5.83679E-002	-3.35625E-003	5.58801E-001	6.82921E-001	-3.06289E-002	-3.92000E-002	6.50317E-001	-4.26667E-002	2.44849E-003	-1.40792E-004	2.34413E-002	2.86480E-002	-1.28486E-003	-1.64441E-003	2.72803E-002	-1.78983E-003
	120	120	1.10040E+000	4.16402E-002	0.00000E+000	4.58211E-002	4.15082E-001	3.54158E-002	3.84396E+001	11	...........	5.90694E-002	-3.61319E-003	5.58924E-001	6.82936E-001	-3.06550E-002	-3.91756E-002	6.50419E-001	-4.26863E-002	2.45966E-003	-1.50454E-004	2.32737E-002	2.84376E-002	-1.27648E-003	-1.63128E-003	2.70836E-002	-1.77746E-003
	121	121	1.10024E+000	4.14394E-002	0.00000E+000	4.55933E-002	4.13082E-001	3.49723E-002	3.82836E+001	11	...........	5.83014E-002	-3.66097E-003	5.58874E-001	6.82852E-001	-3.06682E-002	-3.91590E-002	6.50245E-001	-4.26743E-002	2.41597E-003	-1.51708E-004	2.31594E-002	2.82970E-002	-1.27087E-003	-1.62273E-003	2.69458E-002	-1.76840E-003
	122	122	1.10028E+000	4.15757E-002	0.00000E+000	4.57449E-002	4.14444E-001	3.53893E-002	3.86371E+001	11	...........	5.89800E-002	-3.60792E-003	5.58719E-001	6.82806E-001	-3.06635E-002	-3.91664E-002	6.50253E-001	-4.26661E-002	2.45214E-003	-1.50002E-004	2.32291E-002	2.83881E-002	-1.27486E-003	-1.62837E-003	2.70347E-002	-1.77387E-003
	123	123	1.10040E+000	4.12988E-002	0.00000E+000	4.54452E-002	4.11685E-001	3.51111E-002	3.78984E+001	11	...........	5.84806E-002	-3.60139E-003	5.58523E-001	6.82788E-001	-3.06481E-002	-3.91889E-002	6.50313E-001	-4.26560E-002	2.41518E-003	-1.48733E-004	2.30663E-002	2.81983E-002	-1.26573E-003	-1.61845E-003	2.68571E-002	-1.76164E-003
	124	124	1.10025E+000	4.10579E-002	0.00000E+000	4.51739E-002	4.09290E-001	3.50130E-002	3.78388E+001	11	...........	5.83343E-002	-3.63819E-003	5.58664E-001	6.82879E-001	-3.06593E-002	-3.91729E-002	6.50341E-001	-4.26636E-002	2.39508E-003	-1.49377E-004	2.29376E-002	2.80376E-002	-1.25881E-003	-1.60836E-003	2.67016E-002	-1.75168E-003
	125	125	1.10027E+000	4.12151E-002	0.00000E+000	4.53479E-002	4.10850E-001	3.54558E-002	3.79876E+001	11	...........	5.90993E-002	-3.64667E-003	5.58641E-001	6.82918E-001	-3.06956E-002	-3.91775E-002	6.50325E-001	-4.26524E-002	2.43578E-003	-1.50298E-004	2.30244E-002	2.81465E-002	-1.26512E-003	-1.61470E-003	2.68032E-002	-1.75792E-003
	126	126	1.10039E+000	4.09870E-002	0.00000E+000	4.51019E-002	4.08586E-001	3.51970E-002	3.86626E+001	11	...........	5.86761E-002	-3.72250E-003	5.58876E-001	6.82984E-001	-3.07008E-002	-3.92075E-002	6.50379E-001	-4.26279E-002	2.40496E-003	-1.52574E-004	2.29067E-002	2.79935E-002	-1.25834E-003	-1.60700E-003	2.66571E-002	-1.74719E-003
	127	127	1.10025E+000	4.06624E-002	0.00000E+000	4.47389E-002	4.05357E-001	3.44761E-002	3.73165E+001	11	...........	5.75074E-002	-3.84042E-003	5.58903E-001	6.83030E-001	-3.06851E-002	-3.91968E-002	6.50185E-001	-4.25832E-002	2.33839E-003	-1.56160E-004	2.27263E-002	2.77736E-002	-1.24773E-003	-1.59384E-003	2.64381E-002	-1.73153E-003
	128	128	1.10027E+000	4.09150E-002	0.00000E+000	4.50177E-002	4.07869E-001	3.55329E-002	3.82668E+001	11	...........	5.91786E-002	-3.79236E-003	5.58897E-001	6.83112E-001	-3.07206E-002	-3.91996E-002	6.50136E-001	-4.25728E-002	2.42129E-003	-1.55164E-004	2.28673E-002	2.79495E-002	-1.25693E-003	-1.60385E-003	2.66003E-002	-1.74186E-003
	129	129	1.10040E+000	4.06266E-002	0.00000E+000	4.47054E-002	4.04999E-001	3.52140E-002	3.81580E+001	11	...........	5.86747E-002	-3.73819E-003	5.58880E-001	6.83144E-001	-3.07353E-002	-3.92133E-002	6.50340E-001	-4.26058E-002	2.38375E-003	-1.51870E-004	2.27054E-002	2.77538E-002	-1.24867E-003	-1.59310E-003	2.64211E-002	-1.73093E-003
	130	130	1.10026E+000	4.02870E-002	0.00000E+000	4.43261E-002	4.01625E-001	3.51308E-002	3.55624E+001	11	...........	5.85393E-002	-3.64028E-003	5.58731E-001	6.83166E-001	-3.07251E-002	-3.92214E-002	6.50311E-001	-4.26210E-002	2.35838E-003	-1.46656E-004	2.25096E-002	2.75227E-002	-1.23783E-003	-1.58011E-003	2.61991E-002	-1.71707E-003
	131	131	1.10027E+000	4.06322E-002	0.00000E+000	4.47063E-002	4.05057E-001	3.46152E-002	3.83329E+001	11	...........	5.76865E-002	-3.72236E-003	5.58617E-001	6.83066E-001	-3.07026E-002	-3.92378E-002	6.50269E-001	-4.26421E-002	2.34393E-003	-1.51248E-004	2.26978E-002	2.77545E-002	-1.24752E-003	-1.59432E-003	2.64219E-002	-1.73264E-003
	132	132	1.10039E+000	4.02874E-002	0.00000E+000	4.43319E-002	4.01629E-001	3.54341E-002	3.79226E+001	11	...........	5.90276E-002	-3.88750E-003	5.58572E-001	6.83146E-001	-3.06782E-002	-3.92904E-002	6.50249E-001	-4.25803E-002	2.37807E-003	-1.56617E-004	2.25034E-002	2.75221E-002	-1.23594E-003	-1.58291E-003	2.61968E-002	-1.71545E-003
	133	133	1.10026E+000	4.00100E-002	0.00000E+000	4.40214E-002	3.98873E-001	3.51146E-002	3.70576E+001	11	...........	5.85387E-002	-3.79944E-003	5.58556E-001	6.83156E-001	-3.06322E-002	-3.93043E-002	6.50263E-001	-4.26044E-002	2.34213E-003	-1.52016E-004	2.23478E-002	2.73331E-002	-1.22559E-003	-1.57256E-003	2.60170E-002	-1.70460E-003
	134	134	1.10027E+000	4.02446E-002	0.00000E+000	4.42799E-002	4.01206E-001	3.48467E-002	3.74559E+001	11	...........	5.80794E-002	-3.79861E-003	5.58755E-001	6.83200E-001	-3.06012E-002	-3.93115E-002	6.50199E-001	-4.26304E-002	2.33738E-003	-1.52873E-004	2.24869E-002	2.74951E-002	-1.23153E-003	-1.58207E-003	2.61670E-002	-1.71564E-003
	135	135	1.10039E+000	3.99416E-002	0.00000E+000	4.39514E-002	3.98193E-001	3.49293E-002	3.69721E+001	11	...........	5.82004E-002	-3.91736E-003	5.58736E-001	6.83024E-001	-3.05912E-002	-3.93157E-002	6.50305E-001	-4.26043E-002	2.32462E-003	-1.56466E-004	2.23168E-002	2.72811E-002	-1.22186E-003	-1.57033E-003	2.59742E-002	-1.70169E-003
	136	136	1.10026E+000	3.96644E-002	0.00000E+000	4.36412E-002	3.95437E-001	3.47918E-002	3.83311E+001	11	...........	5.79892E-002	-3.84708E-003	5.58639E-001	6.82944E-001	-3.05857E-002	-3.92826E-002	6.50473E-001	-4.25956E-002	2.30011E-003	-1.52592E-004	2.21581E-002	2.70886E-002	-1.21316E-003	-1.55812E-003	2.58006E-002	-1.68953E-003
	137	137	1.10027E+000	3.99020E-002	0.00000E+000	4.39031E-002	3.97798E-001	3.54203E-002	3.77162E+001	11	...........	5.90008E-002	-3.83403E-003	5.58787E-001	6.82978E-001	-3.06061E-002	-3.93007E-002	6.50494E-001	-4.26214E-002	2.35425E-003	-1.52985E-004	2.22967E-002	2.72522E-002	-1.22124E-003	-1.56817E-003	2.59560E-002	-1.70068E-003
	138	138	1.10039E+000	3.95847E-002	0.00000E+000	4.35586E-002	3.94645E-001	3.46770E-002	3.73434E+001	11	...........	5.77564E-002	-3.72486E-003	5.58683E-001	6.82875E-001	-3.06274E-002	-3.93201E-002	6.50371E-001	-4.25675E-002	2.28627E-003	-1.47448E-004	2.21153E-002	2.70314E-002	-1.21238E-003	-1.55648E-003	2.57448E-002	-1.68502E-003
	139	139	1.10026E+000	3.93459E-002	0.00000E+000	4.32908E-002	3.92274E-001	3.49890E-002	3.74133E+001	11	...........	5.84500E-002	-3.72542E-003	5.58819E-001	6.82884E-001	-3.06399E-002	-3.92947E-002	6.50372E-001	-4.26399E-002	2.29977E-003	-1.46580E-004	2.19873E-002	2.68687E-002	-1.20555E-003	-1.54609E-003	2.55895E-002	-1.67771E-003
	140	140	1.10027E+000	3.95642E-002	0.00000E+000	4.35314E-002	3.94447E-001	3.51013E-002	3.91347E+001	11	...........	5.84617E-002	-3.74944E-003	5.59071E-001	6.82930E-001	-3.06436E-002	-3.92622E-002	6.50262E-001	-4.26214E-002	2.31299E-003	-1.48344E-004	2.21192E-002	2.70195E-002	-1.21239E-003	-1.55338E-003	2.57271E-002	-1.68628E-003
	141	141	1.10039E+000	3.92751E-002	0.00000E+000	4.32178E-002	3.91569E-001	3.48403E-002	3.68633E+001	11	...........	5.80501E-002	-3.78208E-003	5.59057E-001	6.82911E-001	-3.06571E-002	-3.92674E-002	6.50162E-001	-4.26432E-002	2.27992E-003	-1.48542E-004	2.19570E-002	2.68214E-002	-1.20406E-003	-1.54223E-003	2.55352E-002	-1.67482E-003
	142	142	1.10026E+000	3.90282E-002	0.00000E+000	4.29413E-002	3.89116E-001	3.48269E-002	3.81668E+001	11	...........	5.80333E-002	-3.79250E-003	5.58967E-001	6.82964E-001	-3.06461E-002	-3.92619E-002	6.50092E-001	-4.26518E-002	2.26494E-003	-1.48015E-004	2.18155E-002	2.66549E-002	-1.19606E-003	-1.53232E-003	2.53719E-002	-1.66462E-003
	143	143	1.10027E+000	3.91949E-002	0.00000E+000	4.31251E-002	3.90775E-001	3.44878E-002	3.85409E+001	11	...........	5.75097E-002	-3.75431E-003	5.59146E-001	6.82990E-001	-3.06468E-002	-3.92779E-002	6.50011E-001	-4.26179E-002	2.25409E-003	-1.47150E-004	2.19157E-002	2.67698E-002	-1.20120E-003	-1.53950E-003	2.54771E-002	-1.67041E-003
	144	144	1.10039E+000	3.90053E-002	0.00000E+000	4.29209E-002	3.88887E-001	3.51430E-002	3.80203E+001	11	...........	5.85515E-002	-3.80375E-003	5.59314E-001	6.82951E-001	-3.06519E-002	-3.92940E-002	6.50053E-001	-4.26490E-002	2.28382E-003	-1.48366E-004	2.18162E-002	2.66387E-002	-1.19559E-003	-1.53267E-003	2.53555E-002	-1.66354E-003
	145	145	1.10027E+000	3.86465E-002	0.00000E+000	4.25217E-002	3.85322E-001	3.50645E-002	3.86145E+001	11	...........	5.84036E-002	-3.81069E-003	5.59175E-001	6.82929E-001	-3.06550E-002	-3.93031E-002	6.50132E-001	-4.26399E-002	2.25710E-003	-1.47270E-004	2.16102E-002	2.63928E-002	-1.18471E-003	-1.51893E-003	2.51253E-002	-1.64788E-003
	146	146	1.10027E+000	3.88747E-002	0.00000E+000	4.27725E-002	3.87587E-001	3.47059E-002	3.94194E+001	11	...........	5.78864E-002	-3.82139E-003	5.59175E-001	6.82920E-001	-3.06553E-002	-3.92879E-002	6.50137E-001	-4.25582E-002	2.25031E-003	-1.48555E-004	2.17378E-002	2.65483E-002	-1.19171E-003	-1.52731E-003	2.52739E-002	-1.65444E-003
	147	147	1.10038E+000	3.85819E-002	0.00000E+000	4.24547E-002	3.84675E-001	3.44718E-002	3.77075E+001	11	...........	5.74453E-002	-3.75319E-003	5.59182E-001	6.82983E-001	-3.06335E-002	-3.92786E-002	6.50096E-001	-4.25769E-002	2.21635E-003	-1.44805E-004	2.15743E-002	2.63508E-002	-1.18190E-003	-1.51544E-003	2.50819E-002	-1.64270E-003
	148	148	1.10028E+000	3.83678E-002	0.00000E+000	4.22151E-002	3.82548E-001	3.52193E-002	3.84673E+001	11	...........	5.86974E-002	-3.60639E-003	5.59269E-001	6.82971E-001	-3.06465E-002	-3.92622E-002	6.50087E-001	-4.25911E-002	2.25209E-003	-1.38369E-004	2.14579E-002	2.62041E-002	-1.17584E-003	-1.50640E-003	2.49424E-002	-1.63413E-003
	149	149	1.10027E+000	3.85362E-002	0.00000E+000	4.24002E-002	3.84222E-001	3.47952E-002	3.86899E+001	11	...........	5.79574E-002	-3.57958E-003	5.59278E-001	6.83078E-001	-3.06518E-002	-3.92472E-002	6.50181E-001	-4.25093E-002	2.23346E-003	-1.37944E-004	2.15525E-002	2.63232E-002	-1.18120E-003	-1.51244E-003	2.50555E-002	-1.63815E-003
	150	150	1.10038E+000	3.83261E-002	0.00000E+000	4.21732E-002	3.82131E-001	3.46269E-002	3.77281E+001	11	...........	5.76615E-002	-3.65667E-003	5.58967E-001	6.83127E-001	-3.06357E-002	-3.92883E-002	6.50165E-001	-4.26046E-002	2.20994E-003	-1.40146E-004	2.14230E-002	2.61816E-002	-1.17415E-003	-1.50577E-003	2.49183E-002	-1.63287E-003
	151	151	1.10028E+000	3.80197E-002	0.00000E+000	4.18322E-002	3.79089E-001	3.48742E-002	3.83097E+001	11	...........	5.80697E-002	-3.75181E-003	5.58678E-001	6.83151E-001	-3.06346E-002	-3.92778E-002	6.50325E-001	-4.26501E-002	2.20779E-003	-1.42642E-004	2.12408E-002	2.59732E-002	-1.16472E-003	-1.49333E-003	2.47251E-002	-1.62154E-003
	152	152	1.10027E+000	3.82160E-002	0.00000E+000	4.20479E-002	3.81039E-001	3.48122E-002	3.86848E+001	11	...........	5.79618E-002	-3.79917E-003	5.58644E-001	6.83132E-001	-3.06510E-002	-3.92564E-002	6.50274E-001	-4.25919E-002	2.21507E-003	-1.45189E-004	2.13492E-002	2.61066E-002	-1.17136E-003	-1.50022E-003	2.48509E-002	-1.62769E-003
	153	153	1.10038E+000	3.80337E-002	0.00000E+000	4.18514E-002	3.79223E-001	3.47145E-002	3.68523E+001	11	...........	5.78074E-002	-3.84333E-003	5.58770E-001	6.82981E-001	-3.06524E-002	-3.92478E-002	6.50214E-001	-4.26183E-002	2.19863E-003	-1.46176E-004	2.12521E-002	2.59763E-002	-1.16582E-003	-1.49274E-003	2.47300E-002	-1.62093E-003
	154	154	1.10028E+000	3.76665E-002	0.00000E+000	4.14437E-002	3.75574E-001	3.47307E-002	3.70534E+001	11	...........	5.78307E-002	-3.67681E-003	5.58693E-001	6.83073E-001	-3.06535E-002	-3.92406E-002	6.50249E-001	-4.26386E-002	2.17828E-003	-1.38492E-004	2.10440E-002	2.57290E-002	-1.15461E-003	-1.47806E-003	2.44926E-002	-1.60605E-003
	155	155	1.10027E+000	3.79064E-002	0.00000E+000	4.17072E-002	3.77960E-001	3.50329E-002	3.90600E+001	11	...........	5.83637E-002	-3.70181E-003	5.58633E-001	6.82958E-001	-3.06707E-002	-3.92753E-002	6.50268E-001	-4.25912E-002	2.21236E-003	-1.40322E-004	2.11757E-002	2.58885E-002	-1.16261E-003	-1.48878E-003	2.46493E-002	-1.61448E-003
	156	156	1.10037E+000	3.77363E-002	0.00000E+000	4.15239E-002	3.76272E-001	3.44657E-002	3.72391E+001	11	...........	5.74279E-002	-3.75472E-003	5.58565E-001	6.82948E-001	-3.07082E-002	-3.92868E-002	6.50307E-001	-4.26069E-002	2.16711E-003	-1.41689E-004	2.10782E-002	2.57719E-002	-1.15881E-003	-1.48254E-003	2.45402E-002	-1.60783E-003
	157	157	1.10028E+000	3.73420E-002	0.00000E+000	4.10868E-002	3.72351E-001	3.46422E-002	3.79387E+001	11	...........	5.77281E-002	-3.78403E-003	5.58371E-001	6.83055E-001	-3.07029E-002	-3.92851E-002	6.50382E-001	-4.25586E-002	2.15568E-003	-1.41303E-004	2.08507E-002	2.55066E-002	-1.14651E-003	-1.46699E-003	2.42866E-002	-1.58922E-003
	158	158	1.10027E+000	3.75365E-002	0.00000E+000	4.13001E-002	3.74283E-001	3.46463E-002	3.81509E+001	11	...........	5.76885E-002	-3.84306E-003	5.58238E-001	6.83010E-001	-3.06979E-002	-3.92537E-002	6.50423E-001	-4.25965E-002	2.16542E-003	-1.44255E-004	2.09543E-002	2.56378E-002	-1.15229E-003	-1.47345E-003	2.44146E-002	-1.59892E-003
	159	159	1.10037E+000	3.73866E-002	0.00000E+000	4.11391E-002	3.72795E-001	3.48328E-002	3.68077E+001	11	...........	5.80254E-002	-3.73903E-003	5.58147E-001	6.82989E-001	-3.06858E-002	-3.92549E-002	6.50361E-001	-4.26011E-002	2.16937E-003	-1.39790E-004	2.08672E-002	2.55347E-002	-1.14724E-003	-1.46761E-003	2.43148E-002	-1.59271E-003
	160	160	1.10029E+000	3.69904E-002	0.00000E+000	4.07001E-002	3.68854E-001	3.42202E-002	3.75262E+001	11	...........	5.70324E-002	-3.75903E-003	5.58092E-001	6.82831E-001	-3.06826E-002	-3.92467E-002	6.50285E-001	-4.25729E-002	2.10965E-003	-1.39048E-004	2.06440E-002	2.52582E-002	-1.13496E-003	-1.45175E-003	2.40543E-002	-1.57479E-003
	161	161	1.10027E+000	3.72217E-002	0.00000E+000	4.09538E-002	3.71152E-001	3.50857E-002	3.86773E+001	11	...........	5.84639E-002	-3.76611E-003	5.58305E-001	6.82862E-001	-3.06842E-002	-3.92643E-002	6.50219E-001	-4.24947E-002	2.17613E-003	-1.40181E-004	2.07810E-002	2.54173E-002	-1.14212E-003	-1.46148E-003	2.42022E-002	-1.58173E-003
	162	162	1.10037E+000	3.70877E-002	0.00000E+000	4.08101E-002	3.69823E-001	3.46300E-002	3.70287E+001	11	...........	5.76874E-002	-3.72278E-003	5.58287E-001	6.82954E-001	-3.06828E-002	-3.92558E-002	6.50241E-001	-4.24785E-002	2.13949E-003	-1.38069E-004	2.07056E-002	2.53292E-002	-1.13795E-003	-1.45591E-003	2.41159E-002	-1.57543E-003
	163	163	1.10029E+000	3.66854E-002	0.00000E+000	4.03645E-002	3.65823E-001	3.44004E-002	3.71531E+001	11	...........	5.73285E-002	-3.82750E-003	5.58229E-001	6.82983E-001	-3.06506E-002	-3.92047E-002	6.50122E-001	-4.25229E-002	2.10312E-003	-1.40413E-004	2.04789E-002	2.50555E-002	-1.12443E-003	-1.43824E-003	2.38500E-002	-1.55997E-003
	164	164	1.10027E+000	3.69200E-002	0.00000E+000	4.06218E-002	3.68150E-001	3.46265E-002	3.83814E+001	11	...........	5.76953E-002	-3.86014E-003	5.58149E-001	6.82871E-001	-3.06657E-002	-3.92024E-002	6.50123E-001	-4.25822E-002	2.13011E-003	-1.42516E-004	2.06068E-002	2.52116E-002	-1.13218E-003	-1.44735E-003	2.40025E-002	-1.57213E-003
	165	165	1.10036E+000	3.67922E-002	0.00000E+000	4.04847E-002	3.66879E-001	3.46989E-002	3.65337E+001	11	...........	5.78578E-002	-3.78736E-003	5.58023E-001	6.82999E-001	-3.06815E-002	-3.92224E-002	6.50058E-001	-4.25153E-002	2.12872E-003	-1.39345E-004	2.05309E-002	2.51291E-002	-1.12884E-003	-1.44308E-003	2.39171E-002	-1.56423E-003
	166	166	1.10030E+000	3.64614E-002	0.00000E+000	4.01183E-002	3.63592E-001	3.47277E-002	3.82394E+001	11	...........	5.78424E-002	-3.79014E-003	5.57949E-001	6.83111E-001	-3.06744E-002	-3.92125E-002	6.50128E-001	-4.26540E-002	2.10901E-003	-1.38194E-004	2.03436E-002	2.49072E-002	-1.11843E-003	-1.42974E-003	2.37045E-002	-1.55522E-003
	167	167	1.10026E+000	3.66117E-002	0.00000E+000	4.02826E-002	3.65089E-001	3.46096E-002	3.76205E+001	11	...........	5.76208E-002	-3.92861E-003	5.57885E-001	6.83062E-001	-3.06729E-002	-3.92253E-002	6.50205E-001	-4.26563E-002	2.10960E-003	-1.43833E-004	2.04251E-002	2.50081E-002	-1.12299E-003	-1.43610E-003	2.38051E-002	-1.56172E-003
	168	168	1.10036E+000	3.64688E-002	0.00000E+000	4.01289E-002	3.63667E-001	3.42649E-002	3.80709E+001	11	...........	5.71669E-002	-3.90847E-003	5.57906E-001	6.83096E-001	-3.06615E-002	-3.92082E-002	6.50257E-001	-4.26667E-002	2.08481E-003	-1.42537E-004	2.03462E-002	2.49117E-002	-1.11819E-003	-1.42988E-003	2.37141E-002	-1.55600E-003
	169	169	1.10030E+000	3.61290E-002	0.00000E+000	3.97527E-002	3.60283E-001	3.47889E-002	3.72275E+001	11	...........	5.79382E-002	-3.89361E-003	5.57847E-001	6.83175E-001	-3.06915E-002	-3.92118E-002	6.50282E-001	-4.26099E-002	2.09325E-003	-1.40672E-004	2.01544E-002	2.46824E-002	-1.10885E-003	-1.41668E-003	2.34940E-002	-1.53945E-003
	170	170	1.10026E+000	3.63592E-002	0.00000E+000	4.00046E-002	3.62575E-001	3.46101E-002	3.79599E+001	11	...........	5.76794E-002	-3.75042E-003	5.57814E-001	6.83109E-001	-3.07456E-002	-3.91917E-002	6.50371E-001	-4.26286E-002	2.09718E-003	-1.36362E-004	2.02817E-002	2.48373E-002	-1.11788E-003	-1.42498E-003	2.36470E-002	-1.54994E-003
	171	171	1.10036E+000	3.61707E-002	0.00000E+000	3.98008E-002	3.60701E-001	3.42514E-002	3.64367E+001	11	...........	5.70767E-002	-3.66167E-003	5.57806E-001	6.83176E-001	-3.08144E-002	-3.92182E-002	6.50331E-001	-4.26365E-002	2.06450E-003	-1.32445E-004	2.01762E-002	2.47110E-002	-1.11458E-003	-1.41855E-003	2.35229E-002	-1.54219E-003
	172	172	1.10030E+000	3.58027E-002	0.00000E+000	3.93937E-002	3.57040E-001	3.47016E-002	3.77240E+001	11	...........	5.78046E-002	-3.70069E-003	5.57873E-001	6.83116E-001	-3.08279E-002	-3.92431E-002	6.50304E-001	-4.25743E-002	2.06956E-003	-1.32495E-004	1.99734E-002	2.44574E-002	-1.10372E-003	-1.40501E-003	2.32826E-002	-1.52427E-003
	173	173	1.10026E+000	3.59873E-002	0.00000E+000	3.95954E-002	3.58875E-001	3.43425E-002	3.78996E+001	11	...........	5.72392E-002	-3.72833E-003	5.57806E-001	6.83099E-001	-3.07950E-002	-3.92374E-002	6.50139E-001	-4.25633E-002	2.05988E-003	-1.34173E-004	2.00739E-002	2.45829E-002	-1.10823E-003	-1.41205E-003	2.33967E-002	-1.53174E-003
	174	174	1.10036E+000	3.58845E-002	0.00000E+000	3.94858E-002	3.57853E-001	3.41685E-002	3.70534E+001	11	...........	5.69060E-002	-3.80736E-003	5.57779E-001	6.83343E-001	-3.07426E-002	-3.92146E-002	6.50177E-001	-4.25137E-002	2.04204E-003	-1.36625E-004	2.00157E-002	2.45214E-002	-1.10319E-003	-1.40720E-003	2.33313E-002	-1.52559E-003
	175	175	1.10031E+000	3.55316E-002	0.00000E+000	3.90956E-002	3.54343E-001	3.48111E-002	3.81589E+001	11	...........	5.79776E-002	-3.78514E-003	5.57841E-001	6.83424E-001	-3.06897E-002	-3.92132E-002	6.50027E-001	-4.25889E-002	2.06004E-003	-1.34492E-004	1.98210E-002	2.42831E-002	-1.09045E-003	-1.39331E-003	2.30965E-002	-1.51325E-003
	176	176	1.10026E+000	3.56174E-002	0.00000E+000	3.91884E-002	3.55195E-001	3.42502E-002	3.72336E+001	11	...........	5.71012E-002	-3.73653E-003	5.57887E-001	6.83442E-001	-3.06858E-002	-3.92267E-002	6.50004E-001	-4.25940E-002	2.03380E-003	-1.33085E-004	1.98705E-002	2.43424E-002	-1.09295E-003	-1.39715E-003	2.31514E-002	-1.51709E-003
	177	177	1.10035E+000	3.56228E-002	0.00000E+000	3.91977E-002	3.55249E-001	3.46221E-002	3.68063E+001	11	...........	5.76419E-002	-3.83306E-003	5.57845E-001	6.83407E-001	-3.07053E-002	-3.92947E-002	6.49932E-001	-4.26210E-002	2.05337E-003	-1.36544E-004	1.98720E-002	2.43449E-002	-1.09381E-003	-1.39979E-003	2.31524E-002	-1.51828E-003
	178	178	1.10031E+000	3.52663E-002	0.00000E+000	3.88037E-002	3.51704E-001	3.42810E-002	3.74552E+001	11	...........	5.71453E-002	-3.72500E-003	5.57948E-001	6.83319E-001	-3.07429E-002	-3.93272E-002	6.50083E-001	-4.26096E-002	2.01530E-003	-1.31367E-004	1.96768E-002	2.40981E-002	-1.08419E-003	-1.38693E-003	2.29260E-002	-1.50268E-003
	179	179	1.10026E+000	3.53476E-002	0.00000E+000	3.88916E-002	3.52517E-001	3.41185E-002	3.78513E+001	11	...........	5.68551E-002	-3.59542E-003	5.57879E-001	6.83370E-001	-3.08215E-002	-3.93251E-002	6.50057E-001	-4.26435E-002	2.00970E-003	-1.27090E-004	1.97197E-002	2.41555E-002	-1.08947E-003	-1.39005E-003	2.29780E-002	-1.50735E-003
	180	180	1.10035E+000	3.53482E-002	0.00000E+000	3.88954E-002	3.52523E-001	3.45752E-002	3.76312E+001	11	...........	5.76235E-002	-3.66250E-003	5.57803E-001	6.83426E-001	-3.08379E-002	-3.93211E-002	6.49891E-001	-4.26154E-002	2.03688E-003	-1.29463E-004	1.97173E-002	2.41578E-002	-1.09006E-003	-1.38993E-003	2.29725E-002	-1.50638E-003
	181	181	1.10031E+000	3.49065E-002	0.00000E+000	3.84081E-002	3.48133E-001	3.44600E-002	3.79120E+001	11	...........	5.74317E-002	-3.78931E-003	5.57817E-001	6.83325E-001	-3.07501E-002	-3.93271E-002	6.50002E-001	-4.25574E-002	2.00474E-003	-1.32271E-004	1.94714E-002	2.38525E-002	-1.07338E-003	-1.37277E-003	2.26893E-002	-1.48553E-003
	182	182	1.10026E+000	3.50301E-002	0.00000E+000	3.85422E-002	3.49359E-001	3.42430E-002	3.75601E+001	11	...........	5.70825E-002	-3.69750E-003	5.57909E-001	6.83382E-001	-3.06879E-002	-3.93396E-002	6.50087E-001	-4.26067E-002	1.99960E-003	-1.29524E-004	1.95436E-002	2.39389E-002	-1.07500E-003	-1.37807E-003	2.27726E-002	-1.49251E-003
	183	183	1.10034E+000	3.50391E-002	0.00000E+000	3.85550E-002	3.49449E-001	3.40850E-002	3.68302E+001	11	...........	5.68228E-002	-3.65417E-003	5.57930E-001	6.83535E-001	-3.06924E-002	-3.92929E-002	6.50272E-001	-4.26276E-002	1.99102E-003	-1.28039E-004	1.95494E-002	2.39504E-002	-1.07543E-003	-1.37679E-003	2.27849E-002	-1.49363E-003
	184	184	1.10032E+000	3.45989E-002	0.00000E+000	3.80699E-002	3.45071E-001	3.43595E-002	3.79863E+001	11	...........	5.72444E-002	-3.68611E-003	5.57959E-001	6.83366E-001	-3.07210E-002	-3.93151E-002	6.50120E-001	-4.26449E-002	1.98059E-003	-1.27535E-004	1.93048E-002	2.36437E-002	-1.06291E-003	-1.36026E-003	2.24934E-002	-1.47547E-003
	185	185	1.10026E+000	3.48648E-002	0.00000E+000	3.83603E-002	3.47715E-001	3.45227E-002	3.83469E+001	11	...........	5.75301E-002	-3.70375E-003	5.58043E-001	6.83375E-001	-3.07967E-002	-3.93064E-002	6.50122E-001	-4.26369E-002	2.00578E-003	-1.29131E-004	1.94561E-002	2.38257E-002	-1.07372E-003	-1.37041E-003	2.26664E-002	-1.48653E-003
	186	186	1.10034E+000	3.48090E-002	0.00000E+000	3.83019E-002	3.47160E-001	3.40944E-002	3.74045E+001	11	...........	5.68642E-002	-3.59583E-003	5.58070E-001	6.83392E-001	-3.07385E-002	-3.93554E-002	6.50114E-001	-4.26453E-002	1.97939E-003	-1.25167E-004	1.94259E-002	2.37882E-002	-1.06998E-003	-1.36992E-003	2.26298E-002	-1.48444E-003
	187	187	1.10032E+000	3.43473E-002	0.00000E+000	3.77930E-002	3.42569E-001	3.41473E-002	3.82364E+001	11	...........	5.69096E-002	-3.58583E-003	5.57892E-001	6.83232E-001	-3.06889E-002	-3.93589E-002	6.50041E-001	-4.26640E-002	1.95469E-003	-1.23164E-004	1.91621E-002	2.34671E-002	-1.05408E-003	-1.35187E-003	2.23271E-002	-1.46539E-003
	188	188	1.10026E+000	3.44741E-002	0.00000E+000	3.79304E-002	3.43832E-001	3.43471E-002	3.72001E+001	11	...........	5.72400E-002	-3.50375E-003	5.57976E-001	6.83326E-001	-3.06787E-002	-3.93635E-002	6.50138E-001	-4.26089E-002	1.97330E-003	-1.20789E-004	1.92357E-002	2.35570E-002	-1.05762E-003	-1.35702E-003	2.24129E-002	-1.46890E-003
	189	189	1.10034E+000	3.45266E-002	0.00000E+000	3.79911E-002	3.44353E-001	3.41551E-002	3.81105E+001	11	...........	5.69640E-002	-3.70778E-003	5.57943E-001	6.83321E-001	-3.07165E-002	-3.93568E-002	6.50332E-001	-4.26017E-002	1.96678E-003	-1.28017E-004	1.92639E-002	2.35928E-002	-1.06054E-003	-1.35886E-003	2.24538E-002	-1.47089E-003
	190	190	1.10033E+000	3.40740E-002	0.00000E+000	3.74925E-002	3.39853E-001	3.42966E-002	3.82200E+001	11	...........	5.71478E-002	-3.82583E-003	5.57955E-001	6.83378E-001	-3.08422E-002	-3.93678E-002	6.50284E-001	-4.25594E-002	1.94725E-003	-1.30362E-004	1.90118E-002	2.32854E-002	-1.05092E-003	-1.34142E-003	2.21578E-002	-1.45017E-003
	191	191	1.10026E+000	3.41692E-002	0.00000E+000	3.75949E-002	3.40804E-001	3.41316E-002	3.79448E+001	11	...........	5.68668E-002	-3.77944E-003	5.57991E-001	6.83367E-001	-3.08074E-002	-3.93344E-002	6.50305E-001	-4.25964E-002	1.94309E-003	-1.29141E-004	1.90661E-002	2.33501E-002	-1.05266E-003	-1.34403E-003	2.22204E-002	-1.45548E-003
	192	192	1.10034E+000	3.42735E-002	0.00000E+000	3.77125E-002	3.41842E-001	3.44888E-002	3.76366E+001	11	...........	5.74222E-002	-3.57958E-003	5.57937E-001	6.83459E-001	-3.07089E-002	-3.93197E-002	6.50365E-001	-4.26106E-002	1.96806E-003	-1.22685E-004	1.91225E-002	2.34245E-002	-1.05250E-003	-1.34763E-003	2.22903E-002	-1.46041E-003
	193	193	1.10033E+000	3.37872E-002	0.00000E+000	3.71772E-002	3.37004E-001	3.41782E-002	3.79425E+001	11	...........	5.69574E-002	-3.56708E-003	5.57918E-001	6.83474E-001	-3.06944E-002	-3.92935E-002	6.50271E-001	-4.26410E-002	1.92443E-003	-1.20522E-004	1.88505E-002	2.30927E-002	-1.03708E-003	-1.32762E-003	2.19709E-002	-1.44072E-003
	194	194	1.10025E+000	3.38929E-002	0.00000E+000	3.72908E-002	3.38057E-001	3.40439E-002	3.75725E+001	11	...........	5.67358E-002	-3.49375E-003	5.57858E-001	6.83538E-001	-3.07006E-002	-3.92786E-002	6.50364E-001	-4.26051E-002	1.92294E-003	-1.18413E-004	1.89074E-002	2.31671E-002	-1.04053E-003	-1.33127E-003	2.20427E-002	-1.44401E-003
	195	195	1.10033E+000	3.39193E-002	0.00000E+000	3.73226E-002	3.38315E-001	3.40962E-002	3.84727E+001	11	...........	5.68528E-002	-3.52361E-003	5.57875E-001	6.83498E-001	-3.07978E-002	-3.92828E-002	6.50473E-001	-4.25376E-002	1.92841E-003	-1.19519E-004	1.89228E-002	2.31838E-002	-1.04464E-003	-1.33245E-003	2.20636E-002	-1.44285E-003
	196	196	1.10033E+000	3.34895E-002	0.00000E+000	3.68496E-002	3.34043E-001	3.43566E-002	3.75441E+001	11	...........	5.72661E-002	-3.55875E-003	5.57948E-001	6.83456E-001	-3.08460E-002	-3.92603E-002	6.50362E-001	-4.25649E-002	1.91781E-003	-1.19181E-004	1.86854E-002	2.28886E-002	-1.03302E-003	-1.31481E-003	2.17803E-002	-1.42548E-003
	197	197	1.10026E+000	3.36231E-002	0.00000E+000	3.69940E-002	3.35373E-001	3.42879E-002	3.72674E+001	11	...........	5.71214E-002	-3.64389E-003	5.57891E-001	6.83473E-001	-3.08024E-002	-3.92576E-002	6.50298E-001	-4.26499E-002	1.92060E-003	-1.22519E-004	1.87580E-002	2.29805E-002	-1.03567E-003	-1.31996E-003	2.18650E-002	-1.43402E-003
	198	198	1.10033E+000	3.36352E-002	0.00000E+000	3.70098E-002	3.35494E-001	3.38689E-002	3.79119E+001	11	...........	5.64697E-002	-3.64403E-003	5.57817E-001	6.83591E-001	-3.06922E-002	-3.93014E-002	6.50374E-001	-4.26417E-002	1.89937E-003	-1.22568E-004	1.87623E-002	2.29928E-002	-1.03234E-003	-1.32191E-003	2.18755E-002	-1.43426E-003
	199	199	1.10034E+000	3.32079E-002	0.00000E+000	3.65399E-002	3.31243E-001	3.42595E-002	3.77977E+001	11	...........	5.71067E-002	-3.65917E-003	5.57910E-001	6.83476E-001	-3.06697E-002	-3.93072E-002	6.50485E-001	-4.26014E-002	1.89639E-003	-1.21513E-004	1.85270E-002	2.26968E-002	-1.01848E-003	-1.30531E-003	2.16013E-002	-1.41470E-003
	200	200	1.10026E+000	3.33266E-002	0.00000E+000	3.66680E-002	3.32423E-001	3.40023E-002	3.73036E+001	11	...........	5.66785E-002	-3.76236E-003	5.57892E-001	6.83423E-001	-3.06537E-002	-3.93175E-002	6.50508E-001	-4.25962E-002	1.88890E-003	-1.25387E-004	1.85927E-002	2.27762E-002	-1.02159E-003	-1.31032E-003	2.16793E-002	-1.41959E-003
	201	201	1.10032E+000	3.34039E-002	0.00000E+000	3.67551E-002	3.33191E-001	3.41380E-002	3.76911E+001	11	...........	5.69242E-002	-3.44944E-003	5.57858E-001	6.83588E-001	-3.06243E-002	-3.93614E-002	6.50399E-001	-4.25149E-002	1.90149E-003	-1.15225E-004	1.86346E-002	2.28345E-002	-1.02297E-003	-1.31482E-003	2.17259E-002	-1.42016E-003
	202	202	1.10035E+000	3.29473E-002	0.00000E+000	3.62535E-002	3.28655E-001	3.41384E-002	3.78403E+001	11	...........	5.68871E-002	-3.74444E-003	5.57906E-001	6.83519E-001	-3.06253E-002	-3.93696E-002	6.50356E-001	-4.25281E-002	1.87428E-003	-1.23369E-004	1.83815E-002	2.25201E-002	-1.00902E-003	-1.29712E-003	2.14275E-002	-1.40119E-003
	203	203	1.10025E+000	3.30264E-002	0.00000E+000	3.63374E-002	3.29439E-001	3.40152E-002	3.82756E+001	11	...........	5.67222E-002	-3.76861E-003	5.58090E-001	6.83263E-001	-3.06957E-002	-3.93378E-002	6.50340E-001	-4.25185E-002	1.87333E-003	-1.24464E-004	1.84317E-002	2.25657E-002	-1.01377E-003	-1.29918E-003	2.14784E-002	-1.40423E-003
	204	204	1.10032E+000	3.31138E-002	0.00000E+000	3.64359E-002	3.30304E-001	3.41133E-002	3.69010E+001	11	...........	5.68856E-002	-3.75111E-003	5.58005E-001	6.83255E-001	-3.07457E-002	-3.93250E-002	6.50248E-001	-4.25233E-002	1.88370E-003	-1.24214E-004	1.84777E-002	2.26252E-002	-1.01811E-003	-1.30220E-003	2.15322E-002	-1.40811E-003
	205	205	1.10035E+000	3.27217E-002	0.00000E+000	3.60052E-002	3.26409E-001	3.39467E-002	3.83256E+001	11	...........	5.65718E-002	-3.77306E-003	5.57968E-001	6.83361E-001	-3.07594E-002	-3.93239E-002	6.50180E-001	-4.26032E-002	1.85113E-003	-1.23461E-004	1.82577E-002	2.23608E-002	-1.00650E-003	-1.28675E-003	2.12750E-002	-1.39405E-003
	206	206	1.10026E+000	3.27592E-002	0.00000E+000	3.60435E-002	3.26780E-001	3.39290E-002	3.75525E+001	11	...........	5.65725E-002	-3.79792E-003	5.57902E-001	6.83479E-001	-3.07433E-002	-3.93164E-002	6.50356E-001	-4.25462E-002	1.85327E-003	-1.24417E-004	1.82764E-002	2.23902E-002	-1.00713E-003	-1.28797E-003	2.13051E-002	-1.39378E-003
	207	207	1.10032E+000	3.27973E-002	0.00000E+000	3.60874E-002	3.27161E-001	3.39491E-002	3.71943E+001	11	...........	5.66112E-002	-3.83583E-003	5.57959E-001	6.83583E-001	-3.07092E-002	-3.93364E-002	6.50248E-001	-4.25485E-002	1.85670E-003	-1.25805E-004	1.82995E-002	2.24197E-002	-1.00718E-003	-1.29013E-003	2.13264E-002	-1.39548E-003
	208	208	1.10035E+000	3.24439E-002	0.00000E+000	3.56996E-002	3.23645E-001	3.40507E-002	3.77899E+001	11	...........	5.67735E-002	-3.72403E-003	5.57896E-001	6.83698E-001	-3.06753E-002	-3.93765E-002	6.50257E-001	-4.25325E-002	1.84195E-003	-1.20822E-004	1.81003E-002	2.21818E-002	-9.95226E-004	-1.27753E-003	2.10969E-002	-1.37992E-003
	209	209	1.10026E+000	3.25273E-002	0.00000E+000	3.57883E-002	3.24471E-001	3.39212E-002	3.82265E+001	11	...........	5.65675E-002	-3.55333E-003	5.57952E-001	6.83646E-001	-3.06590E-002	-3.93889E-002	6.50199E-001	-4.26150E-002	1.83999E-003	-1.15580E-004	1.81486E-002	2.22371E-002	-9.97254E-004	-1.28121E-003	2.11492E-002	-1.38615E-003
	210	210	1.10032E+000	3.25567E-002	0.00000E+000	3.58227E-002	3.24769E-001	3.38050E-002	3.78492E+001	11	...........	5.63100E-002	-3.39375E-003	5.57973E-001	6.83504E-001	-3.06603E-002	-3.93543E-002	6.50189E-001	-4.25950E-002	1.83327E-003	-1.10489E-004	1.81658E-002	2.22526E-002	-9.98198E-004	-1.28125E-003	2.11680E-002	-1.38675E-003
	211	211	1.10035E+000	3.21381E-002	0.00000E+000	3.53632E-002	3.20609E-001	3.42057E-002	3.79682E+001	11	...........	5.70392E-002	-3.57931E-003	5.58154E-001	6.83352E-001	-3.06425E-002	-3.93653E-002	6.50300E-001	-4.25967E-002	1.83313E-003	-1.15032E-004	1.79380E-002	2.19616E-002	-9.84791E-004	-1.26512E-003	2.08994E-002	-1.36897E-003
	212	212	1.10025E+000	3.22383E-002	0.00000E+000	3.54703E-002	3.21602E-001	3.38042E-002	3.77780E+001	11	...........	5.63440E-002	-3.66042E-003	5.58144E-001	6.83202E-001	-3.06187E-002	-3.93547E-002	6.50433E-001	-4.26181E-002	1.81643E-003	-1.18005E-004	1.79936E-002	2.20253E-002	-9.87096E-004	-1.26873E-003	2.09688E-002	-1.37393E-003
	213	213	1.10031E+000	3.23226E-002	0.00000E+000	3.55649E-002	3.22441E-001	3.39223E-002	3.73659E+001	11	...........	5.65665E-002	-3.75597E-003	5.58183E-001	6.83091E-001	-3.05996E-002	-3.93312E-002	6.50353E-001	-4.25629E-002	1.82838E-003	-1.21403E-004	1.80419E-002	2.20793E-002	-9.89057E-004	-1.27129E-003	2.10211E-002	-1.37574E-003
	214	214	1.10036E+000	3.19541E-002	0.00000E+000	3.51609E-002	3.18778E-001	3.39140E-002	3.91645E+001	11	...........	5.65757E-002	-3.73208E-003	5.58231E-001	6.83160E-001	-3.06611E-002	-3.93436E-002	6.50228E-001	-4.25726E-002	1.80782E-003	-1.19255E-004	1.78378E-002	2.18297E-002	-9.79747E-004	-1.25719E-003	2.07774E-002	-1.36037E-003
	215	215	1.10025E+000	3.19885E-002	0.00000E+000	3.51953E-002	3.19121E-001	3.37823E-002	3.70188E+001	11	...........	5.63179E-002	-3.65208E-003	5.58191E-001	6.83353E-001	-3.07150E-002	-3.93293E-002	6.50156E-001	-4.25050E-002	1.80153E-003	-1.16825E-004	1.78557E-002	2.18594E-002	-9.82527E-004	-1.25809E-003	2.07975E-002	-1.35967E-003
	216	216	1.10031E+000	3.20800E-002	0.00000E+000	3.52981E-002	3.20030E-001	3.38288E-002	3.82387E+001	11	...........	5.64176E-002	-3.55944E-003	5.58366E-001	6.83431E-001	-3.07529E-002	-3.93265E-002	6.50272E-001	-4.25281E-002	1.80988E-003	-1.14187E-004	1.79124E-002	2.19245E-002	-9.86554E-004	-1.26160E-003	2.08607E-002	-1.36430E-003
	217	217	1.10036E+000	3.16516E-002	0.00000E+000	3.48282E-002	3.15772E-001	3.38606E-002	3.72996E+001	11	...........	5.64451E-002	-3.70222E-003	5.58531E-001	6.83494E-001	-3.06779E-002	-3.93289E-002	6.50326E-001	-4.25643E-002	1.78658E-003	-1.17181E-004	1.76784E-002	2.16337E-002	-9.71006E-004	-1.24482E-003	2.05839E-002	-1.34723E-003
	218	218	1.10025E+000	3.16960E-002	0.00000E+000	3.48735E-002	3.16208E-001	3.37952E-002	3.66828E+001	11	...........	5.63356E-002	-3.77111E-003	5.58512E-001	6.83554E-001	-3.06344E-002	-3.93021E-002	6.50016E-001	-4.25310E-002	1.78561E-003	-1.19529E-004	1.77026E-002	2.16659E-002	-9.70990E-004	-1.24572E-003	2.06029E-002	-1.34806E-003
	219	219	1.10031E+000	3.18367E-002	0.00000E+000	3.50302E-002	3.17611E-001	3.40300E-002	3.78616E+001	11	...........	5.67415E-002	-3.72306E-003	5.58542E-001	6.83629E-001	-3.06586E-002	-3.92840E-002	6.50021E-001	-4.25658E-002	1.80646E-003	-1.18530E-004	1.77821E-002	2.17645E-002	-9.76068E-004	-1.25067E-003	2.06945E-002	-1.35515E-003
	220	220	1.10036E+000	3.13647E-002	0.00000E+000	3.45126E-002	3.12919E-001	3.36987E-002	3.82916E+001	11	...........	5.61558E-002	-3.72014E-003	5.58638E-001	6.83730E-001	-3.06299E-002	-3.92647E-002	6.50019E-001	-4.26025E-002	1.76131E-003	-1.16681E-004	1.75215E-002	2.14450E-002	-9.60697E-004	-1.23153E-003	2.03877E-002	-1.33622E-003
	221	221	1.10025E+000	3.14803E-002	0.00000E+000	3.46361E-002	3.14065E-001	3.39866E-002	3.74732E+001	11	...........	5.66707E-002	-3.51514E-003	5.58689E-001	6.83790E-001	-3.06083E-002	-3.92672E-002	6.50198E-001	-4.25733E-002	1.78401E-003	-1.10658E-004	1.75877E-002	2.15259E-002	-9.63559E-004	-1.23614E-003	2.04684E-002	-1.34022E-003
	222	222	1.10031E+000	3.15135E-002	0.00000E+000	3.46745E-002	3.14394E-001	3.37474E-002	3.73287E+001	11	...........	5.62582E-002	-3.47375E-003	5.58725E-001	6.83909E-001	-3.06954E-002	-3.92818E-002	6.50159E-001	-4.26100E-002	1.77289E-003	-1.09470E-004	1.76074E-002	2.15523E-002	-9.67319E-004	-1.23791E-003	2.04888E-002	-1.34279E-003
	223	223	1.10037E+000	3.11026E-002	0.00000E+000	3.42243E-002	3.10311E-001	3.34718E-002	3.76039E+001	11	...........	5.57954E-002	-3.53444E-003	5.58703E-001	6.83970E-001	-3.07086E-002	-3.92661E-002	6.50049E-001	-4.25924E-002	1.73538E-003	-1.09931E-004	1.73771E-002	2.12733E-002	-9.55119E-004	-1.22128E-003	2.02182E-002	-1.32473E-003
	224	224	1.10025E+000	3.11615E-002	0.00000E+000	3.42854E-002	3.10890E-001	3.40948E-002	3.74533E+001	11	...........	5.68324E-002	-3.59236E-003	5.58872E-001	6.83957E-001	-3.06453E-002	-3.92364E-002	6.50047E-001	-4.25935E-002	1.77098E-003	-1.11943E-004	1.74152E-002	2.13131E-002	-9.54951E-004	-1.22266E-003	2.02564E-002	-1.32727E-003
	225	225	1.10030E+000	3.12777E-002	0.00000E+000	3.44149E-002	3.12047E-001	3.36066E-002	3.70007E+001	11	...........	5.60079E-002	-3.56653E-003	5.58867E-001	6.83909E-001	-3.06382E-002	-3.92496E-002	6.50059E-001	-4.25068E-002	1.75180E-003	-1.11553E-004	1.74801E-002	2.13911E-002	-9.58291E-004	-1.22764E-003	2.03323E-002	-1.32951E-003
	226	226	1.10037E+000	3.08766E-002	0.00000E+000	3.39757E-002	3.08060E-001	3.38308E-002	3.68794E+001	11	...........	5.63747E-002	-3.75611E-003	5.58927E-001	6.83917E-001	-3.06246E-002	-3.92893E-002	6.50101E-001	-4.25360E-002	1.74066E-003	-1.15976E-004	1.72578E-002	2.11171E-002	-9.45584E-004	-1.21312E-003	2.00729E-002	-1.31337E-003
	227	227	1.10025E+000	3.08934E-002	0.00000E+000	3.39906E-002	3.08232E-001	3.39795E-002	3.65422E+001	11	...........	5.66560E-002	-3.74222E-003	5.58740E-001	6.84053E-001	-3.06311E-002	-3.92958E-002	6.50239E-001	-4.26143E-002	1.75030E-003	-1.15610E-004	1.72614E-002	2.11327E-002	-9.46300E-004	-1.21398E-003	2.00881E-002	-1.31650E-003
	228	228	1.10030E+000	3.09909E-002	0.00000E+000	3.40994E-002	3.09200E-001	3.36286E-002	3.78220E+001	11	...........	5.60586E-002	-3.73625E-003	5.58574E-001	6.83925E-001	-3.07317E-002	-3.92689E-002	6.50204E-001	-4.26282E-002	1.73731E-003	-1.15790E-004	1.73107E-002	2.11955E-002	-9.52403E-004	-1.21698E-003	2.01504E-002	-1.32109E-003
	229	229	1.10037E+000	3.06622E-002	0.00000E+000	3.37397E-002	3.05933E-001	3.38016E-002	3.64098E+001	11	...........	5.63506E-002	-3.79403E-003	5.58599E-001	6.84020E-001	-3.07137E-002	-3.92814E-002	6.50134E-001	-4.26228E-002	1.72783E-003	-1.16333E-004	1.71279E-002	2.09736E-002	-9.41753E-004	-1.20446E-003	1.99346E-002	-1.30691E-003
	230	230	1.10025E+000	3.06501E-002	0.00000E+000	3.37228E-002	3.05814E-001	3.36567E-002	3.84422E+001	11	...........	5.60656E-002	-3.69653E-003	5.58659E-001	6.84089E-001	-3.06799E-002	-3.92847E-002	6.49894E-001	-4.25524E-002	1.71842E-003	-1.13299E-004	1.71230E-002	2.09674E-002	-9.40341E-004	-1.20408E-003	1.99193E-002	-1.30423E-003
	231	231	1.10030E+000	3.07048E-002	0.00000E+000	3.37846E-002	3.06355E-001	3.38364E-002	3.60523E+001	11	...........	5.64149E-002	-3.76181E-003	5.58746E-001	6.84050E-001	-3.06601E-002	-3.92865E-002	6.49861E-001	-4.25547E-002	1.73221E-003	-1.15506E-004	1.71562E-002	2.10036E-002	-9.41414E-004	-1.20629E-003	1.99539E-002	-1.30663E-003
	232	232	1.10037E+000	3.03638E-002	0.00000E+000	3.34113E-002	3.02967E-001	3.35129E-002	3.59646E+001	11	...........	5.58806E-002	-3.75069E-003	5.58694E-001	6.83891E-001	-3.06325E-002	-3.92836E-002	6.50025E-001	-4.26044E-002	1.69675E-003	-1.13885E-004	1.69641E-002	2.07655E-002	-9.30119E-004	-1.19280E-003	1.97372E-002	-1.29363E-003
	233	233	1.10025E+000	3.04092E-002	0.00000E+000	3.34578E-002	3.03416E-001	3.38439E-002	3.86356E+001	11	...........	5.64399E-002	-3.74583E-003	5.58769E-001	6.83680E-001	-3.07106E-002	-3.92749E-002	6.50027E-001	-4.25560E-002	1.71629E-003	-1.13908E-004	1.69917E-002	2.07902E-002	-9.33884E-004	-1.19432E-003	1.97668E-002	-1.29409E-003
	234	234	1.10030E+000	3.05152E-002	0.00000E+000	3.35759E-002	3.04471E-001	3.38852E-002	3.68032E+001	11	...........	5.64667E-002	-3.80750E-003	5.58878E-001	6.83531E-001	-3.07131E-002	-3.92596E-002	6.50209E-001	-4.26050E-002	1.72309E-003	-1.16187E-004	1.70543E-002	2.08581E-002	-9.37216E-004	-1.19802E-003	1.98413E-002	-1.30010E-003
	235	235	1.10037E+000	3.01575E-002	0.00000E+000	3.31844E-002	3.00915E-001	3.34818E-002	3.66575E+001	11	...........	5.58228E-002	-3.52889E-003	5.58694E-001	6.83657E-001	-3.06243E-002	-3.92731E-002	6.50030E-001	-4.25347E-002	1.68347E-003	-1.06422E-004	1.68488E-002	2.06174E-002	-9.23551E-004	-1.18438E-003	1.96032E-002	-1.28274E-003
	236	236	1.10025E+000	3.01024E-002	0.00000E+000	3.31201E-002	3.00363E-001	3.36962E-002	3.64754E+001	11	...........	5.61581E-002	-3.45611E-003	5.58622E-001	6.83685E-001	-3.06369E-002	-3.92712E-002	6.49977E-001	-4.25093E-002	1.69049E-003	-1.04037E-004	1.68159E-002	2.05806E-002	-9.22245E-004	-1.18216E-003	1.95659E-002	-1.27963E-003
	237	237	1.10030E+000	3.02633E-002	0.00000E+000	3.32987E-002	3.01967E-001	3.37600E-002	3.68369E+001	11	...........	5.62776E-002	-3.51431E-003	5.58388E-001	6.83590E-001	-3.06332E-002	-3.92967E-002	6.50021E-001	-4.24947E-002	1.70315E-003	-1.06355E-004	1.68987E-002	2.06877E-002	-9.27062E-004	-1.18925E-003	1.96718E-002	-1.28603E-003
	238	238	1.10037E+000	2.99372E-002	0.00000E+000	3.29420E-002	2.98723E-001	3.36439E-002	3.77683E+001	11	...........	5.60832E-002	-3.45042E-003	5.58410E-001	6.83524E-001	-3.06032E-002	-3.93197E-002	6.50212E-001	-4.24701E-002	1.67897E-003	-1.03296E-004	1.67172E-002	2.04628E-002	-9.16173E-004	-1.17712E-003	1.94655E-002	-1.27144E-003
	239	239	1.10025E+000	2.99074E-002	0.00000E+000	3.29057E-002	2.98425E-001	3.36957E-002	3.74836E+001	11	...........	5.61142E-002	-3.66806E-003	5.58464E-001	6.83384E-001	-3.06915E-002	-3.93165E-002	6.50259E-001	-4.25378E-002	1.67823E-003	-1.09702E-004	1.67022E-002	2.04382E-002	-9.17904E-004	-1.17586E-003	1.94476E-002	-1.27220E-003
	240	240	1.10030E+000	3.00296E-002	0.00000E+000	3.30415E-002	2.99639E-001	3.35869E-002	3.77877E+001	11	...........	5.59685E-002	-3.65236E-003	5.58510E-001	6.83340E-001	-3.06526E-002	-3.93069E-002	6.50145E-001	-4.25979E-002	1.68071E-003	-1.09679E-004	1.67718E-002	2.05204E-002	-9.20485E-004	-1.18037E-003	1.95236E-002	-1.27920E-003
	241	241	1.10037E+000	2.96850E-002	0.00000E+000	3.26645E-002	2.96216E-001	3.36314E-002	3.64506E+001	11	...........	5.60864E-002	-3.67444E-003	5.58533E-001	6.83461E-001	-3.06253E-002	-3.92940E-002	6.50099E-001	-4.25768E-002	1.66493E-003	-1.09076E-004	1.65801E-002	2.02886E-002	-9.09112E-004	-1.16644E-003	1.92982E-002	-1.26389E-003
	242	242	1.10026E+000	2.97020E-002	0.00000E+000	3.26798E-002	2.96385E-001	3.38487E-002	3.67091E+001	11	...........	5.64079E-002	-3.65347E-003	5.58471E-001	6.83461E-001	-3.06403E-002	-3.92701E-002	6.50124E-001	-4.25422E-002	1.67543E-003	-1.08516E-004	1.65877E-002	2.03002E-002	-9.10078E-004	-1.16640E-003	1.93100E-002	-1.26359E-003
	243	243	1.10029E+000	2.97651E-002	0.00000E+000	3.27504E-002	2.97011E-001	3.33287E-002	3.71414E+001	11	...........	5.55465E-002	-3.74944E-003	5.58560E-001	6.83340E-001	-3.06293E-002	-3.92361E-002	6.50097E-001	-4.25124E-002	1.65335E-003	-1.11603E-004	1.66256E-002	2.03397E-002	-9.11686E-004	-1.16787E-003	1.93502E-002	-1.26539E-003
	244	244	1.10037E+000	2.94616E-002	0.00000E+000	3.24187E-002	2.93993E-001	3.36582E-002	3.74961E+001	11	...........	5.61112E-002	-3.87125E-003	5.58512E-001	6.83478E-001	-3.07414E-002	-3.92287E-002	6.50207E-001	-4.25551E-002	1.65312E-003	-1.14053E-004	1.64546E-002	2.01363E-002	-9.05689E-004	-1.15574E-003	1.91561E-002	-1.25374E-003
	245	245	1.10025E+000	2.93768E-002	0.00000E+000	3.23219E-002	2.93151E-001	3.36071E-002	3.71700E+001	11	...........	5.60201E-002	-3.79097E-003	5.58488E-001	6.83630E-001	-3.06324E-002	-3.92193E-002	6.50182E-001	-4.25724E-002	1.64569E-003	-1.11367E-004	1.64066E-002	2.00828E-002	-8.99880E-004	-1.15214E-003	1.91003E-002	-1.25064E-003
	246	246	1.10029E+000	2.95460E-002	0.00000E+000	3.25093E-002	2.94836E-001	3.36192E-002	3.77795E+001	11	...........	5.60331E-002	-3.57792E-003	5.58404E-001	6.83860E-001	-3.06344E-002	-3.92432E-002	6.50148E-001	-4.25956E-002	1.65556E-003	-1.05713E-004	1.64986E-002	2.02054E-002	-9.05127E-004	-1.15948E-003	1.92093E-002	-1.25853E-003
	247	247	1.10037E+000	2.92214E-002	0.00000E+000	3.21545E-002	2.91609E-001	3.34696E-002	3.71229E+001	11	...........	5.57960E-002	-3.50431E-003	5.58230E-001	6.83767E-001	-3.06162E-002	-3.92953E-002	6.50177E-001	-4.25981E-002	1.63044E-003	-1.02401E-004	1.63123E-002	1.99806E-002	-8.94649E-004	-1.14826E-003	1.89991E-002	-1.24477E-003
	248	247.935	1.10031E+000	2.92316E-002	0.00000E+000	3.21638E-002	2.91713E-001	3.35512E-002	3.78399E+001	11	...........	5.58966E-002	-3.48529E-003	5.58165E-001	6.83798E-001	-3.06915E-002	-3.92528E-002	6.50366E-001	-4.26572E-002	1.63395E-003	-1.01881E-004	1.63160E-002	1.99885E-002	-8.97160E-004	-1.14742E-003	1.90112E-002	-1.24694E-003
STARTTIMEOFFSET	QUANT	382944	Start Time Offset (s)
