EXPLAIN
TAG	PWR800_CHARGE
TITLE	LABEL	PWR Charge	Test Identifier
DATE	LABEL	10/18/2022	Date
TIME	LABEL	12:32:01	Time
NOTES	NOTES	1	Notes...
	
PSTAT	PSTAT	REF3000-21114	Potentiostat
CAPACITY	QUANT	5.30000E-002	Capacity (A-hr)
CELLTYPE	SELECTOR	1	Cell Type
WORKINGCONNECTION	SELECTOR	0	Working Connection
MAXCHARGETIME	VARIABLEANDUNITS	7.20000E+003	s	2.00000E+000	hour(s)	Max Charge Time
CHARGEMODE	MULTIPARAM	0	1.00000E-001	Charge Mode	Constant Current	Amp(s)
CHARGECURRENT	QUANT	0.1	Charge Current (A)
VOLTAGEFINISH	TWOPARAM	T	2.50000E-002	7.20000E+003	Voltage Finish	I (A) <	Max Time(s)
SAMPLETIME	QUANT	1.00000E+000	Sample Period (s)
CHARGESTOPAT1	MULTIPARAM	2	1.10000E+000	Stop At 1	|Voltage| > Limit	V
CHARGESTOPAT2	MULTIPARAM	0	0.00000E+000	Stop At 2	None	N/A
AESELECTOR	AESELECTOR	0x1	T	Set Limits	AE Channels
AESBHCSELECTOR	TOGGLE	F	Save Both Half Cells
IRCOMP	TOGGLE	F	IR Measure
EOC	QUANT	0.2565367	Open Circuit (V)
SEQUENCER	TOGGLE	TRUE	Run as Sequence
PSTATMODEL	IQUANT	5	Pstat Model
PSTATSECTION	LABEL	REF3000-21114	Pstat Section
PSTATSERIALNO	LABEL	21114	Pstat Serial Number
CTRLMODE	IQUANT	0	Control Mode
ELECTROMETER	IQUANT	0	RE=0 or CS=1
IESTAB	IQUANT	0	I/E Stability
CASPEED	IQUANT	4	Control Amp Speed
CONVENTION	IQUANT	1	Current Convention
ICHRANGE	IQUANT	2	Ich Range
ICHRANGEMODE	TOGGLE	T	Ich Auto Range
ICHOFFSETENABLE	TOGGLE	F	Ich Offset Enable
ICHOFFSET	QUANT	0	Ich Offset (V)
ICHFILTER	IQUANT	1	Ich Filter
VCHRANGE	IQUANT	3	Vch Range
VCHRANGEMODE	TOGGLE	T	Vch Auto Range
VCHOFFSETENABLE	TOGGLE	F	Vch Offset Enable
VCHOFFSET	QUANT	0	Vch Offset (V)
VCHFILTER	IQUANT	1	Vch Filter
ACHRANGE	IQUANT	2	Ach Range
ACHOFFSETENABLE	TOGGLE	F	Ach Offset Enable
ACHOFFSET	QUANT	0	Ach Offset (V)
ACHFILTER	IQUANT	1	Ach Filter
IERANGELOWERLIMIT	IQUANT	9	I/E Range Lower Limit
IERANGEMODE	TOGGLE	F	I/E AutoRange
IERANGE	IQUANT	9	I/E Range
POSFEEDENABLE	TOGGLE	F	Positive Feedback IR Comp
POSFEEDRESISTANCE	QUANT	0	Positive Feedback Resistance (ohm)
ACHSELECT	IQUANT	1	Ach Select
SENSECABLEID	IQUANT	13	Sense Cable ID
PWRCABLEID	IQUANT	13	Power Cable ID
DCCALDATE	LABEL		DC Calibration Date
ACCALDATE	LABEL		AC Calibration Date
THERMOSELECT	IQUANT	1	Thermo Select
FRAMEWORKVERSION	LABEL	7.8.6	Framework Version
INSTRUMENTVERSION	LABEL	4.50	Instrument Version
COMPLIANCEVOLTAGE	IQUANT	0	Compliance Voltage
CURVE	TABLE	48
	Pt	T	Vf	Im	Vu	Pwr	Sig	Ach	Temp	IERange	Over	Vf1	Vf2	Vf3	Vf4	Vf5	Vf6	Vf7	Vf8	Pwr1	Pwr2	Pwr3	Pwr4	Pwr5	Pwr6	Pwr7	Pwr8
	#	s	V	A	V	W	V	V	deg C	#	bits	V	V	V	V	V	V	V	V	W	W	W	W	W	W	W	W
	0	1	5.52946E-001	9.98372E-002	0.00000E+000	5.52046E-002	9.94000E-001	3.72167E-002	3.96883E+001	11	...........	6.18592E-002	-5.34042E-003	6.04485E-001	5.31737E-001	-2.70542E-002	-3.80856E-002	7.05442E-001	-4.37650E-002	6.17585E-003	-5.33172E-004	6.03501E-002	5.30871E-002	-2.70101E-003	-3.80236E-003	7.04293E-002	-4.36938E-003
	1	2	7.83474E-001	9.98372E-002	0.00000E+000	7.82199E-002	9.94000E-001	3.76833E-002	4.14860E+001	11	...........	6.26478E-002	-5.45042E-003	6.04511E-001	5.31656E-001	-2.70658E-002	-3.81212E-002	7.05528E-001	-4.38394E-002	6.25458E-003	-5.44154E-004	6.03526E-002	5.30790E-002	-2.70218E-003	-3.80592E-003	7.04379E-002	-4.37681E-003
	2	2.20667	1.04585E+000	9.98388E-002	0.00000E+000	1.04416E-001	9.94000E-001	3.80871E-002	4.68115E+001	11	...........	6.33508E-002	-5.43884E-003	6.04628E-001	5.31645E-001	-2.70954E-002	-3.81230E-002	7.05527E-001	-4.38468E-002	6.32487E-003	-5.43008E-004	6.03654E-002	5.30788E-002	-2.70518E-003	-3.80615E-003	7.04390E-002	-4.37761E-003
	3	3	1.10098E+000	6.59496E-002	0.00000E+000	7.26094E-002	6.57000E-001	3.80211E-002	4.69848E+001	11	...........	6.32019E-002	-5.47654E-003	6.04686E-001	5.31717E-001	-2.70373E-002	-3.80835E-002	7.05575E-001	-4.39338E-002	4.16814E-003	-3.61176E-004	3.98788E-002	3.50665E-002	-1.78310E-003	-2.51159E-003	4.65324E-002	-2.89742E-003
	4	4	1.10045E+000	4.69247E-002	0.00000E+000	5.16381E-002	4.67814E-001	3.77623E-002	4.58809E+001	11	...........	6.27443E-002	-5.43236E-003	6.04629E-001	5.31603E-001	-2.70308E-002	-3.81432E-002	7.05565E-001	-4.39340E-002	2.94426E-003	-2.54912E-004	2.83720E-002	2.49453E-002	-1.26841E-003	-1.78986E-003	3.31084E-002	-2.06159E-003
	5	5	1.10035E+000	4.07735E-002	0.00000E+000	4.48652E-002	4.06646E-001	3.77497E-002	4.47581E+001	11	...........	6.26997E-002	-5.34111E-003	6.04796E-001	5.31528E-001	-2.70240E-002	-3.80744E-002	7.05422E-001	-4.39333E-002	2.55649E-003	-2.17776E-004	2.46597E-002	2.16723E-002	-1.10186E-003	-1.55243E-003	2.87626E-002	-1.79132E-003
	6	6	1.10031E+000	3.79088E-002	0.00000E+000	4.17112E-002	3.78163E-001	3.78705E-002	4.54129E+001	11	...........	6.29322E-002	-5.30458E-003	6.04851E-001	5.31558E-001	-2.69756E-002	-3.80826E-002	7.05378E-001	-4.38539E-002	2.38568E-003	-2.01090E-004	2.29291E-002	2.01507E-002	-1.02261E-003	-1.44367E-003	2.67400E-002	-1.66245E-003
	7	7	1.10035E+000	3.59030E-002	0.00000E+000	3.95061E-002	3.58220E-001	3.76878E-002	4.54436E+001	11	...........	6.26274E-002	-5.26042E-003	6.04859E-001	5.31525E-001	-2.69856E-002	-3.80832E-002	7.05485E-001	-4.38594E-002	2.24851E-003	-1.88865E-004	2.17163E-002	1.90834E-002	-9.68863E-004	-1.36730E-003	2.53290E-002	-1.57469E-003
	8	8	1.10032E+000	3.42926E-002	0.00000E+000	3.77329E-002	3.42205E-001	3.78076E-002	4.43098E+001	11	...........	6.28325E-002	-5.23514E-003	6.04906E-001	5.31492E-001	-2.69458E-002	-3.81204E-002	7.05489E-001	-4.39567E-002	2.15469E-003	-1.79526E-004	2.07438E-002	1.82262E-002	-9.24042E-004	-1.30725E-003	2.41930E-002	-1.50739E-003
	9	9	1.10029E+000	3.33715E-002	0.00000E+000	3.67183E-002	3.33051E-001	3.77211E-002	4.44551E+001	11	...........	6.26507E-002	-5.21264E-003	6.04768E-001	5.31448E-001	-2.69811E-002	-3.80942E-002	7.05391E-001	-4.38657E-002	2.09075E-003	-1.73954E-004	2.01820E-002	1.77352E-002	-9.00401E-004	-1.27126E-003	2.35400E-002	-1.46387E-003
	10	10	1.10034E+000	3.25509E-002	0.00000E+000	3.58170E-002	3.24889E-001	3.76340E-002	4.42209E+001	11	...........	6.25556E-002	-5.33944E-003	6.04683E-001	5.31457E-001	-2.69514E-002	-3.80979E-002	7.05358E-001	-4.39253E-002	2.03624E-003	-1.73804E-004	1.96830E-002	1.72994E-002	-8.77292E-004	-1.24012E-003	2.29600E-002	-1.42981E-003
	11	11	1.10032E+000	3.17324E-002	0.00000E+000	3.49157E-002	3.16752E-001	3.78869E-002	4.47365E+001	11	...........	6.29985E-002	-5.16403E-003	6.04792E-001	5.31432E-001	-2.69472E-002	-3.81306E-002	7.05377E-001	-4.39994E-002	1.99909E-003	-1.63867E-004	1.91915E-002	1.68636E-002	-8.55100E-004	-1.20997E-003	2.23833E-002	-1.39621E-003
	12	12	1.10028E+000	3.13855E-002	0.00000E+000	3.45330E-002	3.13305E-001	3.77055E-002	4.40814E+001	11	...........	6.26600E-002	-5.12028E-003	6.04695E-001	5.31548E-001	-2.70022E-002	-3.81164E-002	7.05396E-001	-4.40808E-002	1.96662E-003	-1.60703E-004	1.89787E-002	1.66829E-002	-8.47479E-004	-1.19630E-003	2.21392E-002	-1.38350E-003
	13	13	1.10033E+000	3.10023E-002	0.00000E+000	3.41129E-002	3.09499E-001	3.77348E-002	4.34280E+001	11	...........	6.26936E-002	-5.15500E-003	6.04666E-001	5.31583E-001	-2.69822E-002	-3.81151E-002	7.05402E-001	-4.39562E-002	1.94365E-003	-1.59817E-004	1.87461E-002	1.64803E-002	-8.36512E-004	-1.18166E-003	2.18691E-002	-1.36275E-003
	14	14	1.10032E+000	3.04956E-002	0.00000E+000	3.35548E-002	3.04462E-001	3.75997E-002	4.42835E+001	11	...........	6.25103E-002	-5.10167E-003	6.04593E-001	5.31598E-001	-2.70132E-002	-3.80958E-002	7.05322E-001	-4.38489E-002	1.90629E-003	-1.55578E-004	1.84374E-002	1.62114E-002	-8.23783E-004	-1.16175E-003	2.15092E-002	-1.33720E-003
	15	15	1.10028E+000	3.03970E-002	0.00000E+000	3.34453E-002	3.03482E-001	3.75457E-002	4.22832E+001	11	...........	6.24024E-002	-5.13097E-003	6.04572E-001	5.31528E-001	-2.69887E-002	-3.81253E-002	7.05304E-001	-4.37543E-002	1.89685E-003	-1.55966E-004	1.83772E-002	1.61569E-002	-8.20377E-004	-1.15889E-003	2.14391E-002	-1.33000E-003
	16	16	1.10033E+000	3.02195E-002	0.00000E+000	3.32513E-002	3.01715E-001	3.76697E-002	4.31242E+001	11	...........	6.25589E-002	-5.17236E-003	6.04584E-001	5.31551E-001	-2.69901E-002	-3.81022E-002	7.05319E-001	-4.38179E-002	1.89050E-003	-1.56306E-004	1.82702E-002	1.60632E-002	-8.15629E-004	-1.15143E-003	2.13144E-002	-1.32416E-003
	17	17	1.10032E+000	2.98425E-002	0.00000E+000	3.28362E-002	2.97968E-001	3.78057E-002	4.38087E+001	11	...........	6.28349E-002	-5.17361E-003	6.04370E-001	5.31646E-001	-2.70050E-002	-3.81114E-002	7.05386E-001	-4.38400E-002	1.87515E-003	-1.54393E-004	1.80359E-002	1.58656E-002	-8.05895E-004	-1.13734E-003	2.10505E-002	-1.30829E-003
	18	18	1.10028E+000	2.98267E-002	0.00000E+000	3.28177E-002	2.97813E-001	3.75747E-002	4.39247E+001	11	...........	6.24614E-002	-5.12403E-003	6.04226E-001	5.31461E-001	-2.70176E-002	-3.80753E-002	7.05556E-001	-4.39394E-002	1.86302E-003	-1.52833E-004	1.80221E-002	1.58517E-002	-8.05847E-004	-1.13566E-003	2.10444E-002	-1.31057E-003
	19	19	1.10032E+000	2.97125E-002	0.00000E+000	3.26934E-002	2.96675E-001	3.76182E-002	4.30685E+001	11	...........	6.25211E-002	-5.16236E-003	6.04333E-001	5.31225E-001	-2.70461E-002	-3.80721E-002	7.05537E-001	-4.38644E-002	1.85766E-003	-1.53387E-004	1.79563E-002	1.57840E-002	-8.03608E-004	-1.13122E-003	2.09633E-002	-1.30332E-003
	20	20	1.10032E+000	2.94034E-002	0.00000E+000	3.23531E-002	2.93607E-001	3.72893E-002	4.27695E+001	11	...........	6.21794E-002	-5.19097E-003	6.04600E-001	5.30979E-001	-2.70928E-002	-3.81082E-002	7.05448E-001	-4.38611E-002	1.82828E-003	-1.52632E-004	1.77773E-002	1.56126E-002	-7.96619E-004	-1.12051E-003	2.07425E-002	-1.28966E-003
	21	21	1.10028E+000	2.94344E-002	0.00000E+000	3.23860E-002	2.93920E-001	3.75002E-002	4.38776E+001	11	...........	6.26264E-002	-5.22917E-003	6.04805E-001	5.30845E-001	-2.71015E-002	-3.80683E-002	7.05445E-001	-4.38447E-002	1.84337E-003	-1.53917E-004	1.78021E-002	1.56251E-002	-7.97717E-004	-1.12052E-003	2.07643E-002	-1.29054E-003
	22	22	1.10032E+000	2.93845E-002	0.00000E+000	3.23325E-002	2.93423E-001	3.73797E-002	4.33836E+001	11	...........	6.24575E-002	-5.23833E-003	6.04786E-001	5.30944E-001	-2.70667E-002	-3.80932E-002	7.05462E-001	-4.38614E-002	1.83528E-003	-1.53926E-004	1.77713E-002	1.56015E-002	-7.95341E-004	-1.11935E-003	2.07297E-002	-1.28885E-003
	23	23	1.10032E+000	2.90688E-002	0.00000E+000	3.19850E-002	2.90289E-001	3.72385E-002	4.31860E+001	11	...........	6.22035E-002	-5.25819E-003	6.04882E-001	5.31108E-001	-2.70939E-002	-3.81239E-002	7.05403E-001	-4.38835E-002	1.80818E-003	-1.52849E-004	1.75832E-002	1.54387E-002	-7.87586E-004	-1.10821E-003	2.05052E-002	-1.27564E-003
	24	24	1.10028E+000	2.91290E-002	0.00000E+000	3.20500E-002	2.90887E-001	3.72899E-002	4.30550E+001	11	...........	6.22724E-002	-5.25139E-003	6.04878E-001	5.31297E-001	-2.70781E-002	-3.81276E-002	7.05600E-001	-4.38521E-002	1.81393E-003	-1.52968E-004	1.76195E-002	1.54761E-002	-7.88757E-004	-1.11062E-003	2.05534E-002	-1.27737E-003
	25	25	1.10032E+000	2.90923E-002	0.00000E+000	3.20109E-002	2.90525E-001	3.72212E-002	4.37992E+001	11	...........	6.21704E-002	-5.26708E-003	6.04684E-001	5.31313E-001	-2.70722E-002	-3.81479E-002	7.05427E-001	-4.39467E-002	1.80868E-003	-1.53232E-004	1.75917E-002	1.54571E-002	-7.87594E-004	-1.10981E-003	2.05225E-002	-1.27851E-003
	26	26	1.10033E+000	2.88082E-002	0.00000E+000	3.16984E-002	2.87699E-001	3.74017E-002	4.35970E+001	11	...........	6.24575E-002	-5.24278E-003	6.04667E-001	5.31375E-001	-2.70410E-002	-3.81086E-002	7.05333E-001	-4.39561E-002	1.79929E-003	-1.51035E-004	1.74193E-002	1.53079E-002	-7.79001E-004	-1.09784E-003	2.03193E-002	-1.26629E-003
	27	27	1.10028E+000	2.88567E-002	0.00000E+000	3.17504E-002	2.88183E-001	3.72621E-002	4.31913E+001	11	...........	6.22411E-002	-5.26583E-003	6.04639E-001	5.31362E-001	-2.70458E-002	-3.81318E-002	7.05356E-001	-4.39228E-002	1.79607E-003	-1.51955E-004	1.74479E-002	1.53334E-002	-7.80454E-004	-1.10036E-003	2.03543E-002	-1.26747E-003
	28	28	1.10032E+000	2.88116E-002	0.00000E+000	3.17018E-002	2.87734E-001	3.71643E-002	4.17121E+001	11	...........	6.20339E-002	-5.21528E-003	6.04604E-001	5.31288E-001	-2.70874E-002	-3.80732E-002	7.05408E-001	-4.40107E-002	1.78729E-003	-1.50260E-004	1.74196E-002	1.53072E-002	-7.80429E-004	-1.09695E-003	2.03239E-002	-1.26802E-003
	29	29	1.10033E+000	2.85962E-002	0.00000E+000	3.14652E-002	2.85595E-001	3.71858E-002	4.25539E+001	11	...........	6.21028E-002	-5.30625E-003	6.04544E-001	5.31256E-001	-2.70593E-002	-3.80761E-002	7.05393E-001	-4.39000E-002	1.77591E-003	-1.51739E-004	1.72877E-002	1.51919E-002	-7.73794E-004	-1.08883E-003	2.01716E-002	-1.25537E-003
	30	30	1.10028E+000	2.86528E-002	0.00000E+000	3.15260E-002	2.86150E-001	3.73383E-002	4.35415E+001	11	...........	6.23572E-002	-5.26917E-003	6.04609E-001	5.31240E-001	-2.70486E-002	-3.80646E-002	7.05431E-001	-4.39126E-002	1.78671E-003	-1.50976E-004	1.73237E-002	1.52215E-002	-7.75018E-004	-1.09066E-003	2.02126E-002	-1.25822E-003
	31	31	1.10032E+000	2.85964E-002	0.00000E+000	3.14651E-002	2.85597E-001	3.70718E-002	4.27831E+001	11	...........	6.19057E-002	-5.18833E-003	6.04499E-001	5.31273E-001	-2.70828E-002	-3.81029E-002	7.05412E-001	-4.38650E-002	1.77028E-003	-1.48368E-004	1.72865E-002	1.51925E-002	-7.74470E-004	-1.08961E-003	2.01722E-002	-1.25438E-003
	32	32	1.10033E+000	2.83718E-002	0.00000E+000	3.12183E-002	2.83359E-001	3.72228E-002	4.34890E+001	11	...........	6.22449E-002	-5.17972E-003	6.04451E-001	5.31572E-001	-2.70724E-002	-3.80587E-002	7.05344E-001	-4.39286E-002	1.76600E-003	-1.46958E-004	1.71494E-002	1.50817E-002	-7.68091E-004	-1.07979E-003	2.00119E-002	-1.24633E-003
	33	33	1.10028E+000	2.84204E-002	0.00000E+000	3.12703E-002	2.83845E-001	3.73113E-002	4.26074E+001	11	...........	6.23072E-002	-5.22917E-003	6.04402E-001	5.31511E-001	-2.70296E-002	-3.80592E-002	7.05395E-001	-4.38218E-002	1.77079E-003	-1.48615E-004	1.71773E-002	1.51058E-002	-7.68191E-004	-1.08166E-003	2.00476E-002	-1.24543E-003
	34	34	1.10031E+000	2.84046E-002	0.00000E+000	3.12540E-002	2.83684E-001	3.69787E-002	4.33737E+001	11	...........	6.17833E-002	-5.26278E-003	6.04353E-001	5.31664E-001	-2.70831E-002	-3.80826E-002	7.05442E-001	-4.37954E-002	1.75493E-003	-1.49487E-004	1.71664E-002	1.51017E-002	-7.69283E-004	-1.08172E-003	2.00378E-002	-1.24399E-003
	35	35	1.10033E+000	2.81467E-002	0.00000E+000	3.09707E-002	2.81123E-001	3.71981E-002	4.32206E+001	11	...........	6.21185E-002	-5.32153E-003	6.04456E-001	5.31646E-001	-2.70744E-002	-3.80982E-002	7.05384E-001	-4.38401E-002	1.74843E-003	-1.49783E-004	1.70135E-002	1.49641E-002	-7.62056E-004	-1.07234E-003	1.98542E-002	-1.23396E-003
	36	36	1.10028E+000	2.81940E-002	0.00000E+000	3.10212E-002	2.81593E-001	3.70080E-002	4.15151E+001	11	...........	6.18142E-002	-5.28403E-003	6.04570E-001	5.31626E-001	-2.70701E-002	-3.80881E-002	7.05332E-001	-4.39050E-002	1.74279E-003	-1.48978E-004	1.70452E-002	1.49886E-002	-7.63214E-004	-1.07385E-003	1.98861E-002	-1.23786E-003
	37	37	1.10031E+000	2.81883E-002	0.00000E+000	3.10160E-002	2.81537E-001	3.71194E-002	4.29906E+001	11	...........	6.20199E-002	-5.14750E-003	6.04725E-001	5.31373E-001	-2.70562E-002	-3.81179E-002	7.05224E-001	-4.38507E-002	1.74824E-003	-1.45099E-004	1.70462E-002	1.49785E-002	-7.62671E-004	-1.07448E-003	1.98791E-002	-1.23608E-003
	38	38	1.10033E+000	2.79753E-002	0.00000E+000	3.07822E-002	2.79415E-001	3.72408E-002	4.39641E+001	11	...........	6.21696E-002	-5.13417E-003	6.04604E-001	5.31323E-001	-2.70772E-002	-3.81193E-002	7.05252E-001	-4.38171E-002	1.73922E-003	-1.43630E-004	1.69140E-002	1.48639E-002	-7.57495E-004	-1.06640E-003	1.97297E-002	-1.22580E-003
	39	39	1.10028E+000	2.79906E-002	0.00000E+000	3.07973E-002	2.79573E-001	3.70222E-002	4.24687E+001	11	...........	6.18394E-002	-5.21208E-003	6.04572E-001	5.31241E-001	-2.70572E-002	-3.81328E-002	7.05321E-001	-4.39481E-002	1.73092E-003	-1.45889E-004	1.69223E-002	1.48697E-002	-7.57347E-004	-1.06736E-003	1.97423E-002	-1.23013E-003
	40	40	1.10031E+000	2.80249E-002	0.00000E+000	3.08361E-002	2.79916E-001	3.71243E-002	4.24969E+001	11	...........	6.20024E-002	-5.25833E-003	6.04825E-001	5.31298E-001	-2.70428E-002	-3.81725E-002	7.05258E-001	-4.38950E-002	1.73761E-003	-1.47364E-004	1.69502E-002	1.48896E-002	-7.57871E-004	-1.06978E-003	1.97648E-002	-1.23015E-003
	41	41	1.10034E+000	2.78009E-002	0.00000E+000	3.05903E-002	2.77680E-001	3.70052E-002	4.27462E+001	11	...........	6.20662E-002	-5.30653E-003	6.04851E-001	5.31448E-001	-2.70385E-002	-3.81724E-002	7.05420E-001	-4.39568E-002	1.72550E-003	-1.47526E-004	1.68154E-002	1.47747E-002	-7.51694E-004	-1.06123E-003	1.96113E-002	-1.22204E-003
	42	42	1.10028E+000	2.78246E-002	0.00000E+000	3.06147E-002	2.77921E-001	3.69836E-002	4.36136E+001	11	...........	6.17506E-002	-5.31111E-003	6.04728E-001	5.31509E-001	-2.70536E-002	-3.81749E-002	7.05363E-001	-4.40135E-002	1.71818E-003	-1.47779E-004	1.68263E-002	1.47890E-002	-7.52755E-004	-1.06220E-003	1.96264E-002	-1.22466E-003
	43	43	1.10031E+000	2.78403E-002	0.00000E+000	3.06330E-002	2.78070E-001	3.70676E-002	4.23722E+001	11	...........	6.19400E-002	-5.30250E-003	6.04683E-001	5.31477E-001	-2.70347E-002	-3.81718E-002	7.05315E-001	-4.38218E-002	1.72443E-003	-1.47623E-004	1.68346E-002	1.47965E-002	-7.52655E-004	-1.06272E-003	1.96362E-002	-1.22001E-003
	44	44	1.10034E+000	2.76066E-002	0.00000E+000	3.03766E-002	2.75750E-001	3.69281E-002	4.44631E+001	11	...........	6.16803E-002	-5.29319E-003	6.04653E-001	5.31463E-001	-2.69964E-002	-3.81353E-002	7.05366E-001	-4.39915E-002	1.70278E-003	-1.46127E-004	1.66924E-002	1.46719E-002	-7.45279E-004	-1.05279E-003	1.94728E-002	-1.21446E-003
	45	45	1.10028E+000	2.76480E-002	0.00000E+000	3.04205E-002	2.76157E-001	3.71403E-002	4.29502E+001	11	...........	6.20385E-002	-5.22306E-003	6.04757E-001	5.31534E-001	-2.70592E-002	-3.81207E-002	7.05329E-001	-4.40235E-002	1.71524E-003	-1.44407E-004	1.67203E-002	1.46959E-002	-7.48133E-004	-1.05396E-003	1.95010E-002	-1.21716E-003
	46	46	1.10031E+000	2.76322E-002	0.00000E+000	3.04040E-002	2.76003E-001	3.67676E-002	4.19350E+001	11	...........	6.14103E-002	-5.23542E-003	6.04693E-001	5.31579E-001	-2.70376E-002	-3.81521E-002	7.05307E-001	-4.40137E-002	1.69690E-003	-1.44666E-004	1.67090E-002	1.46887E-002	-7.47111E-004	-1.05423E-003	1.94892E-002	-1.21620E-003
	47	46.0483	1.10103E+000	2.62387E-002	0.00000E+000	2.88898E-002	2.62159E-001	3.70397E-002	4.33250E+001	11	...........	6.17213E-002	-5.13218E-003	6.04724E-001	5.31397E-001	-2.69626E-002	-3.82615E-002	7.05215E-001	-4.38448E-002	1.61949E-003	-1.34662E-004	1.58672E-002	1.39432E-002	-7.07465E-004	-1.00393E-003	1.85040E-002	-1.15043E-003
STARTTIMEOFFSET	QUANT	1009198	Start Time Offset (s)
