EXPLAIN
TAG	PWR800_CHARGE
TITLE	LABEL	PWR Charge	Test Identifier
DATE	LABEL	10/16/2022	Date
TIME	LABEL	3:48:02	Time
NOTES	NOTES	1	Notes...
	
PSTAT	PSTAT	REF3000-21114	Potentiostat
CAPACITY	QUANT	5.30000E-002	Capacity (A-hr)
CELLTYPE	SELECTOR	1	Cell Type
WORKINGCONNECTION	SELECTOR	0	Working Connection
MAXCHARGETIME	VARIABLEANDUNITS	7.20000E+003	s	2.00000E+000	hour(s)	Max Charge Time
CHARGEMODE	MULTIPARAM	0	1.00000E-001	Charge Mode	Constant Current	Amp(s)
CHARGECURRENT	QUANT	0.1	Charge Current (A)
VOLTAGEFINISH	TWOPARAM	T	2.50000E-002	7.20000E+003	Voltage Finish	I (A) <	Max Time(s)
SAMPLETIME	QUANT	1.00000E+000	Sample Period (s)
CHARGESTOPAT1	MULTIPARAM	2	1.10000E+000	Stop At 1	|Voltage| > Limit	V
CHARGESTOPAT2	MULTIPARAM	0	0.00000E+000	Stop At 2	None	N/A
AESELECTOR	AESELECTOR	0x1	T	Set Limits	AE Channels
AESBHCSELECTOR	TOGGLE	F	Save Both Half Cells
IRCOMP	TOGGLE	F	IR Measure
EOC	QUANT	0.277039	Open Circuit (V)
SEQUENCER	TOGGLE	TRUE	Run as Sequence
PSTATMODEL	IQUANT	5	Pstat Model
PSTATSECTION	LABEL	REF3000-21114	Pstat Section
PSTATSERIALNO	LABEL	21114	Pstat Serial Number
CTRLMODE	IQUANT	0	Control Mode
ELECTROMETER	IQUANT	0	RE=0 or CS=1
IESTAB	IQUANT	0	I/E Stability
CASPEED	IQUANT	4	Control Amp Speed
CONVENTION	IQUANT	1	Current Convention
ICHRANGE	IQUANT	2	Ich Range
ICHRANGEMODE	TOGGLE	T	Ich Auto Range
ICHOFFSETENABLE	TOGGLE	F	Ich Offset Enable
ICHOFFSET	QUANT	0	Ich Offset (V)
ICHFILTER	IQUANT	1	Ich Filter
VCHRANGE	IQUANT	3	Vch Range
VCHRANGEMODE	TOGGLE	T	Vch Auto Range
VCHOFFSETENABLE	TOGGLE	F	Vch Offset Enable
VCHOFFSET	QUANT	0	Vch Offset (V)
VCHFILTER	IQUANT	1	Vch Filter
ACHRANGE	IQUANT	2	Ach Range
ACHOFFSETENABLE	TOGGLE	F	Ach Offset Enable
ACHOFFSET	QUANT	0	Ach Offset (V)
ACHFILTER	IQUANT	1	Ach Filter
IERANGELOWERLIMIT	IQUANT	9	I/E Range Lower Limit
IERANGEMODE	TOGGLE	F	I/E AutoRange
IERANGE	IQUANT	9	I/E Range
POSFEEDENABLE	TOGGLE	F	Positive Feedback IR Comp
POSFEEDRESISTANCE	QUANT	0	Positive Feedback Resistance (ohm)
ACHSELECT	IQUANT	1	Ach Select
SENSECABLEID	IQUANT	13	Sense Cable ID
PWRCABLEID	IQUANT	13	Power Cable ID
DCCALDATE	LABEL		DC Calibration Date
ACCALDATE	LABEL		AC Calibration Date
THERMOSELECT	IQUANT	1	Thermo Select
FRAMEWORKVERSION	LABEL	7.8.6	Framework Version
INSTRUMENTVERSION	LABEL	4.50	Instrument Version
COMPLIANCEVOLTAGE	IQUANT	0	Compliance Voltage
CURVE	TABLE	70
	Pt	T	Vf	Im	Vu	Pwr	Sig	Ach	Temp	IERange	Over	Vf1	Vf2	Vf3	Vf4	Vf5	Vf6	Vf7	Vf8	Pwr1	Pwr2	Pwr3	Pwr4	Pwr5	Pwr6	Pwr7	Pwr8
	#	s	V	A	V	W	V	V	deg C	#	bits	V	V	V	V	V	V	V	V	W	W	W	W	W	W	W	W
	0	1	5.69605E-001	9.98476E-002	0.00000E+000	5.68737E-002	9.94000E-001	3.82208E-002	3.99257E+001	11	...........	6.34446E-002	-4.33708E-003	5.76592E-001	6.16477E-001	-2.89276E-002	-3.89657E-002	6.65218E-001	-4.31267E-002	6.33479E-003	-4.33048E-004	5.75713E-002	6.15538E-002	-2.88836E-003	-3.89063E-003	6.64204E-002	-4.30610E-003
	1	2	8.19666E-001	9.98481E-002	0.00000E+000	8.18421E-002	9.94000E-001	3.88283E-002	4.36790E+001	11	...........	6.45008E-002	-4.35153E-003	5.76545E-001	6.16451E-001	-2.89142E-002	-3.89806E-002	6.65107E-001	-4.32006E-002	6.44029E-003	-4.34492E-004	5.75669E-002	6.15515E-002	-2.88703E-003	-3.89214E-003	6.64097E-002	-4.31350E-003
	2	2.09333	1.07906E+000	9.98492E-002	0.00000E+000	1.07743E-001	9.94000E-001	3.96366E-002	5.03305E+001	11	...........	6.58437E-002	-4.41071E-003	5.76650E-001	6.16421E-001	-2.86920E-002	-3.90551E-002	6.65113E-001	-4.31949E-002	6.57444E-003	-4.40406E-004	5.75780E-002	6.15491E-002	-2.86487E-003	-3.89961E-003	6.64110E-002	-4.31298E-003
	3	3	1.10129E+000	6.38575E-002	0.00000E+000	7.03253E-002	6.36117E-001	3.91748E-002	5.02271E+001	11	...........	6.50613E-002	-4.43428E-003	5.76734E-001	6.16458E-001	-2.89354E-002	-3.89565E-002	6.65101E-001	-4.31823E-002	4.15465E-003	-2.83162E-004	3.68288E-002	3.93654E-002	-1.84774E-003	-2.48766E-003	4.24716E-002	-2.75751E-003
	4	4	1.10078E+000	4.70366E-002	0.00000E+000	5.17771E-002	4.68869E-001	3.88733E-002	4.76905E+001	11	...........	6.45299E-002	-4.26194E-003	5.76722E-001	6.16507E-001	-2.89169E-002	-3.89674E-002	6.65063E-001	-4.31751E-002	3.03526E-003	-2.00467E-004	2.71270E-002	2.89984E-002	-1.36015E-003	-1.83289E-003	3.12823E-002	-2.03081E-003
	5	5	1.10078E+000	4.17247E-002	0.00000E+000	4.59298E-002	4.16049E-001	3.86892E-002	4.82707E+001	11	...........	6.42521E-002	-4.07444E-003	5.76804E-001	6.16579E-001	-2.89346E-002	-3.89686E-002	6.65185E-001	-4.32290E-002	2.68090E-003	-1.70005E-004	2.40670E-002	2.57266E-002	-1.20729E-003	-1.62595E-003	2.77546E-002	-1.80372E-003
	6	6	1.10067E+000	3.91582E-002	0.00000E+000	4.31002E-002	3.90536E-001	3.90993E-002	4.78243E+001	11	...........	6.48964E-002	-4.10222E-003	5.77019E-001	6.16698E-001	-2.88869E-002	-3.89499E-002	6.65054E-001	-4.31865E-002	2.54123E-003	-1.60636E-004	2.25950E-002	2.41488E-002	-1.13116E-003	-1.52521E-003	2.60423E-002	-1.69111E-003
	7	7	1.10071E+000	3.74419E-002	0.00000E+000	4.12127E-002	3.73475E-001	3.85906E-002	4.60667E+001	11	...........	6.40751E-002	-4.17417E-003	5.77264E-001	6.16883E-001	-2.88728E-002	-3.89211E-002	6.64995E-001	-4.31944E-002	2.39909E-003	-1.56289E-004	2.16139E-002	2.30973E-002	-1.08105E-003	-1.45728E-003	2.48987E-002	-1.61728E-003
	8	8	1.10076E+000	3.59425E-002	0.00000E+000	3.95640E-002	3.58560E-001	3.90034E-002	4.71474E+001	11	...........	6.47457E-002	-4.20736E-003	5.77265E-001	6.16997E-001	-2.88590E-002	-3.89517E-002	6.65017E-001	-4.32078E-002	2.32712E-003	-1.51223E-004	2.07484E-002	2.21764E-002	-1.03727E-003	-1.40002E-003	2.39024E-002	-1.55300E-003
	9	9	1.10065E+000	3.51459E-002	0.00000E+000	3.86835E-002	3.50641E-001	3.87690E-002	4.75273E+001	11	...........	6.43675E-002	-4.23486E-003	5.77208E-001	6.17116E-001	-2.88521E-002	-3.89762E-002	6.64961E-001	-4.31996E-002	2.26226E-003	-1.48838E-004	2.02865E-002	2.16891E-002	-1.01403E-003	-1.36986E-003	2.33707E-002	-1.51829E-003
	10	10	1.10070E+000	3.45608E-002	0.00000E+000	3.80410E-002	3.44819E-001	3.87383E-002	4.75301E+001	11	...........	6.43200E-002	-4.07556E-003	5.77082E-001	6.17317E-001	-2.88647E-002	-3.89865E-002	6.64854E-001	-4.32893E-002	2.22295E-003	-1.40854E-004	1.99444E-002	2.13350E-002	-9.97588E-004	-1.34741E-003	2.29779E-002	-1.49611E-003
	11	11	1.10075E+000	3.37789E-002	0.00000E+000	3.71821E-002	3.37047E-001	3.89305E-002	4.61830E+001	11	...........	6.46356E-002	-4.09681E-003	5.77132E-001	6.17308E-001	-2.88690E-002	-3.89629E-002	6.65056E-001	-4.32639E-002	2.18332E-003	-1.38385E-004	1.94949E-002	2.08520E-002	-9.75163E-004	-1.31612E-003	2.24648E-002	-1.46140E-003
	12	12	1.10065E+000	3.34534E-002	0.00000E+000	3.68204E-002	3.33810E-001	3.85987E-002	4.56691E+001	11	...........	6.40867E-002	-4.07403E-003	5.77094E-001	6.17138E-001	-2.88931E-002	-3.89360E-002	6.65067E-001	-4.32126E-002	2.14391E-003	-1.36290E-004	1.93057E-002	2.06453E-002	-9.66570E-004	-1.30254E-003	2.22487E-002	-1.44561E-003
	13	13	1.10069E+000	3.32529E-002	0.00000E+000	3.66012E-002	3.31817E-001	3.87787E-002	4.63129E+001	11	...........	6.43987E-002	-4.02778E-003	5.77068E-001	6.17020E-001	-2.89042E-002	-3.89368E-002	6.65126E-001	-4.33050E-002	2.14144E-003	-1.33935E-004	1.91892E-002	2.05177E-002	-9.61147E-004	-1.29476E-003	2.21174E-002	-1.44002E-003
	14	14	1.10075E+000	3.27772E-002	0.00000E+000	3.60795E-002	3.27087E-001	3.88630E-002	4.67457E+001	11	...........	6.45167E-002	-4.11111E-003	5.76982E-001	6.17022E-001	-2.89010E-002	-3.89575E-002	6.65186E-001	-4.32672E-002	2.11468E-003	-1.34751E-004	1.89119E-002	2.02243E-002	-9.47293E-004	-1.27692E-003	2.18029E-002	-1.41818E-003
	15	15	1.10065E+000	3.26143E-002	0.00000E+000	3.58969E-002	3.25469E-001	3.87808E-002	4.70442E+001	11	...........	6.43860E-002	-4.14347E-003	5.76772E-001	6.17057E-001	-2.89079E-002	-3.89615E-002	6.65085E-001	-4.32744E-002	2.09990E-003	-1.35136E-004	1.88110E-002	2.01249E-002	-9.42810E-004	-1.27070E-003	2.16913E-002	-1.41136E-003
	16	16	1.10069E+000	3.25666E-002	0.00000E+000	3.58457E-002	3.24999E-001	3.86830E-002	4.66710E+001	11	...........	6.42193E-002	-4.10333E-003	5.76738E-001	6.17046E-001	-2.89179E-002	-3.89615E-002	6.65193E-001	-4.32764E-002	2.09140E-003	-1.33631E-004	1.87824E-002	2.00951E-002	-9.41757E-004	-1.26884E-003	2.16631E-002	-1.40936E-003
	17	17	1.10075E+000	3.21529E-002	0.00000E+000	3.53922E-002	3.20886E-001	3.85182E-002	4.43007E+001	11	...........	6.39757E-002	-4.09333E-003	5.76861E-001	6.17155E-001	-2.89183E-002	-3.89929E-002	6.65066E-001	-4.33267E-002	2.05700E-003	-1.31612E-004	1.85477E-002	1.98433E-002	-9.29807E-004	-1.25373E-003	2.13838E-002	-1.39308E-003
	18	18	1.10065E+000	3.20890E-002	0.00000E+000	3.53187E-002	3.20252E-001	3.86722E-002	4.61971E+001	11	...........	6.42063E-002	-3.98708E-003	5.76833E-001	6.17250E-001	-2.89040E-002	-3.90094E-002	6.64997E-001	-4.33836E-002	2.06031E-003	-1.27942E-004	1.85100E-002	1.98069E-002	-9.27501E-004	-1.25177E-003	2.13391E-002	-1.39214E-003
	19	19	1.10069E+000	3.21024E-002	0.00000E+000	3.53347E-002	3.20386E-001	3.88126E-002	4.67493E+001	11	...........	6.44536E-002	-4.09542E-003	5.76900E-001	6.17336E-001	-2.89187E-002	-3.90232E-002	6.64923E-001	-4.33201E-002	2.06911E-003	-1.31473E-004	1.85198E-002	1.98180E-002	-9.28360E-004	-1.25274E-003	2.13456E-002	-1.39068E-003
	20	20	1.10075E+000	3.17468E-002	0.00000E+000	3.49452E-002	3.16851E-001	3.81174E-002	4.56656E+001	11	...........	6.38419E-002	-4.06167E-003	5.76981E-001	6.17382E-001	-2.89240E-002	-3.90303E-002	6.65047E-001	-4.32065E-002	2.02678E-003	-1.28945E-004	1.83173E-002	1.95999E-002	-9.18245E-004	-1.23909E-003	2.11131E-002	-1.37167E-003
	21	21	1.10065E+000	3.17231E-002	0.00000E+000	3.49159E-002	3.16615E-001	3.84302E-002	4.59504E+001	11	...........	6.41542E-002	-4.02403E-003	5.76913E-001	6.17396E-001	-2.89168E-002	-3.90331E-002	6.65087E-001	-4.31933E-002	2.03517E-003	-1.27655E-004	1.83015E-002	1.95857E-002	-9.17330E-004	-1.23825E-003	2.10986E-002	-1.37023E-003
	22	22	1.10069E+000	3.17366E-002	0.00000E+000	3.49321E-002	3.16749E-001	3.85560E-002	4.52751E+001	11	...........	6.43628E-002	-4.03514E-003	5.76739E-001	6.17217E-001	-2.89169E-002	-3.90436E-002	6.65167E-001	-4.32861E-002	2.04265E-003	-1.28061E-004	1.83037E-002	1.95884E-002	-9.17725E-004	-1.23911E-003	2.11101E-002	-1.37375E-003
	23	23	1.10075E+000	3.14521E-002	0.00000E+000	3.46208E-002	3.13919E-001	3.80603E-002	4.59220E+001	11	...........	6.35440E-002	-4.05750E-003	5.76731E-001	6.17097E-001	-2.89304E-002	-3.90372E-002	6.65172E-001	-4.33044E-002	1.99859E-003	-1.27617E-004	1.81394E-002	1.94090E-002	-9.09922E-004	-1.22780E-003	2.09210E-002	-1.36201E-003
	24	24	1.10065E+000	3.14079E-002	0.00000E+000	3.45692E-002	3.13479E-001	3.85727E-002	4.49195E+001	11	...........	6.44126E-002	-4.10125E-003	5.76799E-001	6.17135E-001	-2.89260E-002	-3.90376E-002	6.65264E-001	-4.32794E-002	2.02307E-003	-1.28812E-004	1.81160E-002	1.93829E-002	-9.08504E-004	-1.22609E-003	2.08946E-002	-1.35932E-003
	25	25	1.10069E+000	3.14429E-002	0.00000E+000	3.46087E-002	3.13827E-001	3.83110E-002	4.62944E+001	11	...........	6.39537E-002	-4.07764E-003	5.76848E-001	6.17270E-001	-2.89371E-002	-3.90236E-002	6.65219E-001	-4.32925E-002	2.01089E-003	-1.28213E-004	1.81378E-002	1.94087E-002	-9.09865E-004	-1.22701E-003	2.09164E-002	-1.36124E-003
	26	26	1.10075E+000	3.11611E-002	0.00000E+000	3.43006E-002	3.11028E-001	3.81933E-002	4.66022E+001	11	...........	6.37592E-002	-4.12125E-003	5.76976E-001	6.17308E-001	-2.89619E-002	-3.89811E-002	6.65050E-001	-4.32756E-002	1.98681E-003	-1.28423E-004	1.79792E-002	1.92360E-002	-9.02487E-004	-1.21470E-003	2.07237E-002	-1.34852E-003
	27	27	1.10065E+000	3.10574E-002	0.00000E+000	3.41833E-002	3.09997E-001	3.84210E-002	4.36970E+001	11	...........	6.41404E-002	-4.11569E-003	5.77137E-001	6.17391E-001	-2.89600E-002	-3.90114E-002	6.65179E-001	-4.33318E-002	1.99203E-003	-1.27823E-004	1.79244E-002	1.91745E-002	-8.99421E-004	-1.21159E-003	2.06587E-002	-1.34577E-003
	28	28	1.10068E+000	3.11396E-002	0.00000E+000	3.42749E-002	3.10815E-001	3.79073E-002	4.51778E+001	11	...........	6.32932E-002	-4.07694E-003	5.76966E-001	6.17407E-001	-2.89678E-002	-3.89985E-002	6.65114E-001	-4.33100E-002	1.97093E-003	-1.26955E-004	1.79665E-002	1.92258E-002	-9.02046E-004	-1.21440E-003	2.07114E-002	-1.34866E-003
	29	29	1.10075E+000	3.09015E-002	0.00000E+000	3.40148E-002	3.08445E-001	3.85480E-002	4.56432E+001	11	...........	6.43337E-002	-4.29736E-003	5.76889E-001	6.17281E-001	-2.89733E-002	-3.90140E-002	6.65058E-001	-4.33144E-002	1.98801E-003	-1.32795E-004	1.78267E-002	1.90749E-002	-8.95319E-004	-1.20559E-003	2.05513E-002	-1.33848E-003
	30	30	1.10065E+000	3.08169E-002	0.00000E+000	3.39187E-002	3.07607E-001	3.83551E-002	4.51319E+001	11	...........	6.40340E-002	-4.22389E-003	5.76816E-001	6.17093E-001	-2.89874E-002	-3.89872E-002	6.64870E-001	-4.33297E-002	1.97333E-003	-1.30167E-004	1.77757E-002	1.90169E-002	-8.93301E-004	-1.20147E-003	2.04892E-002	-1.33529E-003
	31	31	1.10068E+000	3.09224E-002	0.00000E+000	3.40358E-002	3.08655E-001	3.82358E-002	4.53288E+001	11	...........	6.38524E-002	-4.13722E-003	5.76743E-001	6.17125E-001	-2.89764E-002	-3.89708E-002	6.64990E-001	-4.32408E-002	1.97447E-003	-1.27933E-004	1.78343E-002	1.90830E-002	-8.96020E-004	-1.20507E-003	2.05631E-002	-1.33711E-003
	32	32	1.10075E+000	3.06621E-002	0.00000E+000	3.37513E-002	3.06065E-001	3.81946E-002	4.61931E+001	11	...........	6.37656E-002	-4.14681E-003	5.76934E-001	6.17128E-001	-2.89626E-002	-3.89576E-002	6.65198E-001	-4.32972E-002	1.95518E-003	-1.27150E-004	1.76900E-002	1.89224E-002	-8.88055E-004	-1.19452E-003	2.03963E-002	-1.32758E-003
	33	33	1.10065E+000	3.05766E-002	0.00000E+000	3.36542E-002	3.05215E-001	3.82056E-002	4.53521E+001	11	...........	6.37936E-002	-4.08125E-003	5.76881E-001	6.17020E-001	-2.89568E-002	-3.89614E-002	6.65184E-001	-4.32787E-002	1.95059E-003	-1.24791E-004	1.76391E-002	1.88664E-002	-8.85401E-004	-1.19131E-003	2.03391E-002	-1.32332E-003
	34	34	1.10068E+000	3.06249E-002	0.00000E+000	3.37083E-002	3.05692E-001	3.80157E-002	4.37628E+001	11	...........	6.34746E-002	-4.09792E-003	5.76754E-001	6.16978E-001	-2.89506E-002	-3.89703E-002	6.64964E-001	-4.32818E-002	1.94390E-003	-1.25498E-004	1.76630E-002	1.88949E-002	-8.86608E-004	-1.19346E-003	2.03645E-002	-1.32550E-003
	35	35	1.10075E+000	3.04538E-002	0.00000E+000	3.35219E-002	3.03992E-001	3.84104E-002	4.59413E+001	11	...........	6.41115E-002	-4.18319E-003	5.76815E-001	6.16983E-001	-2.89540E-002	-3.89500E-002	6.65072E-001	-4.32539E-002	1.95244E-003	-1.27394E-004	1.75662E-002	1.87895E-002	-8.81760E-004	-1.18618E-003	2.02540E-002	-1.31725E-003
	36	36	1.10065E+000	3.03571E-002	0.00000E+000	3.34126E-002	3.03031E-001	3.80400E-002	4.52538E+001	11	...........	6.35182E-002	-4.17764E-003	5.77014E-001	6.17096E-001	-2.89529E-002	-3.89565E-002	6.65023E-001	-4.32175E-002	1.92823E-003	-1.26821E-004	1.75165E-002	1.87332E-002	-8.78926E-004	-1.18261E-003	2.01882E-002	-1.31196E-003
	37	37	1.10068E+000	3.04372E-002	0.00000E+000	3.35017E-002	3.03824E-001	3.83432E-002	4.56978E+001	11	...........	6.39996E-002	-4.15361E-003	5.77067E-001	6.17180E-001	-2.89354E-002	-3.89611E-002	6.64999E-001	-4.32543E-002	1.94797E-003	-1.26424E-004	1.75643E-002	1.87852E-002	-8.80713E-004	-1.18587E-003	2.02407E-002	-1.31654E-003
	38	38	1.10075E+000	3.02289E-002	0.00000E+000	3.32743E-002	3.01755E-001	3.81969E-002	4.60210E+001	11	...........	6.37779E-002	-4.27556E-003	5.77115E-001	6.17275E-001	-2.89147E-002	-3.89700E-002	6.65106E-001	-4.31701E-002	1.92793E-003	-1.29245E-004	1.74455E-002	1.86595E-002	-8.74059E-004	-1.17802E-003	2.01054E-002	-1.30498E-003
	39	39	1.10065E+000	3.00867E-002	0.00000E+000	3.31151E-002	3.00347E-001	3.79652E-002	4.52330E+001	11	...........	6.33757E-002	-4.30667E-003	5.77122E-001	6.17214E-001	-2.89206E-002	-3.89500E-002	6.65010E-001	-4.31200E-002	1.90677E-003	-1.29573E-004	1.73637E-002	1.85699E-002	-8.70125E-004	-1.17188E-003	2.00080E-002	-1.29734E-003
	40	40	1.10068E+000	3.01770E-002	0.00000E+000	3.32153E-002	3.01242E-001	3.79968E-002	4.39614E+001	11	...........	6.34354E-002	-4.16181E-003	5.77144E-001	6.17313E-001	-2.89261E-002	-3.89757E-002	6.65079E-001	-4.32032E-002	1.91429E-003	-1.25591E-004	1.74165E-002	1.86287E-002	-8.72903E-004	-1.17617E-003	2.00701E-002	-1.30374E-003
	41	41	1.10075E+000	3.00159E-002	0.00000E+000	3.30399E-002	2.99639E-001	3.83608E-002	4.60009E+001	11	...........	6.40521E-002	-4.28556E-003	5.77134E-001	6.17239E-001	-2.89281E-002	-3.90018E-002	6.65094E-001	-4.32204E-002	1.92258E-003	-1.28635E-004	1.73232E-002	1.85270E-002	-8.68301E-004	-1.17067E-003	1.99634E-002	-1.29730E-003
	42	42	1.10066E+000	2.99070E-002	0.00000E+000	3.29173E-002	2.98561E-001	3.80831E-002	4.56095E+001	11	...........	6.36006E-002	-4.26639E-003	5.76970E-001	6.17136E-001	-2.89424E-002	-3.89865E-002	6.65110E-001	-4.33301E-002	1.90210E-003	-1.27595E-004	1.72554E-002	1.84567E-002	-8.65579E-004	-1.16597E-003	1.98914E-002	-1.29587E-003
	43	43	1.10068E+000	2.99811E-002	0.00000E+000	3.29996E-002	2.99299E-001	3.80211E-002	4.57543E+001	11	...........	6.34758E-002	-4.19458E-003	5.76967E-001	6.17264E-001	-2.89281E-002	-3.89931E-002	6.65126E-001	-4.32674E-002	1.90307E-003	-1.25758E-004	1.72981E-002	1.85062E-002	-8.67294E-004	-1.16905E-003	1.99412E-002	-1.29720E-003
	44	44	1.10075E+000	2.97788E-002	0.00000E+000	3.27790E-002	2.97287E-001	3.81517E-002	4.57269E+001	11	...........	6.36828E-002	-4.17583E-003	5.77122E-001	6.17217E-001	-2.89344E-002	-3.89946E-002	6.65026E-001	-4.32894E-002	1.89640E-003	-1.24351E-004	1.71860E-002	1.83800E-002	-8.61634E-004	-1.16121E-003	1.98037E-002	-1.28911E-003
	45	45	1.10066E+000	2.96581E-002	0.00000E+000	3.26433E-002	2.96087E-001	3.78501E-002	4.32523E+001	11	...........	6.31915E-002	-4.19847E-003	5.76870E-001	6.17029E-001	-2.89419E-002	-3.90086E-002	6.64947E-001	-4.32675E-002	1.87414E-003	-1.24519E-004	1.71089E-002	1.82999E-002	-8.58362E-004	-1.15692E-003	1.97210E-002	-1.28323E-003
	46	46	1.10068E+000	2.97896E-002	0.00000E+000	3.27888E-002	2.97390E-001	3.81436E-002	4.50976E+001	11	...........	6.36661E-002	-4.19347E-003	5.76977E-001	6.16975E-001	-2.89300E-002	-3.90032E-002	6.64922E-001	-4.32246E-002	1.89659E-003	-1.24922E-004	1.71879E-002	1.83794E-002	-8.61813E-004	-1.16189E-003	1.98078E-002	-1.28764E-003
	47	47	1.10075E+000	2.95854E-002	0.00000E+000	3.25660E-002	2.95364E-001	3.80989E-002	4.63185E+001	11	...........	6.36094E-002	-4.27583E-003	5.77021E-001	6.17026E-001	-2.89260E-002	-3.89831E-002	6.65059E-001	-4.33022E-002	1.88191E-003	-1.26502E-004	1.70714E-002	1.82550E-002	-8.55787E-004	-1.15333E-003	1.96761E-002	-1.28111E-003
	48	48	1.10066E+000	2.94632E-002	0.00000E+000	3.24289E-002	2.94146E-001	3.79338E-002	4.47910E+001	11	...........	6.33218E-002	-4.17806E-003	5.76992E-001	6.16895E-001	-2.89337E-002	-3.89428E-002	6.65055E-001	-4.32993E-002	1.86566E-003	-1.23099E-004	1.70000E-002	1.81757E-002	-8.52481E-004	-1.14738E-003	1.95946E-002	-1.27574E-003
	49	49	1.10068E+000	2.95715E-002	0.00000E+000	3.25488E-002	2.95223E-001	3.80366E-002	4.68404E+001	11	...........	6.35156E-002	-4.15083E-003	5.76940E-001	6.16885E-001	-2.89149E-002	-3.89329E-002	6.65147E-001	-4.33151E-002	1.87825E-003	-1.22746E-004	1.70610E-002	1.82422E-002	-8.55056E-004	-1.15131E-003	1.96694E-002	-1.28089E-003
	50	50	1.10074E+000	2.93736E-002	0.00000E+000	3.23329E-002	2.93257E-001	3.81278E-002	4.51653E+001	11	...........	6.36386E-002	-4.14333E-003	5.76872E-001	6.16834E-001	-2.89306E-002	-3.89262E-002	6.65145E-001	-4.32657E-002	1.86930E-003	-1.21705E-004	1.69448E-002	1.81187E-002	-8.49796E-004	-1.14341E-003	1.95377E-002	-1.27087E-003
	51	51	1.10066E+000	2.92497E-002	0.00000E+000	3.21939E-002	2.92027E-001	3.78177E-002	4.49456E+001	11	...........	6.31268E-002	-4.08042E-003	5.76732E-001	6.16777E-001	-2.89450E-002	-3.89457E-002	6.65159E-001	-4.33043E-002	1.84644E-003	-1.19351E-004	1.68692E-002	1.80405E-002	-8.46631E-004	-1.13915E-003	1.94557E-002	-1.26664E-003
	52	52	1.10068E+000	2.93587E-002	0.00000E+000	3.23145E-002	2.93114E-001	3.79823E-002	4.67236E+001	11	...........	6.34031E-002	-4.04778E-003	5.76756E-001	6.16822E-001	-2.89582E-002	-3.89342E-002	6.65120E-001	-4.34114E-002	1.86143E-003	-1.18837E-004	1.69328E-002	1.81091E-002	-8.50174E-004	-1.14306E-003	1.95270E-002	-1.27450E-003
	53	53	1.10074E+000	2.91859E-002	0.00000E+000	3.21262E-002	2.91394E-001	3.80612E-002	4.57036E+001	11	...........	6.35612E-002	-4.11778E-003	5.76731E-001	6.16841E-001	-2.89499E-002	-3.89104E-002	6.65173E-001	-4.33033E-002	1.85509E-003	-1.20181E-004	1.68324E-002	1.80030E-002	-8.44927E-004	-1.13563E-003	1.94137E-002	-1.26385E-003
	54	54	1.10066E+000	2.90288E-002	0.00000E+000	3.19509E-002	2.89831E-001	3.76750E-002	4.35668E+001	11	...........	6.29017E-002	-4.18389E-003	5.76776E-001	6.16937E-001	-2.89582E-002	-3.89274E-002	6.65243E-001	-4.32399E-002	1.82596E-003	-1.21453E-004	1.67431E-002	1.79089E-002	-8.40622E-004	-1.13001E-003	1.93112E-002	-1.25520E-003
	55	55	1.10068E+000	2.91671E-002	0.00000E+000	3.21036E-002	2.91210E-001	3.80257E-002	4.57696E+001	11	...........	6.34783E-002	-4.26639E-003	5.76770E-001	6.16977E-001	-2.89481E-002	-3.89406E-002	6.65161E-001	-4.32235E-002	1.85148E-003	-1.24438E-004	1.68227E-002	1.79954E-002	-8.44332E-004	-1.13578E-003	1.94008E-002	-1.26070E-003
	56	56	1.10074E+000	2.90025E-002	0.00000E+000	3.19243E-002	2.89573E-001	3.78669E-002	4.61883E+001	11	...........	6.32386E-002	-4.30806E-003	5.76678E-001	6.16932E-001	-2.89444E-002	-3.89232E-002	6.65178E-001	-4.32497E-002	1.83408E-003	-1.24945E-004	1.67251E-002	1.78926E-002	-8.39463E-004	-1.12887E-003	1.92919E-002	-1.25435E-003
	57	57	1.10066E+000	2.88529E-002	0.00000E+000	3.17573E-002	2.88087E-001	3.79337E-002	4.56724E+001	11	...........	6.33410E-002	-4.31597E-003	5.76523E-001	6.16881E-001	-2.89414E-002	-3.89064E-002	6.65183E-001	-4.32587E-002	1.82757E-003	-1.24528E-004	1.66343E-002	1.77988E-002	-8.35042E-004	-1.12256E-003	1.91924E-002	-1.24814E-003
	58	58	1.10068E+000	2.89732E-002	0.00000E+000	3.18902E-002	2.89283E-001	3.79247E-002	4.58708E+001	11	...........	6.33107E-002	-4.30639E-003	5.76324E-001	6.16863E-001	-2.89610E-002	-3.88914E-002	6.65219E-001	-4.32476E-002	1.83431E-003	-1.24770E-004	1.66980E-002	1.78725E-002	-8.39093E-004	-1.12681E-003	1.92735E-002	-1.25302E-003
	59	59	1.10074E+000	2.88083E-002	0.00000E+000	3.17105E-002	2.87647E-001	3.76195E-002	4.60746E+001	11	...........	6.27969E-002	-4.28611E-003	5.76269E-001	6.16857E-001	-2.89564E-002	-3.89075E-002	6.65197E-001	-4.32243E-002	1.80907E-003	-1.23476E-004	1.66013E-002	1.77706E-002	-8.34185E-004	-1.12086E-003	1.91632E-002	-1.24522E-003
	60	60	1.10067E+000	2.86649E-002	0.00000E+000	3.15504E-002	2.86219E-001	3.80080E-002	4.59330E+001	11	...........	6.34354E-002	-4.36542E-003	5.76147E-001	6.16778E-001	-2.89490E-002	-3.88999E-002	6.65241E-001	-4.32778E-002	1.81837E-003	-1.25134E-004	1.65152E-002	1.76799E-002	-8.29820E-004	-1.11506E-003	1.90691E-002	-1.24055E-003
	61	61	1.10068E+000	2.87832E-002	0.00000E+000	3.16810E-002	2.87397E-001	3.78693E-002	4.63592E+001	11	...........	6.32482E-002	-4.20569E-003	5.76110E-001	6.16743E-001	-2.89661E-002	-3.89224E-002	6.65215E-001	-4.32010E-002	1.82048E-003	-1.21053E-004	1.65823E-002	1.77518E-002	-8.33737E-004	-1.12031E-003	1.91470E-002	-1.24346E-003
	62	62	1.10074E+000	2.86119E-002	0.00000E+000	3.14943E-002	2.85693E-001	3.75917E-002	4.52381E+001	11	...........	6.27582E-002	-4.11556E-003	5.76160E-001	6.16700E-001	-2.89876E-002	-3.89406E-002	6.65135E-001	-4.32543E-002	1.79563E-003	-1.17754E-004	1.64851E-002	1.76450E-002	-8.29393E-004	-1.11416E-003	1.90308E-002	-1.23759E-003
	63	63	1.10067E+000	2.84597E-002	0.00000E+000	3.13246E-002	2.84180E-001	3.78877E-002	4.41527E+001	11	...........	6.32612E-002	-4.08556E-003	5.76124E-001	6.16713E-001	-2.89897E-002	-3.89399E-002	6.65161E-001	-4.32872E-002	1.80039E-003	-1.16273E-004	1.63963E-002	1.75514E-002	-8.25037E-004	-1.10821E-003	1.89302E-002	-1.23194E-003
	64	64	1.10068E+000	2.85764E-002	0.00000E+000	3.14533E-002	2.85340E-001	3.76505E-002	4.49695E+001	11	...........	6.28692E-002	-3.99125E-003	5.75970E-001	6.16707E-001	-2.89860E-002	-3.89494E-002	6.65181E-001	-4.32160E-002	1.79657E-003	-1.14055E-004	1.64591E-002	1.76232E-002	-8.28314E-004	-1.11303E-003	1.90085E-002	-1.23496E-003
	65	65	1.10074E+000	2.84501E-002	0.00000E+000	3.13161E-002	2.84085E-001	3.78227E-002	4.58748E+001	11	...........	6.31315E-002	-4.05472E-003	5.75969E-001	6.16688E-001	-2.89907E-002	-3.89467E-002	6.65279E-001	-4.31421E-002	1.79610E-003	-1.15357E-004	1.63863E-002	1.75448E-002	-8.24787E-004	-1.10804E-003	1.89272E-002	-1.22739E-003
	66	66	1.10067E+000	2.82690E-002	0.00000E+000	3.11149E-002	2.82283E-001	3.79299E-002	4.54434E+001	11	...........	6.33107E-002	-4.19375E-003	5.75984E-001	6.16572E-001	-2.89842E-002	-3.89224E-002	6.65245E-001	-4.32125E-002	1.78973E-003	-1.18553E-004	1.62825E-002	1.74299E-002	-8.19354E-004	-1.10030E-003	1.88058E-002	-1.22157E-003
	67	67	1.10067E+000	2.83956E-002	0.00000E+000	3.12543E-002	2.83543E-001	3.77308E-002	4.60671E+001	11	...........	6.30072E-002	-4.23903E-003	5.76078E-001	6.16689E-001	-2.89726E-002	-3.89618E-002	6.65205E-001	-4.31240E-002	1.78913E-003	-1.20370E-004	1.63581E-002	1.75113E-002	-8.22696E-004	-1.10634E-003	1.88889E-002	-1.22453E-003
	68	68	1.10074E+000	2.82381E-002	0.00000E+000	3.10827E-002	2.81974E-001	3.76723E-002	4.45901E+001	11	...........	6.29042E-002	-4.19319E-003	5.76048E-001	6.16643E-001	-2.89660E-002	-3.89365E-002	6.65250E-001	-4.31933E-002	1.77629E-003	-1.18408E-004	1.62665E-002	1.74128E-002	-8.17943E-004	-1.09949E-003	1.87854E-002	-1.21970E-003
	69	68.575	1.10072E+000	2.80914E-002	0.00000E+000	3.09207E-002	2.80522E-001	3.76913E-002	4.31670E+001	11	...........	6.29357E-002	-4.18164E-003	5.76097E-001	6.16595E-001	-2.89720E-002	-3.89476E-002	6.65241E-001	-4.31780E-002	1.76795E-003	-1.17468E-004	1.61833E-002	1.73210E-002	-8.13862E-004	-1.09409E-003	1.86875E-002	-1.21293E-003
STARTTIMEOFFSET	QUANT	805010.1	Start Time Offset (s)
