EXPLAIN
TAG	PWR800_CHARGE
TITLE	LABEL	PWR Charge	Test Identifier
DATE	LABEL	10/12/2022	Date
TIME	LABEL	9:53:56	Time
NOTES	NOTES	1	Notes...
	
PSTAT	PSTAT	REF3000-21114	Potentiostat
CAPACITY	QUANT	5.30000E-002	Capacity (A-hr)
CELLTYPE	SELECTOR	1	Cell Type
WORKINGCONNECTION	SELECTOR	0	Working Connection
MAXCHARGETIME	VARIABLEANDUNITS	7.20000E+003	s	2.00000E+000	hour(s)	Max Charge Time
CHARGEMODE	MULTIPARAM	0	1.00000E-001	Charge Mode	Constant Current	Amp(s)
CHARGECURRENT	QUANT	0.1	Charge Current (A)
VOLTAGEFINISH	TWOPARAM	T	2.50000E-002	7.20000E+003	Voltage Finish	I (A) <	Max Time(s)
SAMPLETIME	QUANT	1.00000E+000	Sample Period (s)
CHARGESTOPAT1	MULTIPARAM	2	1.10000E+000	Stop At 1	|Voltage| > Limit	V
CHARGESTOPAT2	MULTIPARAM	0	0.00000E+000	Stop At 2	None	N/A
AESELECTOR	AESELECTOR	0x1	T	Set Limits	AE Channels
AESBHCSELECTOR	TOGGLE	F	Save Both Half Cells
IRCOMP	TOGGLE	F	IR Measure
EOC	QUANT	0.2762653	Open Circuit (V)
SEQUENCER	TOGGLE	TRUE	Run as Sequence
PSTATMODEL	IQUANT	5	Pstat Model
PSTATSECTION	LABEL	REF3000-21114	Pstat Section
PSTATSERIALNO	LABEL	21114	Pstat Serial Number
CTRLMODE	IQUANT	0	Control Mode
ELECTROMETER	IQUANT	0	RE=0 or CS=1
IESTAB	IQUANT	0	I/E Stability
CASPEED	IQUANT	4	Control Amp Speed
CONVENTION	IQUANT	1	Current Convention
ICHRANGE	IQUANT	2	Ich Range
ICHRANGEMODE	TOGGLE	T	Ich Auto Range
ICHOFFSETENABLE	TOGGLE	F	Ich Offset Enable
ICHOFFSET	QUANT	0	Ich Offset (V)
ICHFILTER	IQUANT	1	Ich Filter
VCHRANGE	IQUANT	3	Vch Range
VCHRANGEMODE	TOGGLE	T	Vch Auto Range
VCHOFFSETENABLE	TOGGLE	F	Vch Offset Enable
VCHOFFSET	QUANT	0	Vch Offset (V)
VCHFILTER	IQUANT	1	Vch Filter
ACHRANGE	IQUANT	2	Ach Range
ACHOFFSETENABLE	TOGGLE	F	Ach Offset Enable
ACHOFFSET	QUANT	0	Ach Offset (V)
ACHFILTER	IQUANT	1	Ach Filter
IERANGELOWERLIMIT	IQUANT	9	I/E Range Lower Limit
IERANGEMODE	TOGGLE	F	I/E AutoRange
IERANGE	IQUANT	9	I/E Range
POSFEEDENABLE	TOGGLE	F	Positive Feedback IR Comp
POSFEEDRESISTANCE	QUANT	0	Positive Feedback Resistance (ohm)
ACHSELECT	IQUANT	1	Ach Select
SENSECABLEID	IQUANT	13	Sense Cable ID
PWRCABLEID	IQUANT	13	Power Cable ID
DCCALDATE	LABEL		DC Calibration Date
ACCALDATE	LABEL		AC Calibration Date
THERMOSELECT	IQUANT	1	Thermo Select
FRAMEWORKVERSION	LABEL	7.8.6	Framework Version
INSTRUMENTVERSION	LABEL	4.50	Instrument Version
COMPLIANCEVOLTAGE	IQUANT	0	Compliance Voltage
CURVE	TABLE	61
	Pt	T	Vf	Im	Vu	Pwr	Sig	Ach	Temp	IERange	Over	Vf1	Vf2	Vf3	Vf4	Vf5	Vf6	Vf7	Vf8	Pwr1	Pwr2	Pwr3	Pwr4	Pwr5	Pwr6	Pwr7	Pwr8
	#	s	V	A	V	W	V	V	deg C	#	bits	V	V	V	V	V	V	V	V	W	W	W	W	W	W	W	W
	0	1	5.42546E-001	9.98577E-002	0.00000E+000	5.41774E-002	9.94000E-001	3.61149E-002	3.40956E+001	11	...........	5.96239E-002	-4.12194E-003	5.62797E-001	6.50998E-001	-3.00269E-002	-3.93278E-002	6.52169E-001	-4.27408E-002	5.95391E-003	-4.11608E-004	5.61997E-002	6.50072E-002	-2.99842E-003	-3.92718E-003	6.51241E-002	-4.26800E-003
	1	2	8.40042E-001	9.98583E-002	0.00000E+000	8.38851E-002	9.94000E-001	3.71964E-002	3.71151E+001	11	...........	6.15497E-002	-4.38750E-003	5.62865E-001	6.51067E-001	-3.00754E-002	-3.93389E-002	6.52108E-001	-4.27133E-002	6.14625E-003	-4.38128E-004	5.62067E-002	6.50144E-002	-3.00328E-003	-3.92831E-003	6.51184E-002	-4.26528E-003
	2	2.055	1.08819E+000	9.98600E-002	0.00000E+000	1.08666E-001	9.94000E-001	3.75576E-002	4.34379E+001	11	...........	6.20227E-002	-4.46465E-003	5.63020E-001	6.51053E-001	-3.02121E-002	-3.93283E-002	6.52184E-001	-4.27576E-002	6.19359E-003	-4.45840E-004	5.62232E-002	6.50141E-002	-3.01698E-003	-3.92732E-003	6.51271E-002	-4.26977E-003
	3	3	1.10063E+000	6.75815E-002	0.00000E+000	7.43822E-002	6.73039E-001	3.67487E-002	4.08703E+001	11	...........	6.06846E-002	-4.35362E-003	5.62874E-001	6.51085E-001	-3.00522E-002	-3.93179E-002	6.52116E-001	-4.27475E-002	4.10116E-003	-2.94224E-004	3.80399E-002	4.40013E-002	-2.03097E-003	-2.65716E-003	4.40710E-002	-2.88894E-003
	4	4	1.10013E+000	5.14735E-002	0.00000E+000	5.66276E-002	5.12865E-001	3.67853E-002	4.02128E+001	11	...........	6.07482E-002	-4.22097E-003	5.62793E-001	6.51220E-001	-3.00751E-002	-3.93050E-002	6.52139E-001	-4.27342E-002	3.12692E-003	-2.17268E-004	2.89689E-002	3.35205E-002	-1.54807E-003	-2.02316E-003	3.35678E-002	-2.19968E-003
	5	5	1.10016E+000	4.59012E-002	0.00000E+000	5.04986E-002	4.57461E-001	3.68217E-002	3.90567E+001	11	...........	6.08925E-002	-4.04444E-003	5.62785E-001	6.51161E-001	-3.00717E-002	-3.92768E-002	6.52282E-001	-4.27562E-002	2.79504E-003	-1.85645E-004	2.58325E-002	2.98891E-002	-1.38033E-003	-1.80285E-003	2.99405E-002	-1.96256E-003
	6	6	1.10016E+000	4.22232E-002	0.00000E+000	4.64523E-002	4.20883E-001	3.65829E-002	3.93172E+001	11	...........	6.04349E-002	-3.98208E-003	5.62790E-001	6.51115E-001	-3.00386E-002	-3.92803E-002	6.52293E-001	-4.27342E-002	2.55175E-003	-1.68136E-004	2.37628E-002	2.74921E-002	-1.26832E-003	-1.65854E-003	2.75419E-002	-1.80437E-003
	7	7	1.10006E+000	4.02628E-002	0.00000E+000	4.42915E-002	4.01390E-001	3.69838E-002	3.93413E+001	11	...........	6.11735E-002	-4.04694E-003	5.62942E-001	6.51135E-001	-3.00561E-002	-3.92818E-002	6.52103E-001	-4.27614E-002	2.46302E-003	-1.62941E-004	2.26656E-002	2.62165E-002	-1.21014E-003	-1.58160E-003	2.62555E-002	-1.72169E-003
	8	8	1.10012E+000	3.86251E-002	0.00000E+000	4.24923E-002	3.85110E-001	3.65249E-002	3.86014E+001	11	...........	6.02499E-002	-3.99792E-003	5.62911E-001	6.51224E-001	-3.00271E-002	-3.92937E-002	6.52126E-001	-4.27503E-002	2.32715E-003	-1.54420E-004	2.17425E-002	2.51536E-002	-1.15980E-003	-1.51772E-003	2.51884E-002	-1.65123E-003
	9	9	1.10015E+000	3.69127E-002	0.00000E+000	4.06095E-002	3.68089E-001	3.65363E-002	3.81525E+001	11	...........	6.03010E-002	-4.07639E-003	5.62895E-001	6.51193E-001	-3.00271E-002	-3.92519E-002	6.52129E-001	-4.27519E-002	2.22587E-003	-1.50471E-004	2.07780E-002	2.40373E-002	-1.10838E-003	-1.44890E-003	2.40718E-002	-1.57809E-003
	10	10	1.10005E+000	3.61697E-002	0.00000E+000	3.97885E-002	3.60697E-001	3.69438E-002	3.86661E+001	11	...........	6.10889E-002	-3.97069E-003	5.62839E-001	6.51182E-001	-3.00200E-002	-3.92406E-002	6.52062E-001	-4.27963E-002	2.20957E-003	-1.43619E-004	2.03577E-002	2.35531E-002	-1.08581E-003	-1.41932E-003	2.35849E-002	-1.54793E-003
	11	11	1.10011E+000	3.54732E-002	0.00000E+000	3.90245E-002	3.53776E-001	3.65121E-002	3.86471E+001	11	...........	6.02472E-002	-4.03375E-003	5.62771E-001	6.51215E-001	-3.00272E-002	-3.92194E-002	6.51803E-001	-4.27129E-002	2.13716E-003	-1.43090E-004	1.99633E-002	2.31007E-002	-1.06516E-003	-1.39124E-003	2.31216E-002	-1.51517E-003
	12	12	1.10015E+000	3.45248E-002	0.00000E+000	3.79824E-002	3.44344E-001	3.67040E-002	3.73864E+001	11	...........	6.06626E-002	-3.97792E-003	5.62703E-001	6.51293E-001	-3.00172E-002	-3.92083E-002	6.51857E-001	-4.26863E-002	2.09437E-003	-1.37337E-004	1.94272E-002	2.24858E-002	-1.03634E-003	-1.35366E-003	2.25053E-002	-1.47374E-003
	13	13	1.10004E+000	3.42806E-002	0.00000E+000	3.77100E-002	3.41916E-001	3.65257E-002	3.82156E+001	11	...........	6.03243E-002	-3.92611E-003	5.62764E-001	6.51361E-001	-3.00367E-002	-3.91849E-002	6.51982E-001	-4.26892E-002	2.06795E-003	-1.34589E-004	1.92919E-002	2.23290E-002	-1.02967E-003	-1.34328E-003	2.23503E-002	-1.46341E-003
	14	14	1.10011E+000	3.40848E-002	0.00000E+000	3.74969E-002	3.39972E-001	3.67235E-002	3.78488E+001	11	...........	6.07289E-002	-3.95028E-003	5.62811E-001	6.51448E-001	-3.00328E-002	-3.92004E-002	6.51923E-001	-4.27165E-002	2.06993E-003	-1.34645E-004	1.91833E-002	2.22045E-002	-1.02366E-003	-1.33614E-003	2.22207E-002	-1.45599E-003
	15	15	1.10015E+000	3.33659E-002	0.00000E+000	3.67074E-002	3.32820E-001	3.65472E-002	3.78834E+001	11	...........	6.03092E-002	-4.03153E-003	5.62780E-001	6.51551E-001	-3.00376E-002	-3.91389E-002	6.51813E-001	-4.27204E-002	2.01227E-003	-1.34516E-004	1.87777E-002	2.17396E-002	-1.00223E-003	-1.30590E-003	2.17483E-002	-1.42541E-003
	16	16	1.10004E+000	3.33963E-002	0.00000E+000	3.67374E-002	3.33126E-001	3.64900E-002	3.64908E+001	11	...........	6.03757E-002	-3.94347E-003	5.62852E-001	6.51583E-001	-3.00493E-002	-3.91690E-002	6.51692E-001	-4.27467E-002	2.01633E-003	-1.31698E-004	1.87972E-002	2.17605E-002	-1.00354E-003	-1.30810E-003	2.17641E-002	-1.42758E-003
	17	17	1.10010E+000	3.33274E-002	0.00000E+000	3.66635E-002	3.32439E-001	3.66787E-002	3.75802E+001	11	...........	6.06439E-002	-3.85722E-003	5.62878E-001	6.51617E-001	-3.00587E-002	-3.91546E-002	6.51761E-001	-4.28528E-002	2.02111E-003	-1.28551E-004	1.87593E-002	2.17167E-002	-1.00178E-003	-1.30492E-003	2.17215E-002	-1.42817E-003
	18	18	1.10015E+000	3.28103E-002	0.00000E+000	3.60962E-002	3.27300E-001	3.60401E-002	3.66873E+001	11	...........	5.95122E-002	-3.75319E-003	5.62797E-001	6.51541E-001	-3.00456E-002	-3.91650E-002	6.51882E-001	-4.27800E-002	1.95262E-003	-1.23144E-004	1.84656E-002	2.13773E-002	-9.85805E-004	-1.28502E-003	2.13885E-002	-1.40363E-003
	19	19	1.10004E+000	3.28796E-002	0.00000E+000	3.61689E-002	3.27986E-001	3.66689E-002	3.71171E+001	11	...........	6.05675E-002	-3.76806E-003	5.62776E-001	6.51465E-001	-3.00226E-002	-3.91797E-002	6.51878E-001	-4.27644E-002	1.99144E-003	-1.23892E-004	1.85039E-002	2.14199E-002	-9.87133E-004	-1.28821E-003	2.14335E-002	-1.40608E-003
	20	20	1.10010E+000	3.28356E-002	0.00000E+000	3.61225E-002	3.27551E-001	3.64489E-002	3.78112E+001	11	...........	6.03864E-002	-3.66847E-003	5.62829E-001	6.51344E-001	-3.00012E-002	-3.91954E-002	6.51731E-001	-4.27222E-002	1.98283E-003	-1.20457E-004	1.84808E-002	2.13873E-002	-9.85110E-004	-1.28701E-003	2.14000E-002	-1.40281E-003
	21	21	1.10015E+000	3.23698E-002	0.00000E+000	3.56115E-002	3.22923E-001	3.60466E-002	3.74934E+001	11	...........	5.99225E-002	-3.75028E-003	5.62770E-001	6.51286E-001	-2.99051E-002	-3.91785E-002	6.51802E-001	-4.27367E-002	1.93968E-003	-1.21396E-004	1.82167E-002	2.10820E-002	-9.68022E-004	-1.26820E-003	2.10987E-002	-1.38338E-003
	22	22	1.10004E+000	3.23772E-002	0.00000E+000	3.56162E-002	3.22998E-001	3.57634E-002	3.71553E+001	11	...........	5.95444E-002	-3.85222E-003	5.62690E-001	6.51344E-001	-2.99011E-002	-3.91982E-002	6.51906E-001	-4.27304E-002	1.92788E-003	-1.24724E-004	1.82183E-002	2.10887E-002	-9.68114E-004	-1.26913E-003	2.11069E-002	-1.38349E-003
	23	23	1.10010E+000	3.24831E-002	0.00000E+000	3.57345E-002	3.24051E-001	3.63712E-002	3.75637E+001	11	...........	6.04640E-002	-3.91208E-003	5.62698E-001	6.51329E-001	-2.99237E-002	-3.91625E-002	6.52134E-001	-4.27785E-002	1.96406E-003	-1.27077E-004	1.82782E-002	2.11572E-002	-9.72016E-004	-1.27212E-003	2.11833E-002	-1.38958E-003
	24	24	1.10015E+000	3.20311E-002	0.00000E+000	3.52391E-002	3.19559E-001	3.62022E-002	3.75504E+001	11	...........	6.01661E-002	-3.93889E-003	5.62803E-001	6.51345E-001	-3.00376E-002	-3.91617E-002	6.52031E-001	-4.27096E-002	1.92719E-003	-1.26167E-004	1.80272E-002	2.08633E-002	-9.62139E-004	-1.25439E-003	2.08853E-002	-1.36804E-003
	25	25	1.10004E+000	3.20380E-002	0.00000E+000	3.52431E-002	3.19627E-001	3.58847E-002	3.67074E+001	11	...........	5.96815E-002	-3.85319E-003	5.62850E-001	6.51260E-001	-3.00957E-002	-3.91490E-002	6.52093E-001	-4.26935E-002	1.91208E-003	-1.23449E-004	1.80326E-002	2.08651E-002	-9.64207E-004	-1.25426E-003	2.08918E-002	-1.36781E-003
	26	26	1.10010E+000	3.21442E-002	0.00000E+000	3.53617E-002	3.20683E-001	3.63380E-002	3.79450E+001	11	...........	6.03490E-002	-3.82014E-003	5.62768E-001	6.51179E-001	-3.01365E-002	-3.91697E-002	6.51999E-001	-4.26926E-002	1.93987E-003	-1.22795E-004	1.80897E-002	2.09316E-002	-9.68713E-004	-1.25908E-003	2.09580E-002	-1.37232E-003
	27	27	1.10015E+000	3.17292E-002	0.00000E+000	3.49070E-002	3.16556E-001	3.60193E-002	3.76338E+001	11	...........	5.99339E-002	-3.86250E-003	5.62745E-001	6.51404E-001	-3.01176E-002	-3.91994E-002	6.51816E-001	-4.27014E-002	1.90166E-003	-1.22554E-004	1.78555E-002	2.06686E-002	-9.55609E-004	-1.24377E-003	2.06816E-002	-1.35488E-003
	28	28	1.10004E+000	3.17706E-002	0.00000E+000	3.49489E-002	3.16969E-001	3.57961E-002	3.69584E+001	11	...........	5.95890E-002	-3.83444E-003	5.62664E-001	6.51407E-001	-3.01199E-002	-3.91651E-002	6.51454E-001	-4.26715E-002	1.89318E-003	-1.21823E-004	1.78762E-002	2.06956E-002	-9.56927E-004	-1.24430E-003	2.06971E-002	-1.35570E-003
	29	29	1.10009E+000	3.18289E-002	0.00000E+000	3.50148E-002	3.17547E-001	3.59826E-002	3.72440E+001	11	...........	5.98589E-002	-3.89250E-003	5.62594E-001	6.51331E-001	-3.01074E-002	-3.91507E-002	6.51636E-001	-4.26937E-002	1.90524E-003	-1.23894E-004	1.79067E-002	2.07312E-002	-9.58284E-004	-1.24612E-003	2.07409E-002	-1.35889E-003
	30	30	1.10015E+000	3.14774E-002	0.00000E+000	3.46300E-002	3.14049E-001	3.63237E-002	3.75206E+001	11	...........	6.03922E-002	-3.91736E-003	5.62644E-001	6.51280E-001	-3.00269E-002	-3.91254E-002	6.51726E-001	-4.26919E-002	1.90099E-003	-1.23308E-004	1.77106E-002	2.05006E-002	-9.45170E-004	-1.23157E-003	2.05147E-002	-1.34383E-003
	31	31	1.10004E+000	3.14592E-002	0.00000E+000	3.46064E-002	3.13870E-001	3.58524E-002	3.75585E+001	11	...........	5.96312E-002	-3.88819E-003	5.62674E-001	6.51125E-001	-2.99419E-002	-3.91533E-002	6.51674E-001	-4.26937E-002	1.87595E-003	-1.22320E-004	1.77013E-002	2.04839E-002	-9.41950E-004	-1.23173E-003	2.05011E-002	-1.34311E-003
	32	32	1.10009E+000	3.15633E-002	0.00000E+000	3.47225E-002	3.14906E-001	3.59848E-002	3.68121E+001	11	...........	5.98554E-002	-3.76889E-003	5.62721E-001	6.51238E-001	-2.99607E-002	-3.91594E-002	6.51721E-001	-4.27800E-002	1.88924E-003	-1.18959E-004	1.77613E-002	2.05552E-002	-9.45660E-004	-1.23600E-003	2.05705E-002	-1.35028E-003
	33	33	1.10015E+000	3.12086E-002	0.00000E+000	3.43343E-002	3.11378E-001	3.58039E-002	3.76892E+001	11	...........	5.95560E-002	-3.46208E-003	5.62676E-001	6.51234E-001	-3.00029E-002	-3.91904E-002	6.51646E-001	-4.27200E-002	1.85866E-003	-1.08047E-004	1.75603E-002	2.03241E-002	-9.36349E-004	-1.22308E-003	2.03370E-002	-1.33323E-003
	34	34	1.10004E+000	3.12034E-002	0.00000E+000	3.43250E-002	3.11326E-001	3.59974E-002	3.66335E+001	11	...........	5.98404E-002	-3.74903E-003	5.62754E-001	6.51107E-001	-3.00879E-002	-3.91999E-002	6.51751E-001	-4.27058E-002	1.86722E-003	-1.16982E-004	1.75598E-002	2.03167E-002	-9.38844E-004	-1.22317E-003	2.03368E-002	-1.33257E-003
	35	35	1.10009E+000	3.12771E-002	0.00000E+000	3.44075E-002	3.12058E-001	3.60286E-002	3.70588E+001	11	...........	5.99965E-002	-3.95542E-003	5.62719E-001	6.51012E-001	-3.01462E-002	-3.91837E-002	6.51879E-001	-4.27196E-002	1.87652E-003	-1.23714E-004	1.76002E-002	2.03618E-002	-9.42888E-004	-1.22556E-003	2.03889E-002	-1.33615E-003
	36	36	1.10016E+000	3.09354E-002	0.00000E+000	3.40338E-002	3.08661E-001	3.57104E-002	3.79879E+001	11	...........	5.93971E-002	-4.02542E-003	5.62704E-001	6.50812E-001	-3.01424E-002	-3.91931E-002	6.51879E-001	-4.27258E-002	1.83747E-003	-1.24528E-004	1.74075E-002	2.01331E-002	-9.32466E-004	-1.21245E-003	2.01661E-002	-1.32174E-003
	37	37	1.10004E+000	3.09463E-002	0.00000E+000	3.40422E-002	3.08770E-001	3.60227E-002	3.68817E+001	11	...........	5.99392E-002	-3.95597E-003	5.62790E-001	6.50843E-001	-3.01337E-002	-3.91797E-002	6.51857E-001	-4.27493E-002	1.85490E-003	-1.22423E-004	1.74163E-002	2.01412E-002	-9.32528E-004	-1.21247E-003	2.01726E-002	-1.32293E-003
	38	38	1.10009E+000	3.10409E-002	0.00000E+000	3.41477E-002	3.09709E-001	3.61317E-002	3.73635E+001	11	...........	6.00489E-002	-3.94125E-003	5.62817E-001	6.50972E-001	-3.00751E-002	-3.91664E-002	6.51948E-001	-4.27043E-002	1.86397E-003	-1.22340E-004	1.74703E-002	2.02067E-002	-9.33559E-004	-1.21576E-003	2.02371E-002	-1.32558E-003
	39	39	1.10016E+000	3.06510E-002	0.00000E+000	3.37210E-002	3.05835E-001	3.56788E-002	3.74246E+001	11	...........	5.93756E-002	-3.96306E-003	5.62777E-001	6.51099E-001	-2.99504E-002	-3.91449E-002	6.51915E-001	-4.27125E-002	1.81992E-003	-1.21472E-004	1.72497E-002	1.99568E-002	-9.18011E-004	-1.19983E-003	1.99819E-002	-1.30918E-003
	40	40	1.10004E+000	3.06715E-002	0.00000E+000	3.37398E-002	3.06044E-001	3.57900E-002	3.76057E+001	11	...........	5.95639E-002	-3.95653E-003	5.62837E-001	6.51165E-001	-2.99322E-002	-3.91118E-002	6.51772E-001	-4.28240E-002	1.82691E-003	-1.21353E-004	1.72631E-002	1.99722E-002	-9.18066E-004	-1.19962E-003	1.99908E-002	-1.31348E-003
	41	41	1.10009E+000	3.07623E-002	0.00000E+000	3.38413E-002	3.06944E-001	3.61672E-002	3.70190E+001	11	...........	6.01040E-002	-3.90208E-003	5.62876E-001	6.51226E-001	-3.00331E-002	-3.90975E-002	6.51915E-001	-4.28033E-002	1.84894E-003	-1.20037E-004	1.73154E-002	2.00332E-002	-9.23887E-004	-1.20273E-003	2.00544E-002	-1.31673E-003
	42	42	1.10016E+000	3.04461E-002	0.00000E+000	3.34955E-002	3.03798E-001	3.58564E-002	3.75531E+001	11	...........	5.96804E-002	-3.92417E-003	5.62856E-001	6.51234E-001	-3.00856E-002	-3.91004E-002	6.51850E-001	-4.27458E-002	1.81704E-003	-1.19476E-004	1.71368E-002	1.98275E-002	-9.15988E-004	-1.19046E-003	1.98463E-002	-1.30144E-003
	43	43	1.10004E+000	3.04062E-002	0.00000E+000	3.34482E-002	3.03401E-001	3.55656E-002	3.72712E+001	11	...........	5.91946E-002	-3.95069E-003	5.62795E-001	6.51237E-001	-3.01139E-002	-3.91249E-002	6.51814E-001	-4.27675E-002	1.79989E-003	-1.20126E-004	1.71125E-002	1.98017E-002	-9.15650E-004	-1.18964E-003	1.98192E-002	-1.30040E-003
	44	44	1.10008E+000	3.05271E-002	0.00000E+000	3.35824E-002	3.04606E-001	3.59370E-002	3.63149E+001	11	...........	5.97746E-002	-3.88042E-003	5.62921E-001	6.51170E-001	-3.01150E-002	-3.91265E-002	6.51907E-001	-4.27378E-002	1.82474E-003	-1.18458E-004	1.71843E-002	1.98783E-002	-9.19323E-004	-1.19442E-003	1.99008E-002	-1.30466E-003
	45	45	1.10016E+000	3.01930E-002	0.00000E+000	3.32171E-002	3.01289E-001	3.59543E-002	3.67836E+001	11	...........	5.98172E-002	-3.92986E-003	5.62860E-001	6.51393E-001	-3.00919E-002	-3.91407E-002	6.51984E-001	-4.27235E-002	1.80606E-003	-1.18654E-004	1.69944E-002	1.96675E-002	-9.08566E-004	-1.18178E-003	1.96854E-002	-1.28995E-003
	46	46	1.10004E+000	3.01950E-002	0.00000E+000	3.32156E-002	3.01305E-001	3.59017E-002	3.73168E+001	11	...........	5.96546E-002	-3.85792E-003	5.62835E-001	6.51409E-001	-3.00462E-002	-3.91053E-002	6.52127E-001	-4.26944E-002	1.80127E-003	-1.16490E-004	1.69948E-002	1.96693E-002	-9.07245E-004	-1.18078E-003	1.96909E-002	-1.28916E-003
	47	47	1.10008E+000	3.02519E-002	0.00000E+000	3.32797E-002	3.01870E-001	3.56782E-002	3.63916E+001	11	...........	5.93521E-002	-3.80917E-003	5.62818E-001	6.51338E-001	-2.99985E-002	-3.91297E-002	6.52151E-001	-4.26940E-002	1.79551E-003	-1.15235E-004	1.70263E-002	1.97042E-002	-9.07512E-004	-1.18375E-003	1.97288E-002	-1.29158E-003
	48	48	1.10016E+000	2.99488E-002	0.00000E+000	3.29485E-002	2.98856E-001	3.58124E-002	3.71691E+001	11	...........	5.95407E-002	-3.88208E-003	5.62865E-001	6.51299E-001	-2.99121E-002	-3.91444E-002	6.51958E-001	-4.27115E-002	1.78317E-003	-1.16264E-004	1.68571E-002	1.95057E-002	-8.95832E-004	-1.17233E-003	1.95254E-002	-1.27916E-003
	49	49	1.10004E+000	2.99018E-002	0.00000E+000	3.28932E-002	2.98387E-001	3.55207E-002	3.68060E+001	11	...........	5.90836E-002	-3.90806E-003	5.62886E-001	6.51447E-001	-2.99072E-002	-3.91421E-002	6.51938E-001	-4.27363E-002	1.76671E-003	-1.16858E-004	1.68313E-002	1.94794E-002	-8.94280E-004	-1.17042E-003	1.94941E-002	-1.27789E-003
	50	50	1.10008E+000	3.00306E-002	0.00000E+000	3.30360E-002	2.99667E-001	3.59591E-002	3.67846E+001	11	...........	5.97787E-002	-3.92347E-003	5.62955E-001	6.51338E-001	-2.99024E-002	-3.91431E-002	6.51932E-001	-4.27421E-002	1.79519E-003	-1.17824E-004	1.69059E-002	1.95601E-002	-8.97986E-004	-1.17549E-003	1.95779E-002	-1.28357E-003
	51	51	1.10016E+000	2.97182E-002	0.00000E+000	3.26948E-002	2.96560E-001	3.55460E-002	3.66438E+001	11	...........	5.91490E-002	-3.95653E-003	5.62977E-001	6.51467E-001	-2.98881E-002	-3.91431E-002	6.51847E-001	-4.27475E-002	1.75780E-003	-1.17581E-004	1.67306E-002	1.93604E-002	-8.88218E-004	-1.16326E-003	1.93717E-002	-1.27038E-003
	52	52	1.10004E+000	2.96584E-002	0.00000E+000	3.26255E-002	2.95969E-001	3.56934E-002	3.67075E+001	11	...........	5.93724E-002	-3.88806E-003	5.63001E-001	6.51438E-001	-2.98879E-002	-3.91099E-002	6.51840E-001	-4.26960E-002	1.76089E-003	-1.15313E-004	1.66977E-002	1.93206E-002	-8.86427E-004	-1.15994E-003	1.93325E-002	-1.26629E-003
	53	53	1.10008E+000	2.97701E-002	0.00000E+000	3.27494E-002	2.97076E-001	3.58549E-002	3.66341E+001	11	...........	5.95721E-002	-3.91694E-003	5.63007E-001	6.51322E-001	-2.99062E-002	-3.91239E-002	6.51996E-001	-4.27054E-002	1.77346E-003	-1.16608E-004	1.67608E-002	1.93899E-002	-8.90311E-004	-1.16472E-003	1.94100E-002	-1.27134E-003
	54	54	1.10016E+000	2.94560E-002	0.00000E+000	3.24063E-002	2.93956E-001	3.57822E-002	3.64309E+001	11	...........	5.94544E-002	-3.93583E-003	5.62888E-001	6.51389E-001	-2.99315E-002	-3.90943E-002	6.52028E-001	-4.27018E-002	1.75129E-003	-1.15934E-004	1.65804E-002	1.91873E-002	-8.81662E-004	-1.15156E-003	1.92061E-002	-1.25782E-003
	55	55	1.10004E+000	2.94160E-002	0.00000E+000	3.23587E-002	2.93558E-001	3.55768E-002	3.64703E+001	11	...........	5.92133E-002	-4.02278E-003	5.63001E-001	6.51396E-001	-2.99404E-002	-3.90821E-002	6.51819E-001	-4.27113E-002	1.74182E-003	-1.18334E-004	1.65612E-002	1.91614E-002	-8.80726E-004	-1.14964E-003	1.91739E-002	-1.25639E-003
	56	56	1.10008E+000	2.95794E-002	0.00000E+000	3.25398E-002	2.95186E-001	3.58395E-002	3.68243E+001	11	...........	5.96276E-002	-3.93000E-003	5.63121E-001	6.51535E-001	-2.99167E-002	-3.90879E-002	6.51902E-001	-4.27279E-002	1.76375E-003	-1.16247E-004	1.66568E-002	1.92720E-002	-8.84918E-004	-1.15620E-003	1.92829E-002	-1.26387E-003
	57	57	1.10016E+000	2.92348E-002	0.00000E+000	3.21630E-002	2.91757E-001	3.55356E-002	3.67082E+001	11	...........	5.91735E-002	-3.94306E-003	5.63093E-001	6.51622E-001	-2.99240E-002	-3.90867E-002	6.51996E-001	-4.27092E-002	1.72992E-003	-1.15274E-004	1.64619E-002	1.90501E-002	-8.74823E-004	-1.14269E-003	1.90610E-002	-1.24859E-003
	58	58	1.10004E+000	2.91461E-002	0.00000E+000	3.20620E-002	2.90879E-001	3.54681E-002	3.63370E+001	11	...........	5.90682E-002	-3.87333E-003	5.63173E-001	6.51678E-001	-2.99178E-002	-3.90846E-002	6.52177E-001	-4.27174E-002	1.72161E-003	-1.12892E-004	1.64143E-002	1.89939E-002	-8.71985E-004	-1.13916E-003	1.90084E-002	-1.24504E-003
	59	59	1.10008E+000	2.92888E-002	0.00000E+000	3.22201E-002	2.92297E-001	3.57282E-002	3.73602E+001	11	...........	5.94407E-002	-3.83417E-003	5.63259E-001	6.51708E-001	-2.99387E-002	-3.90928E-002	6.52081E-001	-4.27206E-002	1.74095E-003	-1.12298E-004	1.64972E-002	1.90878E-002	-8.76871E-004	-1.14498E-003	1.90987E-002	-1.25124E-003
	60	60	1.10016E+000	2.90473E-002	0.00000E+000	3.19566E-002	2.89896E-001	3.59504E-002	3.71167E+001	11	...........	5.97711E-002	-3.84792E-003	5.63308E-001	6.51664E-001	-2.99421E-002	-3.90899E-002	6.52006E-001	-4.27533E-002	1.73619E-003	-1.11771E-004	1.63626E-002	1.89291E-002	-8.69736E-004	-1.13545E-003	1.89390E-002	-1.24187E-003
STARTTIMEOFFSET	QUANT	481455	Start Time Offset (s)
