EXPLAIN
TAG	PWR800_CHARGE
TITLE	LABEL	PWR Charge	Test Identifier
DATE	LABEL	10/13/2022	Date
TIME	LABEL	5:59:32	Time
NOTES	NOTES	1	Notes...
	
PSTAT	PSTAT	REF3000-21114	Potentiostat
CAPACITY	QUANT	5.30000E-002	Capacity (A-hr)
CELLTYPE	SELECTOR	1	Cell Type
WORKINGCONNECTION	SELECTOR	0	Working Connection
MAXCHARGETIME	VARIABLEANDUNITS	7.20000E+003	s	2.00000E+000	hour(s)	Max Charge Time
CHARGEMODE	MULTIPARAM	0	1.00000E-001	Charge Mode	Constant Current	Amp(s)
CHARGECURRENT	QUANT	0.1	Charge Current (A)
VOLTAGEFINISH	TWOPARAM	T	2.50000E-002	7.20000E+003	Voltage Finish	I (A) <	Max Time(s)
SAMPLETIME	QUANT	1.00000E+000	Sample Period (s)
CHARGESTOPAT1	MULTIPARAM	2	1.10000E+000	Stop At 1	|Voltage| > Limit	V
CHARGESTOPAT2	MULTIPARAM	0	0.00000E+000	Stop At 2	None	N/A
AESELECTOR	AESELECTOR	0x1	T	Set Limits	AE Channels
AESBHCSELECTOR	TOGGLE	F	Save Both Half Cells
IRCOMP	TOGGLE	F	IR Measure
EOC	QUANT	0.1627027	Open Circuit (V)
SEQUENCER	TOGGLE	TRUE	Run as Sequence
PSTATMODEL	IQUANT	5	Pstat Model
PSTATSECTION	LABEL	REF3000-21114	Pstat Section
PSTATSERIALNO	LABEL	21114	Pstat Serial Number
CTRLMODE	IQUANT	0	Control Mode
ELECTROMETER	IQUANT	0	RE=0 or CS=1
IESTAB	IQUANT	0	I/E Stability
CASPEED	IQUANT	4	Control Amp Speed
CONVENTION	IQUANT	1	Current Convention
ICHRANGE	IQUANT	2	Ich Range
ICHRANGEMODE	TOGGLE	T	Ich Auto Range
ICHOFFSETENABLE	TOGGLE	F	Ich Offset Enable
ICHOFFSET	QUANT	0	Ich Offset (V)
ICHFILTER	IQUANT	1	Ich Filter
VCHRANGE	IQUANT	3	Vch Range
VCHRANGEMODE	TOGGLE	T	Vch Auto Range
VCHOFFSETENABLE	TOGGLE	F	Vch Offset Enable
VCHOFFSET	QUANT	0	Vch Offset (V)
VCHFILTER	IQUANT	1	Vch Filter
ACHRANGE	IQUANT	2	Ach Range
ACHOFFSETENABLE	TOGGLE	F	Ach Offset Enable
ACHOFFSET	QUANT	0	Ach Offset (V)
ACHFILTER	IQUANT	1	Ach Filter
IERANGELOWERLIMIT	IQUANT	9	I/E Range Lower Limit
IERANGEMODE	TOGGLE	F	I/E AutoRange
IERANGE	IQUANT	9	I/E Range
POSFEEDENABLE	TOGGLE	F	Positive Feedback IR Comp
POSFEEDRESISTANCE	QUANT	0	Positive Feedback Resistance (ohm)
ACHSELECT	IQUANT	1	Ach Select
SENSECABLEID	IQUANT	13	Sense Cable ID
PWRCABLEID	IQUANT	13	Power Cable ID
DCCALDATE	LABEL		DC Calibration Date
ACCALDATE	LABEL		AC Calibration Date
THERMOSELECT	IQUANT	1	Thermo Select
FRAMEWORKVERSION	LABEL	7.8.6	Framework Version
INSTRUMENTVERSION	LABEL	4.50	Instrument Version
COMPLIANCEVOLTAGE	IQUANT	0	Compliance Voltage
CURVE	TABLE	165
	Pt	T	Vf	Im	Vu	Pwr	Sig	Ach	Temp	IERange	Over	Vf1	Vf2	Vf3	Vf4	Vf5	Vf6	Vf7	Vf8	Pwr1	Pwr2	Pwr3	Pwr4	Pwr5	Pwr6	Pwr7	Pwr8
	#	s	V	A	V	W	V	V	deg C	#	bits	V	V	V	V	V	V	V	V	W	W	W	W	W	W	W	W
	0	1	4.48170E-001	9.98506E-002	0.00000E+000	4.47500E-002	9.94000E-001	4.26135E-002	4.14563E+001	11	...........	7.08311E-002	-5.28403E-003	5.93193E-001	5.61327E-001	-2.79626E-002	-3.89132E-002	6.91355E-001	-4.38936E-002	7.07253E-003	-5.27614E-004	5.92307E-002	5.60489E-002	-2.79209E-003	-3.88551E-003	6.90322E-002	-4.38280E-003
	1	2	6.08364E-001	9.98508E-002	0.00000E+000	6.07456E-002	9.94000E-001	4.28436E-002	4.34142E+001	11	...........	7.11736E-002	-5.23375E-003	5.93278E-001	5.61333E-001	-2.79660E-002	-3.88811E-002	6.91333E-001	-4.38289E-002	7.10674E-003	-5.22594E-004	5.92393E-002	5.60495E-002	-2.79242E-003	-3.88231E-003	6.90301E-002	-4.37635E-003
	2	2.93667	9.22063E-001	9.98517E-002	0.00000E+000	9.20695E-002	9.94000E-001	4.38043E-002	4.99651E+001	11	...........	7.27461E-002	-5.32977E-003	5.93405E-001	5.61319E-001	-2.79838E-002	-3.88999E-002	6.91361E-001	-4.38984E-002	7.26383E-003	-5.32187E-004	5.92525E-002	5.60487E-002	-2.79423E-003	-3.88422E-003	6.90336E-002	-4.38333E-003
	3	3	1.10213E+000	8.99372E-002	0.00000E+000	9.91228E-002	8.95400E-001	4.38645E-002	5.37757E+001	11	...........	7.28969E-002	-5.37500E-003	5.93518E-001	5.61322E-001	-2.77610E-002	-3.89890E-002	6.91243E-001	-4.39145E-002	6.55614E-003	-4.83412E-004	5.33793E-002	5.04837E-002	-2.49674E-003	-3.50656E-003	6.21685E-002	-3.94954E-003
	4	4	1.10023E+000	7.10267E-002	0.00000E+000	7.81455E-002	7.07382E-001	4.35232E-002	5.28807E+001	11	...........	7.22785E-002	-5.27694E-003	5.93465E-001	5.61400E-001	-2.79746E-002	-3.89275E-002	6.91339E-001	-4.39712E-002	5.13370E-003	-3.74804E-004	4.21518E-002	3.98744E-002	-1.98694E-003	-2.76489E-003	4.91035E-002	-3.12313E-003
	5	5	1.10010E+000	5.92016E-002	0.00000E+000	6.51279E-002	5.89793E-001	4.34471E-002	5.19430E+001	11	...........	7.21767E-002	-5.17986E-003	5.93306E-001	5.61358E-001	-2.79810E-002	-3.89560E-002	6.91338E-001	-4.38947E-002	4.27297E-003	-3.06656E-004	3.51246E-002	3.32333E-002	-1.65652E-003	-2.30625E-003	4.09283E-002	-2.59864E-003
	6	6	1.10013E+000	5.38221E-002	0.00000E+000	5.92116E-002	5.36307E-001	4.34400E-002	5.12338E+001	11	...........	7.21485E-002	-5.18819E-003	5.93213E-001	5.61254E-001	-2.79893E-002	-3.89333E-002	6.91314E-001	-4.38964E-002	3.88318E-003	-2.79240E-004	3.19280E-002	3.02079E-002	-1.50644E-003	-2.09547E-003	3.72080E-002	-2.36260E-003
	7	7	1.09999E+000	5.09518E-002	0.00000E+000	5.60467E-002	5.07763E-001	4.34151E-002	5.06312E+001	11	...........	7.21315E-002	-5.11611E-003	5.93089E-001	5.61397E-001	-2.80122E-002	-3.89217E-002	6.91292E-001	-4.39282E-002	3.67523E-003	-2.60675E-004	3.02190E-002	2.86042E-002	-1.42727E-003	-1.98313E-003	3.52226E-002	-2.23822E-003
	8	8	1.10006E+000	4.89887E-002	0.00000E+000	5.38905E-002	4.88244E-001	4.34022E-002	5.01108E+001	11	...........	7.20917E-002	-5.25264E-003	5.93097E-001	5.61431E-001	-2.80426E-002	-3.89374E-002	6.91276E-001	-4.38185E-002	3.53168E-003	-2.57320E-004	2.90550E-002	2.75038E-002	-1.37377E-003	-1.90749E-003	3.38647E-002	-2.14661E-003
	9	9	1.10012E+000	4.69399E-002	0.00000E+000	5.16394E-002	4.67881E-001	4.33635E-002	4.96587E+001	11	...........	7.20653E-002	-5.28014E-003	5.93103E-001	5.61331E-001	-2.80610E-002	-3.89457E-002	6.91246E-001	-4.38600E-002	3.38274E-003	-2.47849E-004	2.78402E-002	2.63489E-002	-1.31718E-003	-1.82811E-003	3.24471E-002	-2.05879E-003
	10	10	1.09998E+000	4.59170E-002	0.00000E+000	5.05078E-002	4.57713E-001	4.33450E-002	4.92840E+001	11	...........	7.20035E-002	-5.24250E-003	5.93119E-001	5.61424E-001	-2.80662E-002	-3.89575E-002	6.91389E-001	-4.39126E-002	3.30618E-003	-2.40720E-004	2.72343E-002	2.57789E-002	-1.28872E-003	-1.78881E-003	3.17465E-002	-2.01634E-003
	11	11	1.10005E+000	4.51482E-002	0.00000E+000	4.96651E-002	4.50067E-001	4.33235E-002	4.90113E+001	11	...........	7.19682E-002	-5.13444E-003	5.93049E-001	5.61358E-001	-2.80599E-002	-3.89267E-002	6.91379E-001	-4.39987E-002	3.24924E-003	-2.31811E-004	2.67751E-002	2.53443E-002	-1.26685E-003	-1.75747E-003	3.12145E-002	-1.98647E-003
	12	12	1.10011E+000	4.39988E-002	0.00000E+000	4.84035E-002	4.38637E-001	4.32910E-002	4.87773E+001	11	...........	7.19157E-002	-5.10778E-003	5.93033E-001	5.61418E-001	-2.80671E-002	-3.89176E-002	6.91388E-001	-4.40767E-002	3.16420E-003	-2.24736E-004	2.60927E-002	2.47017E-002	-1.23492E-003	-1.71233E-003	3.04202E-002	-1.93932E-003
	13	13	1.09998E+000	4.36038E-002	0.00000E+000	4.79632E-002	4.34708E-001	4.32526E-002	4.85952E+001	11	...........	7.18639E-002	-5.16431E-003	5.93005E-001	5.61382E-001	-2.80719E-002	-3.89076E-002	6.91354E-001	-4.40501E-002	3.13354E-003	-2.25183E-004	2.58573E-002	2.44784E-002	-1.22404E-003	-1.69652E-003	3.01456E-002	-1.92075E-003
	14	14	1.10004E+000	4.33457E-002	0.00000E+000	4.76820E-002	4.32137E-001	4.32163E-002	4.84491E+001	11	...........	7.18021E-002	-5.09556E-003	5.92800E-001	5.61554E-001	-2.80735E-002	-3.89286E-002	6.91258E-001	-4.41335E-002	3.11231E-003	-2.20871E-004	2.56953E-002	2.43410E-002	-1.21686E-003	-1.68739E-003	2.99631E-002	-1.91300E-003
	15	15	1.10011E+000	4.26309E-002	0.00000E+000	4.68985E-002	4.25035E-001	4.31903E-002	4.83353E+001	11	...........	7.17521E-002	-5.07667E-003	5.92640E-001	5.61551E-001	-2.80721E-002	-3.89286E-002	6.91356E-001	-4.39999E-002	3.05886E-003	-2.16423E-004	2.52648E-002	2.39394E-002	-1.19674E-003	-1.65956E-003	2.94731E-002	-1.87575E-003
	16	16	1.09998E+000	4.25015E-002	0.00000E+000	4.67508E-002	4.23745E-001	4.31512E-002	4.82302E+001	11	...........	7.16851E-002	-5.06944E-003	5.92731E-001	5.61631E-001	-2.80643E-002	-3.89414E-002	6.91299E-001	-4.39300E-002	3.04673E-003	-2.15459E-004	2.51920E-002	2.38701E-002	-1.19277E-003	-1.65507E-003	2.93812E-002	-1.86709E-003
	17	17	1.10003E+000	4.25039E-002	0.00000E+000	4.67557E-002	4.23766E-001	4.31280E-002	4.81748E+001	11	...........	7.16315E-002	-5.11583E-003	5.92830E-001	5.61558E-001	-2.80293E-002	-3.89257E-002	6.91202E-001	-4.38992E-002	3.04462E-003	-2.17443E-004	2.51976E-002	2.38684E-002	-1.19136E-003	-1.65449E-003	2.93788E-002	-1.86589E-003
	18	18	1.10010E+000	4.19297E-002	0.00000E+000	4.61270E-002	4.18059E-001	4.30860E-002	4.80951E+001	11	...........	7.15715E-002	-5.03222E-003	5.92928E-001	5.61581E-001	-2.80410E-002	-3.89494E-002	6.91175E-001	-4.38540E-002	3.00097E-003	-2.10999E-004	2.48612E-002	2.35469E-002	-1.17575E-003	-1.63314E-003	2.89807E-002	-1.83878E-003
	19	19	1.09998E+000	4.18507E-002	0.00000E+000	4.60350E-002	4.17273E-001	4.30280E-002	4.80387E+001	11	...........	7.15008E-002	-5.16667E-003	5.92962E-001	5.61657E-001	-2.80361E-002	-3.89458E-002	6.91187E-001	-4.39132E-002	2.99236E-003	-2.16229E-004	2.48159E-002	2.35058E-002	-1.17333E-003	-1.62991E-003	2.89267E-002	-1.83780E-003
	20	20	1.10003E+000	4.19320E-002	0.00000E+000	4.61266E-002	4.18086E-001	4.28769E-002	4.79823E+001	11	...........	7.14451E-002	-5.19944E-003	5.93099E-001	5.61699E-001	-2.80422E-002	-3.89369E-002	6.91057E-001	-4.39726E-002	2.99584E-003	-2.18023E-004	2.48698E-002	2.35532E-002	-1.17587E-003	-1.63270E-003	2.89774E-002	-1.84386E-003
	21	21	1.10010E+000	4.14512E-002	0.00000E+000	4.56006E-002	4.13305E-001	4.27622E-002	4.79365E+001	11	...........	7.13804E-002	-5.16111E-003	5.93120E-001	5.61851E-001	-2.80537E-002	-3.89368E-002	6.91162E-001	-4.39967E-002	2.95880E-003	-2.13934E-004	2.45855E-002	2.32894E-002	-1.16286E-003	-1.61398E-003	2.86495E-002	-1.82371E-003
	22	22	1.09998E+000	4.13901E-002	0.00000E+000	4.55284E-002	4.12701E-001	4.27228E-002	4.79132E+001	11	...........	7.13169E-002	-4.97875E-003	5.93280E-001	5.61673E-001	-2.80574E-002	-3.89314E-002	6.91301E-001	-4.39851E-002	2.95182E-003	-2.06071E-004	2.45559E-002	2.32477E-002	-1.16130E-003	-1.61138E-003	2.86130E-002	-1.82055E-003
	23	23	1.10003E+000	4.14854E-002	0.00000E+000	4.56352E-002	4.13648E-001	4.26689E-002	4.78860E+001	11	...........	7.12426E-002	-5.04319E-003	5.93300E-001	5.61618E-001	-2.80607E-002	-3.89458E-002	6.91350E-001	-4.40456E-002	2.95553E-003	-2.09219E-004	2.46133E-002	2.32990E-002	-1.16411E-003	-1.61569E-003	2.86809E-002	-1.82725E-003
	24	24	1.10011E+000	4.10431E-002	0.00000E+000	4.51517E-002	4.09250E-001	4.26230E-002	4.78305E+001	11	...........	7.11649E-002	-5.08139E-003	5.93216E-001	5.61620E-001	-2.80546E-002	-3.89526E-002	6.91271E-001	-4.39082E-002	2.92083E-003	-2.08556E-004	2.43474E-002	2.30506E-002	-1.15145E-003	-1.59874E-003	2.83719E-002	-1.80213E-003
	25	25	1.09998E+000	4.10016E-002	0.00000E+000	4.51009E-002	4.08836E-001	4.25804E-002	4.77798E+001	11	...........	7.10896E-002	-5.07403E-003	5.93216E-001	5.61703E-001	-2.80587E-002	-3.89675E-002	6.91196E-001	-4.39243E-002	2.91478E-003	-2.08043E-004	2.43228E-002	2.30307E-002	-1.15045E-003	-1.59773E-003	2.83401E-002	-1.80097E-003
	26	26	1.10003E+000	4.11095E-002	0.00000E+000	4.52216E-002	4.09903E-001	4.26125E-002	4.76390E+001	11	...........	7.11549E-002	-5.16681E-003	5.93194E-001	5.61509E-001	-2.80457E-002	-3.89681E-002	6.91150E-001	-4.39574E-002	2.92514E-003	-2.12405E-004	2.43859E-002	2.30834E-002	-1.15294E-003	-1.60196E-003	2.84128E-002	-1.80707E-003
	27	27	1.10011E+000	4.06667E-002	0.00000E+000	4.47377E-002	4.05501E-001	4.25134E-002	4.76873E+001	11	...........	7.09669E-002	-5.11306E-003	5.93054E-001	5.61528E-001	-2.80546E-002	-3.89681E-002	6.91084E-001	-4.39897E-002	2.88599E-003	-2.07931E-004	2.41175E-002	2.28355E-002	-1.14089E-003	-1.58470E-003	2.81041E-002	-1.78892E-003
	28	28	1.09998E+000	4.05845E-002	0.00000E+000	4.46422E-002	4.04687E-001	4.24734E-002	4.76775E+001	11	...........	7.09171E-002	-5.18611E-003	5.93186E-001	5.61594E-001	-2.80689E-002	-3.89779E-002	6.91053E-001	-4.40637E-002	2.87814E-003	-2.10476E-004	2.40742E-002	2.27920E-002	-1.13916E-003	-1.58190E-003	2.80461E-002	-1.78831E-003
	29	29	1.10003E+000	4.07141E-002	0.00000E+000	4.47867E-002	4.05977E-001	4.24492E-002	4.76717E+001	11	...........	7.08682E-002	-5.11125E-003	5.93142E-001	5.61583E-001	-2.80704E-002	-3.89772E-002	6.91183E-001	-4.41128E-002	2.88534E-003	-2.08100E-004	2.41493E-002	2.28644E-002	-1.14286E-003	-1.58692E-003	2.81409E-002	-1.79601E-003
	30	30	1.10011E+000	4.03155E-002	0.00000E+000	4.43513E-002	4.02012E-001	4.24333E-002	4.76402E+001	11	...........	7.08094E-002	-5.10611E-003	5.93213E-001	5.61457E-001	-2.80722E-002	-3.89972E-002	6.91318E-001	-4.40879E-002	2.85472E-003	-2.05855E-004	2.39157E-002	2.26354E-002	-1.13175E-003	-1.57219E-003	2.78708E-002	-1.77743E-003
	31	31	1.09998E+000	4.02343E-002	0.00000E+000	4.42571E-002	4.01209E-001	4.23784E-002	4.76120E+001	11	...........	7.07576E-002	-5.15736E-003	5.93105E-001	5.61439E-001	-2.80910E-002	-3.90161E-002	6.91257E-001	-4.39744E-002	2.84689E-003	-2.07503E-004	2.38632E-002	2.25891E-002	-1.13022E-003	-1.56979E-003	2.78123E-002	-1.76928E-003
	32	32	1.10003E+000	4.03646E-002	0.00000E+000	4.44021E-002	4.02502E-001	4.23407E-002	4.75978E+001	11	...........	7.07153E-002	-5.15889E-003	5.93032E-001	5.61467E-001	-2.80597E-002	-3.90233E-002	6.91271E-001	-4.39342E-002	2.85439E-003	-2.08236E-004	2.39375E-002	2.26634E-002	-1.13262E-003	-1.57516E-003	2.79029E-002	-1.77338E-003
	33	33	1.10011E+000	3.99740E-002	0.00000E+000	4.39757E-002	3.98619E-001	4.23197E-002	4.75851E+001	11	...........	7.06593E-002	-5.26958E-003	5.93118E-001	5.61424E-001	-2.80835E-002	-3.90225E-002	6.91349E-001	-4.40008E-002	2.82454E-003	-2.10646E-004	2.37093E-002	2.24424E-002	-1.12261E-003	-1.55989E-003	2.76360E-002	-1.75889E-003
	34	34	1.09998E+000	3.98496E-002	0.00000E+000	4.38340E-002	3.97380E-001	4.22767E-002	4.75677E+001	11	...........	7.05829E-002	-5.21958E-003	5.93024E-001	5.61362E-001	-2.80594E-002	-3.90071E-002	6.91291E-001	-4.39404E-002	2.81270E-003	-2.07999E-004	2.36318E-002	2.23701E-002	-1.11816E-003	-1.55442E-003	2.75477E-002	-1.75101E-003
	35	35	1.10002E+000	4.00264E-002	0.00000E+000	4.40300E-002	3.99141E-001	4.22394E-002	4.75599E+001	11	...........	7.05336E-002	-5.25278E-003	5.93006E-001	5.61338E-001	-2.80610E-002	-3.90162E-002	6.91373E-001	-4.40047E-002	2.82321E-003	-2.10250E-004	2.37359E-002	2.24683E-002	-1.12318E-003	-1.56168E-003	2.76732E-002	-1.76135E-003
	36	36	1.10011E+000	3.96848E-002	0.00000E+000	4.36574E-002	3.95746E-001	4.21993E-002	4.75466E+001	11	...........	7.04517E-002	-5.23958E-003	5.92985E-001	5.61488E-001	-2.80193E-002	-3.90186E-002	6.91287E-001	-4.40129E-002	2.79586E-003	-2.07932E-004	2.35325E-002	2.22825E-002	-1.11194E-003	-1.54844E-003	2.74335E-002	-1.74664E-003
	37	37	1.09999E+000	3.95414E-002	0.00000E+000	4.34949E-002	3.94320E-001	4.21772E-002	4.75361E+001	11	...........	7.03947E-002	-5.19208E-003	5.93012E-001	5.61599E-001	-2.80189E-002	-3.90072E-002	6.91239E-001	-4.39229E-002	2.78350E-003	-2.05302E-004	2.34485E-002	2.22064E-002	-1.10791E-003	-1.54240E-003	2.73325E-002	-1.73677E-003
	38	38	1.10002E+000	3.96909E-002	0.00000E+000	4.36610E-002	3.95811E-001	4.21469E-002	4.75332E+001	11	...........	7.03521E-002	-5.17417E-003	5.93081E-001	5.61591E-001	-2.80175E-002	-3.89614E-002	6.91372E-001	-4.39000E-002	2.79234E-003	-2.05368E-004	2.35399E-002	2.22901E-002	-1.11204E-003	-1.54641E-003	2.74412E-002	-1.74243E-003
	39	39	1.10011E+000	3.93185E-002	0.00000E+000	4.32546E-002	3.92105E-001	4.21045E-002	4.75027E+001	11	...........	7.02946E-002	-5.17861E-003	5.93112E-001	5.61547E-001	-2.80322E-002	-3.89410E-002	6.91382E-001	-4.39049E-002	2.76388E-003	-2.03615E-004	2.33203E-002	2.20792E-002	-1.10219E-003	-1.53110E-003	2.71841E-002	-1.72627E-003
	40	40	1.09999E+000	3.91962E-002	0.00000E+000	4.31152E-002	3.90888E-001	4.20821E-002	4.74693E+001	11	...........	7.02439E-002	-5.13556E-003	5.93064E-001	5.61543E-001	-2.80343E-002	-3.89082E-002	6.91421E-001	-4.40535E-002	2.75329E-003	-2.01294E-004	2.32458E-002	2.20103E-002	-1.09884E-003	-1.52505E-003	2.71011E-002	-1.72673E-003
	41	41	1.10002E+000	3.93745E-002	0.00000E+000	4.33129E-002	3.92663E-001	4.20537E-002	4.74758E+001	11	...........	7.01922E-002	-5.22736E-003	5.93321E-001	5.61452E-001	-2.80507E-002	-3.89036E-002	6.91378E-001	-4.40206E-002	2.76379E-003	-2.05825E-004	2.33617E-002	2.21069E-002	-1.10448E-003	-1.53181E-003	2.72227E-002	-1.73329E-003
	42	42	1.10011E+000	3.90272E-002	0.00000E+000	4.29341E-002	3.89208E-001	4.20044E-002	4.74520E+001	11	...........	7.01267E-002	-5.22319E-003	5.93312E-001	5.61616E-001	-2.80553E-002	-3.89131E-002	6.91355E-001	-4.39833E-002	2.73685E-003	-2.03847E-004	2.31553E-002	2.19183E-002	-1.09492E-003	-1.51867E-003	2.69816E-002	-1.71655E-003
	43	43	1.09999E+000	3.88645E-002	0.00000E+000	4.27504E-002	3.87591E-001	4.19811E-002	4.74471E+001	11	...........	7.00961E-002	-5.21889E-003	5.93367E-001	5.61731E-001	-2.80853E-002	-3.89279E-002	6.91369E-001	-4.39967E-002	2.72425E-003	-2.02829E-004	2.30609E-002	2.18314E-002	-1.09152E-003	-1.51291E-003	2.68697E-002	-1.70991E-003
	44	44	1.10002E+000	3.90539E-002	0.00000E+000	4.29601E-002	3.89472E-001	4.19494E-002	4.74381E+001	11	...........	7.00376E-002	-5.16083E-003	5.93362E-001	5.61661E-001	-2.80867E-002	-3.89072E-002	6.91378E-001	-4.40786E-002	2.73524E-003	-2.01551E-004	2.31731E-002	2.19350E-002	-1.09689E-003	-1.51948E-003	2.70010E-002	-1.72144E-003
	45	45	1.10011E+000	3.87312E-002	0.00000E+000	4.26084E-002	3.86263E-001	4.19123E-002	4.74078E+001	11	...........	6.99947E-002	-5.17958E-003	5.93327E-001	5.61809E-001	-2.80649E-002	-3.88861E-002	6.91470E-001	-4.40751E-002	2.71098E-003	-2.00611E-004	2.29802E-002	2.17595E-002	-1.08698E-003	-1.50610E-003	2.67814E-002	-1.70708E-003
	46	46	1.09999E+000	3.85781E-002	0.00000E+000	4.24355E-002	3.84737E-001	4.18877E-002	4.73758E+001	11	...........	6.99421E-002	-5.19889E-003	5.93305E-001	5.62001E-001	-2.80414E-002	-3.88932E-002	6.91532E-001	-4.41125E-002	2.69823E-003	-2.00563E-004	2.28886E-002	2.16809E-002	-1.08178E-003	-1.50042E-003	2.66780E-002	-1.70178E-003
	47	47	1.10002E+000	3.87492E-002	0.00000E+000	4.26249E-002	3.86441E-001	4.18582E-002	4.73521E+001	11	...........	6.98853E-002	-5.10722E-003	5.93344E-001	5.61855E-001	-2.80542E-002	-3.89012E-002	6.91436E-001	-4.40453E-002	2.70800E-003	-1.97901E-004	2.29916E-002	2.17714E-002	-1.08708E-003	-1.50739E-003	2.67926E-002	-1.70672E-003
	48	48	1.10010E+000	3.84296E-002	0.00000E+000	4.22766E-002	3.83265E-001	4.18232E-002	4.73237E+001	11	...........	6.98262E-002	-5.03042E-003	5.93543E-001	5.61819E-001	-2.80617E-002	-3.89210E-002	6.91403E-001	-4.40621E-002	2.68340E-003	-1.93317E-004	2.28096E-002	2.15905E-002	-1.07840E-003	-1.49572E-003	2.65704E-002	-1.69329E-003
	49	49	1.09999E+000	3.82448E-002	0.00000E+000	4.20690E-002	3.81429E-001	4.18000E-002	4.73164E+001	11	...........	6.97789E-002	-4.99764E-003	5.93669E-001	5.61823E-001	-2.80664E-002	-3.89085E-002	6.91269E-001	-4.39721E-002	2.66868E-003	-1.91134E-004	2.27048E-002	2.14868E-002	-1.07339E-003	-1.48805E-003	2.64375E-002	-1.68170E-003
	50	50	1.10002E+000	3.84386E-002	0.00000E+000	4.22833E-002	3.83353E-001	4.17543E-002	4.73133E+001	11	...........	6.97096E-002	-5.02958E-003	5.93791E-001	5.61765E-001	-2.80414E-002	-3.89097E-002	6.91364E-001	-4.39506E-002	2.67954E-003	-1.93330E-004	2.28245E-002	2.15935E-002	-1.07787E-003	-1.49564E-003	2.65751E-002	-1.68940E-003
	51	51	1.10010E+000	3.81363E-002	0.00000E+000	4.19538E-002	3.80347E-001	4.17105E-002	4.73064E+001	11	...........	6.96479E-002	-5.05417E-003	5.93924E-001	5.61805E-001	-2.80340E-002	-3.89075E-002	6.91313E-001	-4.38843E-002	2.65611E-003	-1.92747E-004	2.26500E-002	2.14252E-002	-1.06911E-003	-1.48379E-003	2.63641E-002	-1.67358E-003
	52	52	1.09999E+000	3.79235E-002	0.00000E+000	4.17156E-002	3.78232E-001	4.16780E-002	4.73021E+001	11	...........	6.95857E-002	-5.07708E-003	5.93973E-001	5.61709E-001	-2.80229E-002	-3.89083E-002	6.91248E-001	-4.38328E-002	2.63893E-003	-1.92541E-004	2.25255E-002	2.13019E-002	-1.06273E-003	-1.47554E-003	2.62145E-002	-1.66229E-003
	53	53	1.10002E+000	3.81269E-002	0.00000E+000	4.19404E-002	3.80258E-001	4.16564E-002	4.73191E+001	11	...........	6.95389E-002	-5.08056E-003	5.93982E-001	5.61728E-001	-2.80162E-002	-3.88928E-002	6.91318E-001	-4.38933E-002	2.65131E-003	-1.93706E-004	2.26467E-002	2.14170E-002	-1.06817E-003	-1.48286E-003	2.63578E-002	-1.67352E-003
	54	54	1.10010E+000	3.78670E-002	0.00000E+000	4.16575E-002	3.77674E-001	4.16216E-002	4.73038E+001	11	...........	6.94855E-002	-5.16319E-003	5.93940E-001	5.61699E-001	-2.80308E-002	-3.88947E-002	6.91390E-001	-4.39558E-002	2.63121E-003	-1.95515E-004	2.24907E-002	2.12698E-002	-1.06144E-003	-1.47283E-003	2.61809E-002	-1.66448E-003
	55	55	1.10000E+000	3.76576E-002	0.00000E+000	4.14232E-002	3.75593E-001	4.15857E-002	4.73221E+001	11	...........	6.94432E-002	-5.19222E-003	5.93948E-001	5.61666E-001	-2.80165E-002	-3.88885E-002	6.91267E-001	-4.39483E-002	2.61506E-003	-1.95526E-004	2.23666E-002	2.11510E-002	-1.05503E-003	-1.46444E-003	2.60314E-002	-1.65499E-003
	56	56	1.10002E+000	3.78637E-002	0.00000E+000	4.16507E-002	3.77641E-001	4.15528E-002	4.73147E+001	11	...........	6.93794E-002	-5.16042E-003	5.93727E-001	5.61572E-001	-2.80231E-002	-3.88658E-002	6.91178E-001	-4.38708E-002	2.62696E-003	-1.95392E-004	2.24807E-002	2.12632E-002	-1.06106E-003	-1.47160E-003	2.61705E-002	-1.66111E-003
	57	57	1.10010E+000	3.75980E-002	0.00000E+000	4.13615E-002	3.75002E-001	4.15345E-002	4.73172E+001	11	...........	6.93278E-002	-5.14708E-003	5.93636E-001	5.61492E-001	-2.80025E-002	-3.88543E-002	6.91158E-001	-4.39567E-002	2.60659E-003	-1.93520E-004	2.23195E-002	2.11110E-002	-1.05284E-003	-1.46084E-003	2.59862E-002	-1.65268E-003
	58	58	1.10000E+000	3.73642E-002	0.00000E+000	4.11006E-002	3.72678E-001	4.14918E-002	4.72943E+001	11	...........	6.92867E-002	-5.20861E-003	5.93685E-001	5.61528E-001	-2.79976E-002	-3.88514E-002	6.91171E-001	-4.40868E-002	2.58884E-003	-1.94616E-004	2.21826E-002	2.09811E-002	-1.04611E-003	-1.45165E-003	2.58251E-002	-1.64727E-003
	59	59	1.10002E+000	3.75676E-002	0.00000E+000	4.13250E-002	3.74699E-001	4.14697E-002	4.72983E+001	11	...........	6.92312E-002	-5.11708E-003	5.93647E-001	5.61523E-001	-2.80299E-002	-3.88349E-002	6.91196E-001	-4.40901E-002	2.60085E-003	-1.92236E-004	2.23019E-002	2.10950E-002	-1.05301E-003	-1.45893E-003	2.59665E-002	-1.65636E-003
	60	60	1.10010E+000	3.73310E-002	0.00000E+000	4.10677E-002	3.72343E-001	4.14313E-002	4.72954E+001	11	...........	6.91825E-002	-5.09958E-003	5.93665E-001	5.61551E-001	-2.80378E-002	-3.88235E-002	6.91197E-001	-4.38990E-002	2.58265E-003	-1.90372E-004	2.21621E-002	2.09633E-002	-1.04668E-003	-1.44932E-003	2.58031E-002	-1.63879E-003
	61	61	1.10000E+000	3.70670E-002	0.00000E+000	4.07738E-002	3.69719E-001	4.13977E-002	4.73079E+001	11	...........	6.91165E-002	-5.01944E-003	5.93596E-001	5.61517E-001	-2.80769E-002	-3.88558E-002	6.91124E-001	-4.39094E-002	2.56194E-003	-1.86056E-004	2.20028E-002	2.08138E-002	-1.04073E-003	-1.44027E-003	2.56179E-002	-1.62759E-003
	62	62	1.10002E+000	3.70903E-002	0.00000E+000	4.08001E-002	3.69947E-001	4.13622E-002	4.73138E+001	11	...........	6.90704E-002	-5.04736E-003	5.93572E-001	5.61448E-001	-2.81060E-002	-3.88831E-002	6.91184E-001	-4.40736E-002	2.56184E-003	-1.87208E-004	2.20158E-002	2.08243E-002	-1.04246E-003	-1.44219E-003	2.56363E-002	-1.63470E-003
	63	63	1.10010E+000	3.68529E-002	0.00000E+000	4.05417E-002	3.67588E-001	4.13416E-002	4.72948E+001	11	...........	6.90224E-002	-5.11403E-003	5.93717E-001	5.61462E-001	-2.80997E-002	-3.88981E-002	6.91236E-001	-4.38864E-002	2.54367E-003	-1.88467E-004	2.18802E-002	2.06915E-002	-1.03556E-003	-1.43351E-003	2.54741E-002	-1.61734E-003
	64	64	1.10000E+000	3.66166E-002	0.00000E+000	4.02784E-002	3.65238E-001	4.13242E-002	4.72884E+001	11	...........	6.89710E-002	-5.14194E-003	5.93668E-001	5.61483E-001	-2.80871E-002	-3.88729E-002	6.91145E-001	-4.38779E-002	2.52548E-003	-1.88281E-004	2.17381E-002	2.05596E-002	-1.02845E-003	-1.42339E-003	2.53074E-002	-1.60666E-003
	65	65	1.10002E+000	3.68220E-002	0.00000E+000	4.05048E-002	3.67282E-001	4.12887E-002	4.72856E+001	11	...........	6.89149E-002	-5.11444E-003	5.93606E-001	5.61303E-001	-2.80811E-002	-3.88819E-002	6.91163E-001	-4.39308E-002	2.53758E-003	-1.88324E-004	2.18578E-002	2.06683E-002	-1.03400E-003	-1.43171E-003	2.54500E-002	-1.61762E-003
	66	66	1.10009E+000	3.65969E-002	0.00000E+000	4.02601E-002	3.65046E-001	4.12507E-002	4.72665E+001	11	...........	6.88680E-002	-5.08625E-003	5.93659E-001	5.61287E-001	-2.80603E-002	-3.88781E-002	6.91218E-001	-4.39624E-002	2.52036E-003	-1.86141E-004	2.17261E-002	2.05414E-002	-1.02692E-003	-1.42282E-003	2.52965E-002	-1.60889E-003
	67	67	1.10001E+000	3.63171E-002	0.00000E+000	3.99490E-002	3.62261E-001	4.12217E-002	4.72756E+001	11	...........	6.88214E-002	-5.18250E-003	5.93526E-001	5.61316E-001	-2.80604E-002	-3.88901E-002	6.91253E-001	-4.39507E-002	2.49939E-003	-1.88213E-004	2.15551E-002	2.03854E-002	-1.01907E-003	-1.41238E-003	2.51043E-002	-1.59616E-003
	68	68	1.10002E+000	3.65231E-002	0.00000E+000	4.01760E-002	3.64309E-001	4.12008E-002	4.72749E+001	11	...........	6.87826E-002	-5.14181E-003	5.93474E-001	5.61416E-001	-2.80593E-002	-3.88865E-002	6.91285E-001	-4.39887E-002	2.51216E-003	-1.87795E-004	2.16755E-002	2.05047E-002	-1.02481E-003	-1.42026E-003	2.52479E-002	-1.60661E-003
	69	69	1.10009E+000	3.63425E-002	0.00000E+000	3.99801E-002	3.62512E-001	4.11643E-002	4.72647E+001	11	...........	6.87264E-002	-5.14347E-003	5.93377E-001	5.61330E-001	-2.80215E-002	-3.88893E-002	6.91219E-001	-4.40247E-002	2.49769E-003	-1.86926E-004	2.15648E-002	2.04001E-002	-1.01837E-003	-1.41333E-003	2.51206E-002	-1.59997E-003
	70	70	1.10001E+000	3.60774E-002	0.00000E+000	3.96854E-002	3.59878E-001	4.11253E-002	4.72474E+001	11	...........	6.86837E-002	-5.15542E-003	5.93382E-001	5.61234E-001	-2.80328E-002	-3.88810E-002	6.91190E-001	-4.39635E-002	2.47793E-003	-1.85994E-004	2.14077E-002	2.02479E-002	-1.01135E-003	-1.40272E-003	2.49363E-002	-1.58609E-003
	71	71	1.10001E+000	3.62950E-002	0.00000E+000	3.99250E-002	3.62045E-001	4.11013E-002	4.72315E+001	11	...........	6.86317E-002	-5.20764E-003	5.93571E-001	5.61007E-001	-2.80333E-002	-3.88815E-002	6.91273E-001	-4.41893E-002	2.49099E-003	-1.89011E-004	2.15437E-002	2.03618E-002	-1.01747E-003	-1.41120E-003	2.50898E-002	-1.60385E-003
	72	72	1.10009E+000	3.61027E-002	0.00000E+000	3.97163E-002	3.60133E-001	4.10706E-002	4.72144E+001	11	...........	6.85719E-002	-5.27625E-003	5.93664E-001	5.60931E-001	-2.80344E-002	-3.88715E-002	6.91233E-001	-4.41046E-002	2.47563E-003	-1.90487E-004	2.14329E-002	2.02511E-002	-1.01212E-003	-1.40337E-003	2.49554E-002	-1.59230E-003
	73	73	1.10001E+000	3.58145E-002	0.00000E+000	3.93963E-002	3.57262E-001	4.10458E-002	4.71876E+001	11	...........	6.85212E-002	-5.32639E-003	5.93585E-001	5.61031E-001	-2.80225E-002	-3.88737E-002	6.91145E-001	-4.39917E-002	2.45406E-003	-1.90762E-004	2.12590E-002	2.00930E-002	-1.00361E-003	-1.39224E-003	2.47530E-002	-1.57554E-003
	74	74	1.10001E+000	3.60540E-002	0.00000E+000	3.96599E-002	3.59647E-001	4.10092E-002	4.72182E+001	11	...........	6.84610E-002	-5.27208E-003	5.93592E-001	5.61034E-001	-2.80189E-002	-3.88569E-002	6.91210E-001	-4.39958E-002	2.46829E-003	-1.90080E-004	2.14014E-002	2.02275E-002	-1.01019E-003	-1.40095E-003	2.49209E-002	-1.58623E-003
	75	75	1.10009E+000	3.58837E-002	0.00000E+000	3.94753E-002	3.57953E-001	4.09949E-002	4.72355E+001	11	...........	6.84206E-002	-5.20361E-003	5.93805E-001	5.60981E-001	-2.80375E-002	-3.88453E-002	6.91259E-001	-4.39526E-002	2.45519E-003	-1.86725E-004	2.13080E-002	2.01301E-002	-1.00609E-003	-1.39391E-003	2.48049E-002	-1.57719E-003
	76	76	1.10001E+000	3.55603E-002	0.00000E+000	3.91168E-002	3.54733E-001	4.09451E-002	4.72433E+001	11	...........	6.83601E-002	-5.11125E-003	5.93910E-001	5.60920E-001	-2.80450E-002	-3.88594E-002	6.91221E-001	-4.39528E-002	2.43091E-003	-1.81758E-004	2.11196E-002	1.99465E-002	-9.97289E-004	-1.38185E-003	2.45800E-002	-1.56297E-003
	77	77	1.10001E+000	3.58069E-002	0.00000E+000	3.93880E-002	3.57185E-001	4.09227E-002	4.72326E+001	11	...........	6.83175E-002	-5.21181E-003	5.93905E-001	5.61015E-001	-2.80632E-002	-3.88887E-002	6.91258E-001	-4.41129E-002	2.44624E-003	-1.86618E-004	2.12659E-002	2.00882E-002	-1.00486E-003	-1.39248E-003	2.47518E-002	-1.57955E-003
	78	78	1.10009E+000	3.56572E-002	0.00000E+000	3.92261E-002	3.55696E-001	4.09016E-002	4.72275E+001	11	...........	6.82674E-002	-5.22903E-003	5.94044E-001	5.61202E-001	-2.80539E-002	-3.89150E-002	6.91293E-001	-4.39985E-002	2.43423E-003	-1.86453E-004	2.11820E-002	2.00109E-002	-1.00032E-003	-1.38760E-003	2.46496E-002	-1.56886E-003
	79	79	1.10001E+000	3.53553E-002	0.00000E+000	3.88913E-002	3.52693E-001	4.08687E-002	4.72340E+001	11	...........	6.82400E-002	-5.21819E-003	5.94152E-001	5.61133E-001	-2.80596E-002	-3.89089E-002	6.91315E-001	-4.39832E-002	2.41264E-003	-1.84491E-004	2.10064E-002	1.98390E-002	-9.92055E-004	-1.37563E-003	2.44416E-002	-1.55504E-003
	80	80	1.10001E+000	3.55663E-002	0.00000E+000	3.91233E-002	3.54794E-001	4.08317E-002	4.72586E+001	11	...........	6.81826E-002	-5.20528E-003	5.94358E-001	5.61227E-001	-2.80506E-002	-3.89244E-002	6.91339E-001	-4.39732E-002	2.42500E-003	-1.85132E-004	2.11391E-002	1.99608E-002	-9.97653E-004	-1.38440E-003	2.45883E-002	-1.56396E-003
	81	81	1.10009E+000	3.54114E-002	0.00000E+000	3.89556E-002	3.53254E-001	4.07982E-002	4.72757E+001	11	...........	6.81297E-002	-5.23583E-003	5.94270E-001	5.61364E-001	-2.80371E-002	-3.89101E-002	6.91369E-001	-4.39290E-002	2.41257E-003	-1.85408E-004	2.10439E-002	1.98787E-002	-9.92832E-004	-1.37786E-003	2.44824E-002	-1.55559E-003
	82	82	1.10002E+000	3.50810E-002	0.00000E+000	3.85897E-002	3.49969E-001	4.07892E-002	4.72687E+001	11	...........	6.80924E-002	-5.19500E-003	5.94142E-001	5.61180E-001	-2.80421E-002	-3.88993E-002	6.91417E-001	-4.39890E-002	2.38875E-003	-1.82246E-004	2.08431E-002	1.96867E-002	-9.83744E-004	-1.36463E-003	2.42556E-002	-1.54318E-003
	83	83	1.10001E+000	3.53043E-002	0.00000E+000	3.88352E-002	3.52195E-001	4.07596E-002	4.72818E+001	11	...........	6.80479E-002	-5.16361E-003	5.94325E-001	5.61103E-001	-2.80350E-002	-3.88919E-002	6.91345E-001	-4.39029E-002	2.40239E-003	-1.82298E-004	2.09823E-002	1.98094E-002	-9.89757E-004	-1.37305E-003	2.44075E-002	-1.54996E-003
	84	84	1.10008E+000	3.51651E-002	0.00000E+000	3.86845E-002	3.50807E-001	4.07410E-002	4.72335E+001	11	...........	6.80193E-002	-5.17903E-003	5.94288E-001	5.61049E-001	-2.80375E-002	-3.88799E-002	6.91411E-001	-4.40250E-002	2.39190E-003	-1.82121E-004	2.08982E-002	1.97293E-002	-9.85941E-004	-1.36721E-003	2.43135E-002	-1.54814E-003
	85	85	1.10002E+000	3.48154E-002	0.00000E+000	3.82977E-002	3.47327E-001	4.06935E-002	4.72157E+001	11	...........	6.79593E-002	-5.17333E-003	5.94182E-001	5.61041E-001	-2.80465E-002	-3.88683E-002	6.91455E-001	-4.39442E-002	2.36603E-003	-1.80112E-004	2.06867E-002	1.95329E-002	-9.76452E-004	-1.35322E-003	2.40733E-002	-1.52993E-003
	86	86	1.10001E+000	3.50187E-002	0.00000E+000	3.85210E-002	3.49349E-001	4.06709E-002	4.72015E+001	11	...........	6.79132E-002	-5.17792E-003	5.94257E-001	5.60892E-001	-2.80493E-002	-3.88922E-002	6.91374E-001	-4.39139E-002	2.37823E-003	-1.81324E-004	2.08101E-002	1.96417E-002	-9.82251E-004	-1.36196E-003	2.42110E-002	-1.53781E-003
	87	87	1.10008E+000	3.49055E-002	0.00000E+000	3.83989E-002	3.48224E-001	4.06399E-002	4.72099E+001	11	...........	6.78608E-002	-5.10333E-003	5.94393E-001	5.60980E-001	-2.80403E-002	-3.88911E-002	6.91198E-001	-4.38981E-002	2.36872E-003	-1.78134E-004	2.07476E-002	1.95813E-002	-9.78760E-004	-1.35751E-003	2.41266E-002	-1.53228E-003
	88	88	1.10002E+000	3.45750E-002	0.00000E+000	3.80333E-002	3.44939E-001	4.06197E-002	4.72224E+001	11	...........	6.78189E-002	-5.18708E-003	5.94297E-001	5.61077E-001	-2.80242E-002	-3.88840E-002	6.91333E-001	-4.39867E-002	2.34484E-003	-1.79343E-004	2.05478E-002	1.93992E-002	-9.68935E-004	-1.34442E-003	2.39028E-002	-1.52084E-003
	89	89	1.10001E+000	3.47927E-002	0.00000E+000	3.82723E-002	3.47104E-001	4.05990E-002	4.72448E+001	11	...........	6.77594E-002	-5.10306E-003	5.94291E-001	5.61040E-001	-2.80167E-002	-3.88964E-002	6.91453E-001	-4.40947E-002	2.35753E-003	-1.77549E-004	2.06770E-002	1.95201E-002	-9.74775E-004	-1.35331E-003	2.40575E-002	-1.53417E-003
	90	90	1.10008E+000	3.46688E-002	0.00000E+000	3.81384E-002	3.45871E-001	4.05516E-002	4.72571E+001	11	...........	6.77224E-002	-5.10972E-003	5.94239E-001	5.60943E-001	-2.80056E-002	-3.88601E-002	6.91399E-001	-4.40072E-002	2.34785E-003	-1.77148E-004	2.06015E-002	1.94472E-002	-9.70918E-004	-1.34723E-003	2.39699E-002	-1.52568E-003
	91	91	1.10003E+000	3.42995E-002	0.00000E+000	3.77304E-002	3.42203E-001	4.05383E-002	4.72695E+001	11	...........	6.76693E-002	-5.10736E-003	5.94217E-001	5.60876E-001	-2.80289E-002	-3.88694E-002	6.91332E-001	-4.38954E-002	2.32103E-003	-1.75180E-004	2.03814E-002	1.92378E-002	-9.61378E-004	-1.33320E-003	2.37124E-002	-1.50559E-003
	92	92	1.10001E+000	3.45380E-002	0.00000E+000	3.79921E-002	3.44576E-001	4.05276E-002	4.72753E+001	11	...........	6.76710E-002	-5.17486E-003	5.94300E-001	5.60946E-001	-2.80497E-002	-3.88753E-002	6.91243E-001	-4.40471E-002	2.33722E-003	-1.78730E-004	2.05260E-002	1.93740E-002	-9.68783E-004	-1.34268E-003	2.38742E-002	-1.52130E-003
	93	93	1.10008E+000	3.44394E-002	0.00000E+000	3.78861E-002	3.43593E-001	4.04708E-002	4.72871E+001	11	...........	6.75597E-002	-5.20264E-003	5.94274E-001	5.61133E-001	-2.80471E-002	-3.89090E-002	6.91211E-001	-4.40353E-002	2.32672E-003	-1.79176E-004	2.04665E-002	1.93251E-002	-9.65925E-004	-1.34000E-003	2.38049E-002	-1.51655E-003
	94	94	1.10003E+000	3.40743E-002	0.00000E+000	3.74827E-002	3.39965E-001	4.04389E-002	4.72747E+001	11	...........	6.75353E-002	-5.16069E-003	5.94107E-001	5.61337E-001	-2.80178E-002	-3.89081E-002	6.91255E-001	-4.39739E-002	2.30122E-003	-1.75847E-004	2.02438E-002	1.91272E-002	-9.54687E-004	-1.32577E-003	2.35541E-002	-1.49838E-003
	95	95	1.10001E+000	3.42839E-002	0.00000E+000	3.77126E-002	3.42045E-001	4.04175E-002	4.72986E+001	11	...........	6.74889E-002	-5.18556E-003	5.94138E-001	5.61403E-001	-2.80262E-002	-3.89069E-002	6.91267E-001	-4.40515E-002	2.31379E-003	-1.77781E-004	2.03694E-002	1.92471E-002	-9.60850E-004	-1.33388E-003	2.36994E-002	-1.51026E-003
	96	96	1.10008E+000	3.41621E-002	0.00000E+000	3.75809E-002	3.40833E-001	4.03837E-002	4.73005E+001	11	...........	6.74324E-002	-5.12681E-003	5.94160E-001	5.61429E-001	-2.80508E-002	-3.89008E-002	6.91332E-001	-4.39221E-002	2.30363E-003	-1.75142E-004	2.02977E-002	1.91796E-002	-9.58275E-004	-1.32893E-003	2.36173E-002	-1.50047E-003
	97	97	1.10003E+000	3.38098E-002	0.00000E+000	3.71919E-002	3.37333E-001	4.03562E-002	4.72986E+001	11	...........	6.74015E-002	-5.14111E-003	5.94288E-001	5.61489E-001	-2.80529E-002	-3.88992E-002	6.91340E-001	-4.40085E-002	2.27883E-003	-1.73820E-004	2.00928E-002	1.89839E-002	-9.48464E-004	-1.31517E-003	2.33741E-002	-1.48792E-003
	98	98	1.10001E+000	3.40216E-002	0.00000E+000	3.74240E-002	3.39435E-001	4.03490E-002	4.73213E+001	11	...........	6.73637E-002	-5.16708E-003	5.94250E-001	5.61460E-001	-2.80653E-002	-3.88843E-002	6.91345E-001	-4.40868E-002	2.29182E-003	-1.75792E-004	2.02173E-002	1.91018E-002	-9.54825E-004	-1.32290E-003	2.35206E-002	-1.49990E-003
	99	99	1.10007E+000	3.39391E-002	0.00000E+000	3.73355E-002	3.38615E-001	4.03209E-002	4.73203E+001	11	...........	6.73226E-002	-5.12569E-003	5.94272E-001	5.61418E-001	-2.80447E-002	-3.88768E-002	6.91270E-001	-4.40660E-002	2.28487E-003	-1.73962E-004	2.01691E-002	1.90540E-002	-9.51813E-004	-1.31944E-003	2.34611E-002	-1.49556E-003
	100	100	1.10004E+000	3.35661E-002	0.00000E+000	3.69239E-002	3.34906E-001	4.02900E-002	4.73144E+001	11	...........	6.72678E-002	-5.08292E-003	5.94279E-001	5.61375E-001	-2.80476E-002	-3.88689E-002	6.91232E-001	-4.40117E-002	2.25791E-003	-1.70614E-004	1.99476E-002	1.88432E-002	-9.41449E-004	-1.30468E-003	2.32019E-002	-1.47730E-003
	101	101	1.10001E+000	3.37715E-002	0.00000E+000	3.71488E-002	3.36948E-001	4.02629E-002	4.73273E+001	11	...........	6.72264E-002	-5.07681E-003	5.94259E-001	5.61351E-001	-2.80483E-002	-3.88811E-002	6.91324E-001	-4.39936E-002	2.27033E-003	-1.71451E-004	2.00690E-002	1.89576E-002	-9.47233E-004	-1.31307E-003	2.33470E-002	-1.48573E-003
	102	102	1.10007E+000	3.37228E-002	0.00000E+000	3.70974E-002	3.36465E-001	4.02363E-002	4.73262E+001	11	...........	6.71872E-002	-5.04681E-003	5.94173E-001	5.61411E-001	-2.80235E-002	-3.88957E-002	6.91445E-001	-4.40835E-002	2.26574E-003	-1.70192E-004	2.00372E-002	1.89323E-002	-9.45028E-004	-1.31167E-003	2.33174E-002	-1.48662E-003
	103	103	1.10004E+000	3.33414E-002	0.00000E+000	3.66768E-002	3.32671E-001	4.01984E-002	4.73104E+001	11	...........	6.71224E-002	-5.07222E-003	5.94215E-001	5.61532E-001	-2.80324E-002	-3.88947E-002	6.91523E-001	-4.40521E-002	2.23795E-003	-1.69115E-004	1.98119E-002	1.87222E-002	-9.34637E-004	-1.29680E-003	2.30563E-002	-1.46876E-003
	104	104	1.10001E+000	3.35359E-002	0.00000E+000	3.68896E-002	3.34605E-001	4.01677E-002	4.73024E+001	11	...........	6.70899E-002	-5.04542E-003	5.94259E-001	5.61782E-001	-2.80578E-002	-3.88885E-002	6.91517E-001	-4.40410E-002	2.24992E-003	-1.69202E-004	1.99290E-002	1.88399E-002	-9.40942E-004	-1.30416E-003	2.31906E-002	-1.47695E-003
	105	105	1.10007E+000	3.34783E-002	0.00000E+000	3.68285E-002	3.34030E-001	4.01937E-002	4.72781E+001	11	...........	6.71000E-002	-5.12611E-003	5.94255E-001	5.61890E-001	-2.80751E-002	-3.88972E-002	6.91508E-001	-4.40649E-002	2.24640E-003	-1.71614E-004	1.98947E-002	1.88111E-002	-9.39909E-004	-1.30221E-003	2.31505E-002	-1.47522E-003
	106	106	1.10004E+000	3.30806E-002	0.00000E+000	3.63900E-002	3.30079E-001	4.01171E-002	4.72623E+001	11	...........	6.69846E-002	-5.14931E-003	5.94477E-001	5.61968E-001	-2.80987E-002	-3.88524E-002	6.91534E-001	-4.40132E-002	2.21589E-003	-1.70342E-004	1.96656E-002	1.85902E-002	-9.29523E-004	-1.28526E-003	2.28763E-002	-1.45598E-003
	107	107	1.10000E+000	3.32921E-002	0.00000E+000	3.66214E-002	3.32184E-001	4.00921E-002	4.72560E+001	11	...........	6.69404E-002	-5.21903E-003	5.94605E-001	5.61892E-001	-2.81125E-002	-3.89060E-002	6.91620E-001	-4.40197E-002	2.22859E-003	-1.73752E-004	1.97956E-002	1.87066E-002	-9.35924E-004	-1.29526E-003	2.30255E-002	-1.46551E-003
	108	108	1.10007E+000	3.32528E-002	0.00000E+000	3.65803E-002	3.31794E-001	4.00682E-002	4.72842E+001	11	...........	6.69004E-002	-5.21792E-003	5.94386E-001	5.62038E-001	-2.81103E-002	-3.89293E-002	6.91677E-001	-4.41524E-002	2.22463E-003	-1.73510E-004	1.97650E-002	1.86893E-002	-9.34745E-004	-1.29451E-003	2.30002E-002	-1.46819E-003
	109	109	1.10004E+000	3.28469E-002	0.00000E+000	3.61331E-002	3.27759E-001	4.00418E-002	4.72841E+001	11	...........	6.68549E-002	-5.22319E-003	5.94344E-001	5.62074E-001	-2.80982E-002	-3.89303E-002	6.91623E-001	-4.41300E-002	2.19598E-003	-1.71566E-004	1.95224E-002	1.84624E-002	-9.22939E-004	-1.27874E-003	2.27177E-002	-1.44953E-003
	110	110	1.10000E+000	3.30243E-002	0.00000E+000	3.63268E-002	3.29521E-001	4.00267E-002	4.72924E+001	11	...........	6.68329E-002	-5.18444E-003	5.94268E-001	5.62274E-001	-2.81265E-002	-3.89229E-002	6.91616E-001	-4.41849E-002	2.20711E-003	-1.71213E-004	1.96253E-002	1.85687E-002	-9.28859E-004	-1.28540E-003	2.28401E-002	-1.45917E-003
	111	111	1.10006E+000	3.29882E-002	0.00000E+000	3.62891E-002	3.29165E-001	4.00019E-002	4.72960E+001	11	...........	6.67850E-002	-5.15111E-003	5.94280E-001	5.62495E-001	-2.81132E-002	-3.89178E-002	6.91507E-001	-4.41733E-002	2.20312E-003	-1.69926E-004	1.96042E-002	1.85557E-002	-9.27404E-004	-1.28383E-003	2.28116E-002	-1.45720E-003
	112	112	1.10005E+000	3.26067E-002	0.00000E+000	3.58690E-002	3.25369E-001	3.99689E-002	4.73039E+001	11	...........	6.67294E-002	-5.11569E-003	5.94278E-001	5.62428E-001	-2.81051E-002	-3.88996E-002	6.91524E-001	-4.41419E-002	2.17583E-003	-1.66806E-004	1.93774E-002	1.83389E-002	-9.16416E-004	-1.26839E-003	2.25483E-002	-1.43932E-003
	113	113	1.10000E+000	3.27945E-002	0.00000E+000	3.60740E-002	3.27239E-001	3.99482E-002	4.73156E+001	11	...........	6.66997E-002	-4.97625E-003	5.94286E-001	5.62349E-001	-2.81189E-002	-3.89179E-002	6.91502E-001	-4.40368E-002	2.18739E-003	-1.63194E-004	1.94893E-002	1.84420E-002	-9.22146E-004	-1.27629E-003	2.26775E-002	-1.44417E-003
	114	114	1.10006E+000	3.27421E-002	0.00000E+000	3.60184E-002	3.26715E-001	3.99262E-002	4.73293E+001	11	...........	6.66636E-002	-4.96764E-003	5.94162E-001	5.62282E-001	-2.81124E-002	-3.89321E-002	6.91405E-001	-4.39986E-002	2.18271E-003	-1.62651E-004	1.94541E-002	1.84103E-002	-9.20458E-004	-1.27472E-003	2.26380E-002	-1.44061E-003
	115	115	1.10005E+000	3.23694E-002	0.00000E+000	3.56080E-002	3.23009E-001	3.98815E-002	4.73401E+001	11	...........	6.66015E-002	-5.06139E-003	5.94020E-001	5.62278E-001	-2.81394E-002	-3.89310E-002	6.91305E-001	-4.39904E-002	2.15585E-003	-1.63834E-004	1.92281E-002	1.82006E-002	-9.10857E-004	-1.26017E-003	2.23771E-002	-1.42394E-003
	116	116	1.10000E+000	3.25774E-002	0.00000E+000	3.58352E-002	3.25075E-001	3.98621E-002	4.73590E+001	11	...........	6.65651E-002	-5.15792E-003	5.94042E-001	5.62326E-001	-2.81306E-002	-3.89108E-002	6.91348E-001	-4.40687E-002	2.16852E-003	-1.68032E-004	1.93524E-002	1.83191E-002	-9.16421E-004	-1.26762E-003	2.25224E-002	-1.43565E-003
	117	117	1.10006E+000	3.25530E-002	0.00000E+000	3.58102E-002	3.24832E-001	3.98411E-002	4.73779E+001	11	...........	6.65240E-002	-5.14361E-003	5.94115E-001	5.62303E-001	-2.81257E-002	-3.89324E-002	6.91305E-001	-4.40990E-002	2.16556E-003	-1.67440E-004	1.93402E-002	1.83046E-002	-9.15576E-004	-1.26737E-003	2.25041E-002	-1.43556E-003
	118	118	1.10006E+000	3.21544E-002	0.00000E+000	3.53716E-002	3.20871E-001	3.98188E-002	4.73682E+001	11	...........	6.64804E-002	-5.19083E-003	5.94238E-001	5.62375E-001	-2.81133E-002	-3.89414E-002	6.91336E-001	-4.40114E-002	2.13764E-003	-1.66908E-004	1.91074E-002	1.80828E-002	-9.03968E-004	-1.25214E-003	2.22295E-002	-1.41516E-003
	119	119	1.10000E+000	3.23240E-002	0.00000E+000	3.55564E-002	3.22556E-001	3.97962E-002	4.73515E+001	11	...........	6.64449E-002	-5.24417E-003	5.94190E-001	5.62310E-001	-2.81217E-002	-3.89558E-002	6.91263E-001	-4.40407E-002	2.14776E-003	-1.69512E-004	1.92066E-002	1.81761E-002	-9.09003E-004	-1.25921E-003	2.23444E-002	-1.42357E-003
	120	120	1.10006E+000	3.22941E-002	0.00000E+000	3.55254E-002	3.22258E-001	3.97595E-002	4.73424E+001	11	...........	6.63960E-002	-5.19306E-003	5.94163E-001	5.62106E-001	-2.81035E-002	-3.89517E-002	6.91317E-001	-4.41061E-002	2.14420E-003	-1.67705E-004	1.91880E-002	1.81527E-002	-9.07577E-004	-1.25791E-003	2.23255E-002	-1.42437E-003
	121	121	1.10006E+000	3.19275E-002	0.00000E+000	3.51222E-002	3.18614E-001	3.97272E-002	4.73349E+001	11	...........	6.63507E-002	-5.23625E-003	5.94299E-001	5.62025E-001	-2.80956E-002	-3.89181E-002	6.91296E-001	-4.41007E-002	2.11841E-003	-1.67181E-004	1.89745E-002	1.79441E-002	-8.97022E-004	-1.24256E-003	2.20714E-002	-1.40803E-003
	122	122	1.10000E+000	3.20961E-002	0.00000E+000	3.53057E-002	3.20289E-001	3.97143E-002	4.73382E+001	11	...........	6.63143E-002	-5.27111E-003	5.94408E-001	5.62146E-001	-2.80962E-002	-3.89161E-002	6.91337E-001	-4.40921E-002	2.12843E-003	-1.69182E-004	1.90782E-002	1.80427E-002	-9.01780E-004	-1.24905E-003	2.21892E-002	-1.41518E-003
	123	123	1.10005E+000	3.20951E-002	0.00000E+000	3.53063E-002	3.20285E-001	3.96868E-002	4.73533E+001	11	...........	6.62574E-002	-5.17236E-003	5.94384E-001	5.62188E-001	-2.80974E-002	-3.88996E-002	6.91279E-001	-4.39722E-002	2.12654E-003	-1.66007E-004	1.90768E-002	1.80435E-002	-9.01787E-004	-1.24849E-003	2.21866E-002	-1.41129E-003
	124	124	1.10006E+000	3.16714E-002	0.00000E+000	3.48405E-002	3.16073E-001	3.96655E-002	4.73629E+001	11	...........	6.62133E-002	-5.23306E-003	5.94416E-001	5.62098E-001	-2.80940E-002	-3.88726E-002	6.91302E-001	-4.39496E-002	2.09707E-003	-1.65738E-004	1.88260E-002	1.78025E-002	-8.89778E-004	-1.23115E-003	2.18945E-002	-1.39195E-003
	125	125	1.10000E+000	3.18382E-002	0.00000E+000	3.50219E-002	3.17726E-001	3.96413E-002	4.73696E+001	11	...........	6.61826E-002	-5.13292E-003	5.94432E-001	5.61876E-001	-2.80678E-002	-3.88740E-002	6.91310E-001	-4.40367E-002	2.10713E-003	-1.63423E-004	1.89256E-002	1.78891E-002	-8.93626E-004	-1.23768E-003	2.20100E-002	-1.40205E-003
	126	126	1.10005E+000	3.18517E-002	0.00000E+000	3.50386E-002	3.17861E-001	3.96159E-002	4.73710E+001	11	...........	6.61378E-002	-5.09750E-003	5.94461E-001	5.61801E-001	-2.80901E-002	-3.88957E-002	6.91365E-001	-4.41278E-002	2.10660E-003	-1.62364E-004	1.89346E-002	1.78943E-002	-8.94720E-004	-1.23890E-003	2.20212E-002	-1.40555E-003
	127	127	1.10007E+000	3.14522E-002	0.00000E+000	3.45995E-002	3.13891E-001	3.95850E-002	4.73775E+001	11	...........	6.60981E-002	-5.20083E-003	5.94124E-001	5.61711E-001	-2.80887E-002	-3.88857E-002	6.91288E-001	-4.39640E-002	2.07893E-003	-1.63578E-004	1.86865E-002	1.76670E-002	-8.83453E-004	-1.22304E-003	2.17425E-002	-1.38276E-003
	128	128	1.10000E+000	3.16135E-002	0.00000E+000	3.47748E-002	3.15497E-001	3.95747E-002	4.73801E+001	11	...........	6.60801E-002	-5.28542E-003	5.94051E-001	5.61638E-001	-2.80657E-002	-3.89004E-002	6.91397E-001	-4.39876E-002	2.08903E-003	-1.67091E-004	1.87800E-002	1.77554E-002	-8.87256E-004	-1.22978E-003	2.18575E-002	-1.39060E-003
	129	129	1.10005E+000	3.16311E-002	0.00000E+000	3.47958E-002	3.15669E-001	3.95420E-002	4.73759E+001	11	...........	6.60376E-002	-5.28653E-003	5.94224E-001	5.61486E-001	-2.80592E-002	-3.89279E-002	6.91393E-001	-4.40619E-002	2.08885E-003	-1.67219E-004	1.87960E-002	1.77604E-002	-8.87544E-004	-1.23133E-003	2.18696E-002	-1.39373E-003
	130	130	1.10007E+000	3.12325E-002	0.00000E+000	3.43579E-002	3.11706E-001	3.95187E-002	4.73618E+001	11	...........	6.59994E-002	-5.34292E-003	5.94320E-001	5.61474E-001	-2.80692E-002	-3.89068E-002	6.91331E-001	-4.40310E-002	2.06133E-003	-1.66873E-004	1.85621E-002	1.75362E-002	-8.76670E-004	-1.21516E-003	2.15920E-002	-1.37520E-003
	131	131	1.10000E+000	3.13998E-002	0.00000E+000	3.45396E-002	3.13367E-001	3.95076E-002	4.73416E+001	11	...........	6.59750E-002	-5.23569E-003	5.94190E-001	5.61535E-001	-2.80329E-002	-3.88818E-002	6.91435E-001	-4.39306E-002	2.07160E-003	-1.64400E-004	1.86574E-002	1.76321E-002	-8.80227E-004	-1.22088E-003	2.17109E-002	-1.37941E-003
	132	132	1.10005E+000	3.14117E-002	0.00000E+000	3.45544E-002	3.13489E-001	3.94817E-002	4.73578E+001	11	...........	6.59074E-002	-5.16153E-003	5.94124E-001	5.61388E-001	-2.80362E-002	-3.88892E-002	6.91342E-001	-4.38924E-002	2.07027E-003	-1.62133E-004	1.86625E-002	1.76342E-002	-8.80667E-004	-1.22158E-003	2.17163E-002	-1.37874E-003
	133	133	1.10007E+000	3.10227E-002	0.00000E+000	3.41272E-002	3.09622E-001	3.94425E-002	4.73475E+001	11	...........	6.58554E-002	-5.14833E-003	5.94184E-001	5.61484E-001	-2.80379E-002	-3.89076E-002	6.91197E-001	-4.39814E-002	2.04302E-003	-1.59715E-004	1.84332E-002	1.74188E-002	-8.69813E-004	-1.20702E-003	2.14428E-002	-1.36442E-003
	134	134	1.10000E+000	3.11446E-002	0.00000E+000	3.42589E-002	3.10833E-001	3.94205E-002	4.73707E+001	11	...........	6.58246E-002	-5.14403E-003	5.94222E-001	5.61407E-001	-2.80292E-002	-3.89174E-002	6.91269E-001	-4.40443E-002	2.05008E-003	-1.60209E-004	1.85068E-002	1.74848E-002	-8.72956E-004	-1.21206E-003	2.15293E-002	-1.37174E-003
	135	135	1.10005E+000	3.11642E-002	0.00000E+000	3.42820E-002	3.11027E-001	3.93928E-002	4.73415E+001	11	...........	6.57872E-002	-5.24028E-003	5.94273E-001	5.61417E-001	-2.80339E-002	-3.89279E-002	6.91450E-001	-4.41233E-002	2.05021E-003	-1.63309E-004	1.85200E-002	1.74961E-002	-8.73654E-004	-1.21316E-003	2.15485E-002	-1.37507E-003
	136	136	1.10007E+000	3.07914E-002	0.00000E+000	3.38728E-002	3.07322E-001	3.93785E-002	4.73119E+001	11	...........	6.57532E-002	-5.20694E-003	5.94235E-001	5.61385E-001	-2.80125E-002	-3.89235E-002	6.91428E-001	-4.42451E-002	2.02463E-003	-1.60329E-004	1.82973E-002	1.72858E-002	-8.62543E-004	-1.19851E-003	2.12900E-002	-1.36237E-003
	137	137	1.10000E+000	3.08717E-002	0.00000E+000	3.39588E-002	3.08119E-001	3.93505E-002	4.73195E+001	11	...........	6.57031E-002	-5.17056E-003	5.94024E-001	5.61290E-001	-2.80065E-002	-3.89250E-002	6.91459E-001	-4.41468E-002	2.02837E-003	-1.59624E-004	1.83385E-002	1.73280E-002	-8.64609E-004	-1.20168E-003	2.13465E-002	-1.36289E-003
	138	138	1.10004E+000	3.08009E-002	0.00000E+000	3.38823E-002	3.07419E-001	3.93323E-002	4.73020E+001	11	...........	6.56568E-002	-5.20000E-003	5.94033E-001	5.61340E-001	-2.80092E-002	-3.89453E-002	6.91430E-001	-4.41496E-002	2.02229E-003	-1.60165E-004	1.82967E-002	1.72898E-002	-8.62708E-004	-1.19955E-003	2.12967E-002	-1.35985E-003
	139	139	1.10008E+000	3.04377E-002	0.00000E+000	3.34839E-002	3.03810E-001	3.92867E-002	4.72762E+001	11	...........	6.55996E-002	-5.11194E-003	5.94151E-001	5.61365E-001	-2.80044E-002	-3.89446E-002	6.91452E-001	-4.39964E-002	1.99670E-003	-1.55596E-004	1.80846E-002	1.70867E-002	-8.52392E-004	-1.18538E-003	2.10462E-002	-1.33915E-003
	140	140	1.09999E+000	3.05469E-002	0.00000E+000	3.36014E-002	3.04895E-001	3.92783E-002	4.72911E+001	11	...........	6.55765E-002	-5.13417E-003	5.94118E-001	5.61407E-001	-2.79854E-002	-3.89343E-002	6.91480E-001	-4.40092E-002	2.00316E-003	-1.56833E-004	1.81484E-002	1.71492E-002	-8.54867E-004	-1.18932E-003	2.11226E-002	-1.34434E-003
	141	141	1.10004E+000	3.06028E-002	0.00000E+000	3.36643E-002	3.05448E-001	3.92590E-002	4.72993E+001	11	...........	6.55563E-002	-5.12694E-003	5.94026E-001	5.61498E-001	-2.79814E-002	-3.89515E-002	6.91487E-001	-4.40569E-002	2.00620E-003	-1.56899E-004	1.81788E-002	1.71834E-002	-8.56308E-004	-1.19202E-003	2.11614E-002	-1.34826E-003
	142	142	1.10008E+000	3.02421E-002	0.00000E+000	3.32687E-002	3.01861E-001	3.92476E-002	4.72841E+001	11	...........	6.55081E-002	-5.09542E-003	5.94046E-001	5.61416E-001	-2.79828E-002	-3.89507E-002	6.91513E-001	-4.40082E-002	1.98110E-003	-1.54096E-004	1.79652E-002	1.69784E-002	-8.46257E-004	-1.17795E-003	2.09128E-002	-1.33090E-003
	143	143	1.09999E+000	3.03187E-002	0.00000E+000	3.33504E-002	3.02621E-001	3.92311E-002	4.72503E+001	11	...........	6.54849E-002	-5.12861E-003	5.94075E-001	5.61357E-001	-2.79981E-002	-3.89494E-002	6.91494E-001	-4.39783E-002	1.98542E-003	-1.55493E-004	1.80116E-002	1.70196E-002	-8.48865E-004	-1.18090E-003	2.09652E-002	-1.33337E-003
	144	144	1.10004E+000	3.03733E-002	0.00000E+000	3.34119E-002	3.03167E-001	3.91879E-002	4.72278E+001	11	...........	6.54394E-002	-5.14292E-003	5.93995E-001	5.61236E-001	-2.79954E-002	-3.89229E-002	6.91523E-001	-4.39839E-002	1.98761E-003	-1.56207E-004	1.80416E-002	1.70466E-002	-8.50314E-004	-1.18222E-003	2.10039E-002	-1.33594E-003
	145	145	1.10008E+000	3.00107E-002	0.00000E+000	3.30142E-002	2.99564E-001	3.91678E-002	4.72112E+001	11	...........	6.53907E-002	-5.10403E-003	5.94032E-001	5.61217E-001	-2.79897E-002	-3.89244E-002	6.91353E-001	-4.40056E-002	1.96242E-003	-1.53175E-004	1.78273E-002	1.68425E-002	-8.39991E-004	-1.16815E-003	2.07480E-002	-1.32064E-003
	146	146	1.09999E+000	3.01030E-002	0.00000E+000	3.31131E-002	3.00480E-001	3.91402E-002	4.72475E+001	11	...........	6.53557E-002	-5.08792E-003	5.94077E-001	5.61124E-001	-2.80071E-002	-3.89326E-002	6.91308E-001	-4.40362E-002	1.96740E-003	-1.53162E-004	1.78835E-002	1.68915E-002	-8.43098E-004	-1.17199E-003	2.08105E-002	-1.32562E-003
	147	147	1.10004E+000	3.01757E-002	0.00000E+000	3.31944E-002	3.01203E-001	3.91252E-002	4.72741E+001	11	...........	6.53369E-002	-5.13375E-003	5.94125E-001	5.61179E-001	-2.79935E-002	-3.89344E-002	6.91108E-001	-4.40882E-002	1.97159E-003	-1.54914E-004	1.79281E-002	1.69340E-002	-8.44722E-004	-1.17487E-003	2.08547E-002	-1.33039E-003
	148	148	1.10008E+000	2.98245E-002	0.00000E+000	3.28094E-002	2.97711E-001	3.90957E-002	4.72759E+001	11	...........	6.52864E-002	-5.26444E-003	5.94234E-001	5.61079E-001	-2.79828E-002	-3.89443E-002	6.91236E-001	-4.40669E-002	1.94713E-003	-1.57009E-004	1.77227E-002	1.67339E-002	-8.34572E-004	-1.16149E-003	2.06158E-002	-1.31427E-003
	149	149	1.09999E+000	2.98960E-002	0.00000E+000	3.28854E-002	2.98421E-001	3.90866E-002	4.72897E+001	11	...........	6.52536E-002	-5.17514E-003	5.94416E-001	5.61041E-001	-2.79885E-002	-3.89103E-002	6.91246E-001	-4.41908E-002	1.95082E-003	-1.54716E-004	1.77706E-002	1.67728E-002	-8.36742E-004	-1.16326E-003	2.06655E-002	-1.32113E-003
	150	150	1.10004E+000	2.99496E-002	0.00000E+000	3.29457E-002	2.98952E-001	3.90582E-002	4.72962E+001	11	...........	6.52075E-002	-5.09333E-003	5.94553E-001	5.61090E-001	-2.79649E-002	-3.89047E-002	6.91276E-001	-4.41817E-002	1.95294E-003	-1.52543E-004	1.78066E-002	1.68044E-002	-8.37537E-004	-1.16518E-003	2.07034E-002	-1.32322E-003
	151	151	1.10008E+000	2.96055E-002	0.00000E+000	3.25685E-002	2.95534E-001	3.88087E-002	4.72901E+001	11	...........	6.51708E-002	-5.15222E-003	5.94398E-001	5.60953E-001	-2.79685E-002	-3.89312E-002	6.91261E-001	-4.41893E-002	1.92941E-003	-1.52534E-004	1.75974E-002	1.66073E-002	-8.28019E-004	-1.15258E-003	2.04651E-002	-1.30824E-003
	152	152	1.09999E+000	2.96684E-002	0.00000E+000	3.26350E-002	2.96158E-001	3.90118E-002	4.73196E+001	11	...........	6.51260E-002	-5.17722E-003	5.94335E-001	5.60797E-001	-2.79690E-002	-3.89479E-002	6.91329E-001	-4.40917E-002	1.93218E-003	-1.53600E-004	1.76330E-002	1.66379E-002	-8.29795E-004	-1.15552E-003	2.05106E-002	-1.30813E-003
	153	153	1.10004E+000	2.97389E-002	0.00000E+000	3.27139E-002	2.96861E-001	3.89787E-002	4.73454E+001	11	...........	6.50764E-002	-5.12028E-003	5.94334E-001	5.60755E-001	-2.79690E-002	-3.89472E-002	6.91428E-001	-4.39950E-002	1.93530E-003	-1.52272E-004	1.76749E-002	1.66762E-002	-8.31769E-004	-1.15825E-003	2.05623E-002	-1.30836E-003
	154	154	1.10009E+000	2.93987E-002	0.00000E+000	3.23411E-002	2.93478E-001	3.89503E-002	4.73572E+001	11	...........	6.50392E-002	-5.15847E-003	5.94308E-001	5.60770E-001	-2.79771E-002	-3.89654E-002	6.91334E-001	-4.38363E-002	1.91207E-003	-1.51653E-004	1.74719E-002	1.64859E-002	-8.22491E-004	-1.14553E-003	2.03243E-002	-1.28873E-003
	155	155	1.09999E+000	2.94553E-002	0.00000E+000	3.24007E-002	2.94041E-001	3.89327E-002	4.73616E+001	11	...........	6.49967E-002	-5.24236E-003	5.94219E-001	5.60718E-001	-2.79875E-002	-3.89537E-002	6.91393E-001	-4.38728E-002	1.91450E-003	-1.54415E-004	1.75029E-002	1.65161E-002	-8.24381E-004	-1.14740E-003	2.03652E-002	-1.29229E-003
	156	156	1.10003E+000	2.95321E-002	0.00000E+000	3.24863E-002	2.94803E-001	3.89217E-002	4.73667E+001	11	...........	6.49721E-002	-5.23389E-003	5.94186E-001	5.60698E-001	-2.79833E-002	-3.89486E-002	6.91526E-001	-4.39990E-002	1.91876E-003	-1.54568E-004	1.75475E-002	1.65586E-002	-8.26406E-004	-1.15023E-003	2.04222E-002	-1.29938E-003
	157	157	1.10009E+000	2.92100E-002	0.00000E+000	3.21336E-002	2.91603E-001	3.88949E-002	4.73775E+001	11	...........	6.49271E-002	-5.25958E-003	5.94289E-001	5.60746E-001	-2.80096E-002	-3.89632E-002	6.91571E-001	-4.39658E-002	1.89652E-003	-1.53633E-004	1.73592E-002	1.63794E-002	-8.18160E-004	-1.13812E-003	2.02008E-002	-1.28424E-003
	158	158	1.09999E+000	2.92236E-002	0.00000E+000	3.21458E-002	2.91741E-001	3.88774E-002	4.73625E+001	11	...........	6.49108E-002	-5.25361E-003	5.94284E-001	5.60767E-001	-2.80250E-002	-3.89612E-002	6.91557E-001	-4.39315E-002	1.89693E-003	-1.53530E-004	1.73671E-002	1.63876E-002	-8.18992E-004	-1.13859E-003	2.02098E-002	-1.28384E-003
	159	159	1.10003E+000	2.92977E-002	0.00000E+000	3.22284E-002	2.92475E-001	3.88578E-002	4.73429E+001	11	...........	6.48728E-002	-5.28042E-003	5.94358E-001	5.60966E-001	-2.80289E-002	-3.89501E-002	6.91687E-001	-4.40708E-002	1.90062E-003	-1.54704E-004	1.74133E-002	1.64350E-002	-8.21182E-004	-1.14115E-003	2.02648E-002	-1.29117E-003
	160	160	1.10009E+000	2.89966E-002	0.00000E+000	3.18989E-002	2.89481E-001	3.88279E-002	4.73025E+001	11	...........	6.48272E-002	-5.21653E-003	5.94149E-001	5.61003E-001	-2.79989E-002	-3.89440E-002	6.91760E-001	-4.41814E-002	1.87977E-003	-1.51262E-004	1.72283E-002	1.62672E-002	-8.11873E-004	-1.12925E-003	2.00587E-002	-1.28111E-003
	161	161	1.09999E+000	2.90427E-002	0.00000E+000	3.19467E-002	2.89941E-001	3.88048E-002	4.72849E+001	11	...........	6.47792E-002	-5.23764E-003	5.94364E-001	5.61165E-001	-2.79740E-002	-3.89265E-002	6.91671E-001	-4.40993E-002	1.88136E-003	-1.52115E-004	1.72619E-002	1.62977E-002	-8.12440E-004	-1.13053E-003	2.00880E-002	-1.28076E-003
	162	162	1.10003E+000	2.91350E-002	0.00000E+000	3.20494E-002	2.90859E-001	3.87857E-002	4.72904E+001	11	...........	6.47586E-002	-5.28639E-003	5.94390E-001	5.61222E-001	-2.79436E-002	-3.89076E-002	6.91663E-001	-4.40596E-002	1.88674E-003	-1.54019E-004	1.73175E-002	1.63512E-002	-8.14136E-004	-1.13357E-003	2.01516E-002	-1.28367E-003
	163	163	1.10009E+000	2.88181E-002	0.00000E+000	3.17025E-002	2.87709E-001	3.87752E-002	4.72883E+001	11	...........	6.47383E-002	-5.26208E-003	5.94149E-001	5.61157E-001	-2.79453E-002	-3.88931E-002	6.91662E-001	-4.39375E-002	1.86564E-003	-1.51643E-004	1.71223E-002	1.61715E-002	-8.05331E-004	-1.12083E-003	1.99324E-002	-1.26620E-003
	164	163.748	1.10004E+000	2.88825E-002	0.00000E+000	3.17719E-002	2.88348E-001	3.87518E-002	4.72618E+001	11	...........	6.47108E-002	-5.18671E-003	5.94118E-001	5.61134E-001	-2.79569E-002	-3.89139E-002	6.91762E-001	-4.39393E-002	1.86901E-003	-1.49805E-004	1.71596E-002	1.62069E-002	-8.07466E-004	-1.12393E-003	1.99798E-002	-1.26908E-003
STARTTIMEOFFSET	QUANT	553772.4	Start Time Offset (s)
