EXPLAIN
TAG	PWR800_CHARGE
TITLE	LABEL	PWR Charge	Test Identifier
DATE	LABEL	10/13/2022	Date
TIME	LABEL	18:15:05	Time
NOTES	NOTES	1	Notes...
	
PSTAT	PSTAT	REF3000-21114	Potentiostat
CAPACITY	QUANT	5.30000E-002	Capacity (A-hr)
CELLTYPE	SELECTOR	1	Cell Type
WORKINGCONNECTION	SELECTOR	0	Working Connection
MAXCHARGETIME	VARIABLEANDUNITS	7.20000E+003	s	2.00000E+000	hour(s)	Max Charge Time
CHARGEMODE	MULTIPARAM	0	1.00000E-001	Charge Mode	Constant Current	Amp(s)
CHARGECURRENT	QUANT	0.1	Charge Current (A)
VOLTAGEFINISH	TWOPARAM	T	2.50000E-002	7.20000E+003	Voltage Finish	I (A) <	Max Time(s)
SAMPLETIME	QUANT	1.00000E+000	Sample Period (s)
CHARGESTOPAT1	MULTIPARAM	2	1.10000E+000	Stop At 1	|Voltage| > Limit	V
CHARGESTOPAT2	MULTIPARAM	0	0.00000E+000	Stop At 2	None	N/A
AESELECTOR	AESELECTOR	0x1	T	Set Limits	AE Channels
AESBHCSELECTOR	TOGGLE	F	Save Both Half Cells
IRCOMP	TOGGLE	F	IR Measure
EOC	QUANT	0.2249748	Open Circuit (V)
SEQUENCER	TOGGLE	TRUE	Run as Sequence
PSTATMODEL	IQUANT	5	Pstat Model
PSTATSECTION	LABEL	REF3000-21114	Pstat Section
PSTATSERIALNO	LABEL	21114	Pstat Serial Number
CTRLMODE	IQUANT	0	Control Mode
ELECTROMETER	IQUANT	0	RE=0 or CS=1
IESTAB	IQUANT	0	I/E Stability
CASPEED	IQUANT	4	Control Amp Speed
CONVENTION	IQUANT	1	Current Convention
ICHRANGE	IQUANT	2	Ich Range
ICHRANGEMODE	TOGGLE	T	Ich Auto Range
ICHOFFSETENABLE	TOGGLE	F	Ich Offset Enable
ICHOFFSET	QUANT	0	Ich Offset (V)
ICHFILTER	IQUANT	1	Ich Filter
VCHRANGE	IQUANT	3	Vch Range
VCHRANGEMODE	TOGGLE	T	Vch Auto Range
VCHOFFSETENABLE	TOGGLE	F	Vch Offset Enable
VCHOFFSET	QUANT	0	Vch Offset (V)
VCHFILTER	IQUANT	1	Vch Filter
ACHRANGE	IQUANT	2	Ach Range
ACHOFFSETENABLE	TOGGLE	F	Ach Offset Enable
ACHOFFSET	QUANT	0	Ach Offset (V)
ACHFILTER	IQUANT	1	Ach Filter
IERANGELOWERLIMIT	IQUANT	9	I/E Range Lower Limit
IERANGEMODE	TOGGLE	F	I/E AutoRange
IERANGE	IQUANT	9	I/E Range
POSFEEDENABLE	TOGGLE	F	Positive Feedback IR Comp
POSFEEDRESISTANCE	QUANT	0	Positive Feedback Resistance (ohm)
ACHSELECT	IQUANT	1	Ach Select
SENSECABLEID	IQUANT	13	Sense Cable ID
PWRCABLEID	IQUANT	13	Power Cable ID
DCCALDATE	LABEL		DC Calibration Date
ACCALDATE	LABEL		AC Calibration Date
THERMOSELECT	IQUANT	1	Thermo Select
FRAMEWORKVERSION	LABEL	7.8.6	Framework Version
INSTRUMENTVERSION	LABEL	4.50	Instrument Version
COMPLIANCEVOLTAGE	IQUANT	0	Compliance Voltage
CURVE	TABLE	216
	Pt	T	Vf	Im	Vu	Pwr	Sig	Ach	Temp	IERange	Over	Vf1	Vf2	Vf3	Vf4	Vf5	Vf6	Vf7	Vf8	Pwr1	Pwr2	Pwr3	Pwr4	Pwr5	Pwr6	Pwr7	Pwr8
	#	s	V	A	V	W	V	V	deg C	#	bits	V	V	V	V	V	V	V	V	W	W	W	W	W	W	W	W
	0	1	4.93193E-001	9.98650E-002	0.00000E+000	4.92527E-002	9.94000E-001	4.30162E-002	4.20078E+001	11	...........	7.14221E-002	-5.49597E-003	6.03965E-001	5.27577E-001	-2.69382E-002	-3.85896E-002	6.98737E-001	-4.40954E-002	7.13256E-003	-5.48855E-004	6.03149E-002	5.26864E-002	-2.69018E-003	-3.85375E-003	6.97794E-002	-4.40359E-003
	1	2	6.36220E-001	9.98656E-002	0.00000E+000	6.35365E-002	9.94000E-001	4.31798E-002	4.37412E+001	11	...........	7.16719E-002	-5.54403E-003	6.04071E-001	5.27579E-001	-2.69603E-002	-3.85806E-002	6.98802E-001	-4.42346E-002	7.15756E-003	-5.53657E-004	6.03258E-002	5.26870E-002	-2.69240E-003	-3.85287E-003	6.97863E-002	-4.41751E-003
	2	3	8.61106E-001	9.98666E-002	0.00000E+000	8.59958E-002	9.94000E-001	4.40099E-002	4.85582E+001	11	...........	7.30787E-002	-5.63556E-003	6.04268E-001	5.27563E-001	-2.69699E-002	-3.85522E-002	6.98815E-001	-4.41583E-002	7.29813E-003	-5.62804E-004	6.03462E-002	5.26859E-002	-2.69339E-003	-3.85008E-003	6.97883E-002	-4.40994E-003
	3	3.14167	1.06729E+000	9.98675E-002	0.00000E+000	1.06587E-001	9.94000E-001	4.44724E-002	5.33489E+001	11	...........	7.38088E-002	-5.71863E-003	6.04404E-001	5.27520E-001	-2.70637E-002	-3.85039E-002	6.98882E-001	-4.43667E-002	7.37110E-003	-5.71105E-004	6.03603E-002	5.26821E-002	-2.70279E-003	-3.84529E-003	6.97957E-002	-4.43079E-003
	4	4	1.10057E+000	7.44753E-002	0.00000E+000	8.19656E-002	7.41539E-001	4.39616E-002	5.32837E+001	11	...........	7.29442E-002	-5.70647E-003	6.04304E-001	5.27580E-001	-2.69592E-002	-3.85582E-002	6.98902E-001	-4.42442E-002	5.43254E-003	-4.24991E-004	4.50057E-002	3.92917E-002	-2.00780E-003	-2.87164E-003	5.20509E-002	-3.29510E-003
	5	5	1.10031E+000	6.02156E-002	0.00000E+000	6.62559E-002	5.99752E-001	4.38385E-002	5.23928E+001	11	...........	7.27714E-002	-5.55764E-003	6.04284E-001	5.27622E-001	-2.69212E-002	-3.85108E-002	6.98763E-001	-4.42046E-002	4.38197E-003	-3.34657E-004	3.63874E-002	3.17711E-002	-1.62108E-003	-2.31895E-003	4.20765E-002	-2.66181E-003
	6	6	1.10024E+000	5.49729E-002	0.00000E+000	6.04835E-002	5.47619E-001	4.38949E-002	5.20318E+001	11	...........	7.28540E-002	-5.36528E-003	6.04265E-001	5.27571E-001	-2.69296E-002	-3.85092E-002	6.98658E-001	-4.42714E-002	4.00500E-003	-2.94945E-004	3.32182E-002	2.90021E-002	-1.48040E-003	-2.11696E-003	3.84073E-002	-2.43373E-003
	7	7	1.10016E+000	5.28283E-002	0.00000E+000	5.81195E-002	5.26297E-001	4.38286E-002	5.16645E+001	11	...........	7.27300E-002	-5.30931E-003	6.04137E-001	5.27513E-001	-2.69146E-002	-3.85321E-002	6.98588E-001	-4.42712E-002	3.84220E-003	-2.80482E-004	3.19156E-002	2.78676E-002	-1.42185E-003	-2.03559E-003	3.69053E-002	-2.33878E-003
	8	8	1.10024E+000	5.14053E-002	0.00000E+000	5.65583E-002	5.12148E-001	4.38162E-002	5.13923E+001	11	...........	7.27450E-002	-5.47403E-003	6.04025E-001	5.27496E-001	-2.69178E-002	-3.85324E-002	6.98649E-001	-4.42933E-002	3.73948E-003	-2.81394E-004	3.10501E-002	2.71161E-002	-1.38372E-003	-1.98077E-003	3.59143E-002	-2.27691E-003
	9	9	1.10022E+000	4.99936E-002	0.00000E+000	5.50042E-002	4.98109E-001	4.38546E-002	5.12524E+001	11	...........	7.27622E-002	-5.34458E-003	6.03966E-001	5.27288E-001	-2.68924E-002	-3.85147E-002	6.98651E-001	-4.42929E-002	3.63765E-003	-2.67195E-004	3.01944E-002	2.63611E-002	-1.34445E-003	-1.92549E-003	3.49281E-002	-2.21436E-003
	10	10	1.10014E+000	4.96288E-002	0.00000E+000	5.45989E-002	4.94485E-001	4.38508E-002	5.11171E+001	11	...........	7.27599E-002	-5.23014E-003	6.03907E-001	5.27224E-001	-2.68667E-002	-3.85111E-002	6.98553E-001	-4.41307E-002	3.61099E-003	-2.59566E-004	2.99712E-002	2.61655E-002	-1.33336E-003	-1.91126E-003	3.46684E-002	-2.19016E-003
	11	11	1.10023E+000	4.92175E-002	0.00000E+000	5.41504E-002	4.90398E-001	4.37916E-002	5.10280E+001	11	...........	7.26771E-002	-5.32181E-003	6.03885E-001	5.27196E-001	-2.68592E-002	-3.85021E-002	6.98655E-001	-4.41556E-002	3.57698E-003	-2.61926E-004	2.97217E-002	2.59473E-002	-1.32194E-003	-1.89498E-003	3.43860E-002	-2.17323E-003
	12	12	1.10023E+000	4.84042E-002	0.00000E+000	5.32556E-002	4.82313E-001	4.38031E-002	5.09321E+001	11	...........	7.27046E-002	-5.51389E-003	6.03892E-001	5.27351E-001	-2.68632E-002	-3.85069E-002	6.98646E-001	-4.41368E-002	3.51921E-003	-2.66896E-004	2.92309E-002	2.55261E-002	-1.30029E-003	-1.86390E-003	3.38174E-002	-2.13641E-003
	13	13	1.10014E+000	4.83801E-002	0.00000E+000	5.32249E-002	4.82070E-001	4.37277E-002	5.09197E+001	11	...........	7.25460E-002	-5.50667E-003	6.03845E-001	5.27430E-001	-2.69014E-002	-3.84656E-002	6.98642E-001	-4.39933E-002	3.50978E-003	-2.66413E-004	2.92141E-002	2.55171E-002	-1.30149E-003	-1.86097E-003	3.38004E-002	-2.12840E-003
	14	14	1.10022E+000	4.82060E-002	0.00000E+000	5.30372E-002	4.80336E-001	4.37202E-002	5.08587E+001	11	...........	7.25485E-002	-5.43750E-003	6.03788E-001	5.27440E-001	-2.69422E-002	-3.84643E-002	6.98574E-001	-4.42046E-002	3.49727E-003	-2.62120E-004	2.91062E-002	2.54257E-002	-1.29878E-003	-1.85421E-003	3.36754E-002	-2.13092E-003
	15	15	1.10023E+000	4.75969E-002	0.00000E+000	5.23675E-002	4.74283E-001	4.36555E-002	4.95833E+001	11	...........	7.24578E-002	-5.27194E-003	6.03880E-001	5.27321E-001	-2.69337E-002	-3.84376E-002	6.98462E-001	-4.41118E-002	3.44876E-003	-2.50928E-004	2.87428E-002	2.50988E-002	-1.28196E-003	-1.82951E-003	3.32446E-002	-2.09958E-003
	16	16	1.10014E+000	4.76224E-002	0.00000E+000	5.23912E-002	4.74543E-001	4.35987E-002	4.96681E+001	11	...........	7.23431E-002	-5.15764E-003	6.03804E-001	5.27236E-001	-2.69732E-002	-3.84439E-002	6.98513E-001	-4.42672E-002	3.44515E-003	-2.45619E-004	2.87545E-002	2.51082E-002	-1.28453E-003	-1.83079E-003	3.32648E-002	-2.10811E-003
	17	17	1.10022E+000	4.75449E-002	0.00000E+000	5.23096E-002	4.73773E-001	4.35576E-002	5.02804E+001	11	...........	7.22582E-002	-5.08778E-003	6.03750E-001	5.27289E-001	-2.69792E-002	-3.84550E-002	6.98456E-001	-4.42756E-002	3.43551E-003	-2.41898E-004	2.87052E-002	2.50699E-002	-1.28272E-003	-1.82834E-003	3.32080E-002	-2.10508E-003
	18	18	1.10024E+000	4.69933E-002	0.00000E+000	5.17036E-002	4.68288E-001	4.36247E-002	5.04530E+001	11	...........	7.23860E-002	-5.13014E-003	6.03646E-001	5.27394E-001	-2.69390E-002	-3.84517E-002	6.98450E-001	-4.41587E-002	3.40165E-003	-2.41082E-004	2.83673E-002	2.47839E-002	-1.26595E-003	-1.80697E-003	3.28224E-002	-2.07516E-003
	19	19	1.10014E+000	4.71103E-002	0.00000E+000	5.18278E-002	4.69453E-001	4.35298E-002	5.04791E+001	11	...........	7.22274E-002	-5.13069E-003	6.03703E-001	5.27344E-001	-2.68946E-002	-3.84892E-002	6.98465E-001	-4.41599E-002	3.40265E-003	-2.41709E-004	2.84406E-002	2.48433E-002	-1.26701E-003	-1.81324E-003	3.29049E-002	-2.08038E-003
	20	20	1.10021E+000	4.70335E-002	0.00000E+000	5.17468E-002	4.68694E-001	4.33436E-002	5.04267E+001	11	...........	7.21868E-002	-5.16097E-003	6.03740E-001	5.27195E-001	-2.69110E-002	-3.84851E-002	6.98499E-001	-4.41728E-002	3.39520E-003	-2.42738E-004	2.83960E-002	2.47958E-002	-1.26572E-003	-1.81009E-003	3.28528E-002	-2.07760E-003
	21	21	1.10024E+000	4.65054E-002	0.00000E+000	5.11671E-002	4.63445E-001	4.31762E-002	5.03992E+001	11	...........	7.20703E-002	-5.39625E-003	6.03729E-001	5.27015E-001	-2.69572E-002	-3.85222E-002	6.98601E-001	-4.42040E-002	3.35166E-003	-2.50955E-004	2.80766E-002	2.45090E-002	-1.25366E-003	-1.79149E-003	3.24887E-002	-2.05573E-003
	22	22	1.10014E+000	4.66140E-002	0.00000E+000	5.12817E-002	4.64524E-001	4.31746E-002	5.03843E+001	11	...........	7.20831E-002	-5.41528E-003	6.03774E-001	5.27003E-001	-2.69792E-002	-3.85217E-002	6.98571E-001	-4.40350E-002	3.36008E-003	-2.52428E-004	2.81443E-002	2.45658E-002	-1.25761E-003	-1.79565E-003	3.25632E-002	-2.05265E-003
	23	23	1.10021E+000	4.66020E-002	0.00000E+000	5.12719E-002	4.64406E-001	4.31492E-002	5.03544E+001	11	...........	7.20228E-002	-5.40486E-003	6.03857E-001	5.27013E-001	-2.69276E-002	-3.85053E-002	6.98612E-001	-4.39583E-002	3.35641E-003	-2.51877E-004	2.81410E-002	2.45599E-002	-1.25488E-003	-1.79442E-003	3.25568E-002	-2.04855E-003
	24	24	1.10024E+000	4.60577E-002	0.00000E+000	5.06748E-002	4.58990E-001	4.30867E-002	5.02707E+001	11	...........	7.19144E-002	-5.31681E-003	6.03919E-001	5.26934E-001	-2.69778E-002	-3.84793E-002	6.98624E-001	-4.39617E-002	3.31222E-003	-2.44880E-004	2.78152E-002	2.42694E-002	-1.24254E-003	-1.77227E-003	3.21770E-002	-2.02477E-003
	25	25	1.10013E+000	4.61551E-002	0.00000E+000	5.07768E-002	4.59959E-001	4.30667E-002	5.03065E+001	11	...........	7.18535E-002	-5.30986E-003	6.04006E-001	5.27012E-001	-2.69901E-002	-3.84528E-002	6.98543E-001	-4.41950E-002	3.31641E-003	-2.45077E-004	2.78780E-002	2.43243E-002	-1.24573E-003	-1.77479E-003	3.22413E-002	-2.03983E-003
	26	26	1.10020E+000	4.61706E-002	0.00000E+000	5.07971E-002	4.60109E-001	4.30169E-002	5.03302E+001	11	...........	7.17832E-002	-5.27931E-003	6.04006E-001	5.27013E-001	-2.69668E-002	-3.84585E-002	6.98548E-001	-4.42554E-002	3.31427E-003	-2.43749E-004	2.78873E-002	2.43325E-002	-1.24507E-003	-1.77565E-003	3.22523E-002	-2.04330E-003
	27	27	1.10025E+000	4.56298E-002	0.00000E+000	5.02041E-002	4.54733E-001	4.30086E-002	5.03340E+001	11	...........	7.17643E-002	-5.23667E-003	6.03964E-001	5.26952E-001	-2.68887E-002	-3.84649E-002	6.98560E-001	-4.43244E-002	3.27459E-003	-2.38948E-004	2.75588E-002	2.40447E-002	-1.22693E-003	-1.75514E-003	3.18751E-002	-2.02252E-003
	28	28	1.10013E+000	4.57078E-002	0.00000E+000	5.02847E-002	4.55508E-001	4.29430E-002	5.03125E+001	11	...........	7.16769E-002	-5.31361E-003	6.03953E-001	5.26956E-001	-2.69350E-002	-3.84971E-002	6.98544E-001	-4.42664E-002	3.27620E-003	-2.42874E-004	2.76054E-002	2.40860E-002	-1.23114E-003	-1.75962E-003	3.19289E-002	-2.02332E-003
	29	29	1.10020E+000	4.57462E-002	0.00000E+000	5.03300E-002	4.55891E-001	4.29054E-002	5.02506E+001	11	...........	7.15924E-002	-5.48819E-003	6.03833E-001	5.26930E-001	-2.69032E-002	-3.84944E-002	6.98611E-001	-4.42336E-002	3.27508E-003	-2.51064E-004	2.76231E-002	2.41051E-002	-1.23072E-003	-1.76098E-003	3.19588E-002	-2.02352E-003
	30	30	1.10025E+000	4.52457E-002	0.00000E+000	4.97817E-002	4.50915E-001	4.28677E-002	5.02964E+001	11	...........	7.15614E-002	-5.29319E-003	6.03874E-001	5.26983E-001	-2.69368E-002	-3.84832E-002	6.98664E-001	-4.42533E-002	3.23784E-003	-2.39494E-004	2.73227E-002	2.38437E-002	-1.21877E-003	-1.74120E-003	3.16115E-002	-2.00227E-003
	31	31	1.10013E+000	4.53345E-002	0.00000E+000	4.98740E-002	4.51799E-001	4.28693E-002	5.02671E+001	11	...........	7.15742E-002	-5.46403E-003	6.03997E-001	5.26966E-001	-2.69799E-002	-3.84850E-002	6.98693E-001	-4.41297E-002	3.24478E-003	-2.47709E-004	2.73819E-002	2.38898E-002	-1.22312E-003	-1.74470E-003	3.16749E-002	-2.00060E-003
	32	32	1.10020E+000	4.53906E-002	0.00000E+000	4.99387E-002	4.52358E-001	4.28180E-002	5.02570E+001	11	...........	7.14821E-002	-5.39750E-003	6.03850E-001	5.26985E-001	-2.69625E-002	-3.85392E-002	6.98591E-001	-4.41461E-002	3.24462E-003	-2.44996E-004	2.74091E-002	2.39202E-002	-1.22384E-003	-1.74932E-003	3.17095E-002	-2.00382E-003
	33	33	1.10026E+000	4.48746E-002	0.00000E+000	4.93736E-002	4.47227E-001	4.27671E-002	5.02032E+001	11	...........	7.13826E-002	-5.40931E-003	6.03714E-001	5.27044E-001	-2.69729E-002	-3.86007E-002	6.98634E-001	-4.42015E-002	3.20327E-003	-2.42740E-004	2.70914E-002	2.36509E-002	-1.21040E-003	-1.73219E-003	3.13509E-002	-1.98353E-003
	34	34	1.10013E+000	4.49687E-002	0.00000E+000	4.94715E-002	4.48163E-001	4.27187E-002	5.01909E+001	11	...........	7.12999E-002	-5.29000E-003	6.03527E-001	5.27130E-001	-2.69201E-002	-3.85862E-002	6.98703E-001	-4.42403E-002	3.20626E-003	-2.37885E-004	2.71398E-002	2.37043E-002	-1.21056E-003	-1.73517E-003	3.14198E-002	-1.98943E-003
	35	35	1.10020E+000	4.49796E-002	0.00000E+000	4.94864E-002	4.48269E-001	4.26988E-002	4.95374E+001	11	...........	7.12889E-002	-5.23833E-003	6.03444E-001	5.27069E-001	-2.69497E-002	-3.85556E-002	6.98741E-001	-4.42599E-002	3.20655E-003	-2.35618E-004	2.71427E-002	2.37073E-002	-1.21219E-003	-1.73421E-003	3.14291E-002	-1.99079E-003
	36	36	1.10026E+000	4.45074E-002	0.00000E+000	4.89697E-002	4.43577E-001	4.26104E-002	4.98610E+001	11	...........	7.11347E-002	-5.33417E-003	6.03392E-001	5.27178E-001	-2.69743E-002	-3.85572E-002	6.98664E-001	-4.42932E-002	3.16602E-003	-2.37410E-004	2.68554E-002	2.34633E-002	-1.20056E-003	-1.71608E-003	3.10957E-002	-1.97137E-003
	37	37	1.10013E+000	4.45610E-002	0.00000E+000	4.90230E-002	4.44109E-001	4.26912E-002	5.00927E+001	11	...........	7.12708E-002	-5.34458E-003	6.03312E-001	5.26958E-001	-2.69737E-002	-3.85832E-002	6.98530E-001	-4.41794E-002	3.17590E-003	-2.38160E-004	2.68842E-002	2.34818E-002	-1.20198E-003	-1.71931E-003	3.11272E-002	-1.96868E-003
	38	38	1.10019E+000	4.46297E-002	0.00000E+000	4.91012E-002	4.44788E-001	4.26685E-002	5.00642E+001	11	...........	7.12140E-002	-5.39764E-003	6.03298E-001	5.26830E-001	-2.69564E-002	-3.85764E-002	6.98693E-001	-4.42581E-002	3.17826E-003	-2.40895E-004	2.69250E-002	2.35123E-002	-1.20306E-003	-1.72165E-003	3.11825E-002	-1.97522E-003
	39	39	1.10026E+000	4.41663E-002	0.00000E+000	4.85945E-002	4.40183E-001	4.26416E-002	5.00870E+001	11	...........	7.11917E-002	-5.30764E-003	6.03209E-001	5.26588E-001	-2.69710E-002	-3.85165E-002	6.98713E-001	-4.43097E-002	3.14427E-003	-2.34419E-004	2.66415E-002	2.32574E-002	-1.19121E-003	-1.70113E-003	3.08596E-002	-1.95699E-003
	40	40	1.10013E+000	4.41882E-002	0.00000E+000	4.86128E-002	4.40402E-001	4.25918E-002	4.81106E+001	11	...........	7.11024E-002	-5.39722E-003	6.03122E-001	5.26485E-001	-2.69514E-002	-3.85114E-002	6.98611E-001	-4.43207E-002	3.14188E-003	-2.38493E-004	2.66509E-002	2.32644E-002	-1.19093E-003	-1.70175E-003	3.08704E-002	-1.95845E-003
	41	41	1.10019E+000	4.42197E-002	0.00000E+000	4.86500E-002	4.40715E-001	4.23287E-002	4.95990E+001	11	...........	7.06576E-002	-5.26014E-003	6.03127E-001	5.26517E-001	-2.69178E-002	-3.85454E-002	6.98632E-001	-4.40710E-002	3.12446E-003	-2.32602E-004	2.66701E-002	2.32825E-002	-1.19030E-003	-1.70447E-003	3.08933E-002	-1.94881E-003
	42	42	1.10027E+000	4.38377E-002	0.00000E+000	4.82332E-002	4.36914E-001	4.26024E-002	5.01030E+001	11	...........	7.11251E-002	-5.22681E-003	6.03179E-001	5.26668E-001	-2.69268E-002	-3.85164E-002	6.98742E-001	-4.41797E-002	3.11796E-003	-2.29131E-004	2.64420E-002	2.30879E-002	-1.18041E-003	-1.68847E-003	3.06312E-002	-1.93674E-003
	43	43	1.10013E+000	4.38557E-002	0.00000E+000	4.82469E-002	4.37097E-001	4.24336E-002	5.01325E+001	11	...........	7.08493E-002	-5.31944E-003	6.03166E-001	5.26701E-001	-2.69639E-002	-3.84983E-002	6.98586E-001	-4.41333E-002	3.10714E-003	-2.33288E-004	2.64523E-002	2.30988E-002	-1.18252E-003	-1.68837E-003	3.06370E-002	-1.93550E-003
	44	44	1.10019E+000	4.39436E-002	0.00000E+000	4.83462E-002	4.37970E-001	4.23989E-002	5.01289E+001	11	...........	7.07686E-002	-5.22597E-003	6.03081E-001	5.26539E-001	-2.69536E-002	-3.85260E-002	6.98614E-001	-4.40957E-002	3.10983E-003	-2.29648E-004	2.65016E-002	2.31380E-002	-1.18444E-003	-1.69297E-003	3.06996E-002	-1.93772E-003
	45	45	1.10027E+000	4.35028E-002	0.00000E+000	4.78648E-002	4.33585E-001	4.23977E-002	5.01882E+001	11	...........	7.07585E-002	-5.08556E-003	6.02996E-001	5.26540E-001	-2.69551E-002	-3.85743E-002	6.98720E-001	-4.41315E-002	3.07819E-003	-2.21236E-004	2.62320E-002	2.29060E-002	-1.17262E-003	-1.67809E-003	3.03963E-002	-1.91984E-003
	46	46	1.10013E+000	4.34908E-002	0.00000E+000	4.78455E-002	4.33466E-001	4.23843E-002	5.01536E+001	11	...........	7.07294E-002	-5.24931E-003	6.02970E-001	5.26448E-001	-2.69517E-002	-3.85297E-002	6.98782E-001	-4.42699E-002	3.07608E-003	-2.28296E-004	2.62236E-002	2.28956E-002	-1.17215E-003	-1.67569E-003	3.03906E-002	-1.92533E-003
	47	47	1.10019E+000	4.35449E-002	0.00000E+000	4.79075E-002	4.34000E-001	4.23498E-002	5.01453E+001	11	...........	7.06638E-002	-5.25944E-003	6.03060E-001	5.26331E-001	-2.69582E-002	-3.84989E-002	6.98785E-001	-4.42674E-002	3.07705E-003	-2.29022E-004	2.62602E-002	2.29190E-002	-1.17389E-003	-1.67643E-003	3.04285E-002	-1.92762E-003
	48	48	1.10027E+000	4.31578E-002	0.00000E+000	4.74852E-002	4.30150E-001	4.22818E-002	5.01622E+001	11	...........	7.05649E-002	-5.25472E-003	6.03070E-001	5.26313E-001	-2.69833E-002	-3.85178E-002	6.98692E-001	-4.41406E-002	3.04542E-003	-2.26782E-004	2.60272E-002	2.27145E-002	-1.16454E-003	-1.66234E-003	3.01540E-002	-1.90501E-003
	49	49	1.10013E+000	4.31405E-002	0.00000E+000	4.74602E-002	4.29979E-001	4.22530E-002	5.01460E+001	11	...........	7.05274E-002	-5.47792E-003	6.03076E-001	5.26343E-001	-2.69579E-002	-3.85082E-002	6.98712E-001	-4.42232E-002	3.04258E-003	-2.36320E-004	2.60170E-002	2.27067E-002	-1.16298E-003	-1.66126E-003	3.01427E-002	-1.90781E-003
	50	50	1.10018E+000	4.32354E-002	0.00000E+000	4.75668E-002	4.30922E-001	4.22447E-002	5.01694E+001	11	...........	7.05190E-002	-5.38819E-003	6.03019E-001	5.26349E-001	-2.69747E-002	-3.84704E-002	6.98598E-001	-4.42685E-002	3.04892E-003	-2.32961E-004	2.60717E-002	2.27569E-002	-1.16626E-003	-1.66328E-003	3.02042E-002	-1.91396E-003
	51	51	1.10027E+000	4.28120E-002	0.00000E+000	4.71048E-002	4.26710E-001	4.22013E-002	5.01959E+001	11	...........	7.04286E-002	-5.16458E-003	6.03006E-001	5.26319E-001	-2.69519E-002	-3.85071E-002	6.98700E-001	-4.41493E-002	3.01519E-003	-2.21106E-004	2.58159E-002	2.25328E-002	-1.15387E-003	-1.64856E-003	2.99127E-002	-1.89012E-003
	52	52	1.10013E+000	4.27834E-002	0.00000E+000	4.70673E-002	4.26430E-001	4.21633E-002	5.01524E+001	11	...........	7.03815E-002	-5.16222E-003	6.03056E-001	5.26328E-001	-2.69437E-002	-3.85183E-002	6.98841E-001	-4.40385E-002	3.01116E-003	-2.20858E-004	2.58008E-002	2.25181E-002	-1.15275E-003	-1.64795E-003	2.98988E-002	-1.88412E-003
	53	53	1.10018E+000	4.29013E-002	0.00000E+000	4.71993E-002	4.27604E-001	4.21428E-002	5.01801E+001	11	...........	7.03433E-002	-5.27639E-003	6.03042E-001	5.26342E-001	-2.69174E-002	-3.84908E-002	6.98938E-001	-4.42722E-002	3.01782E-003	-2.26364E-004	2.58713E-002	2.25808E-002	-1.15479E-003	-1.65131E-003	2.99853E-002	-1.89933E-003
	54	54	1.10027E+000	4.24814E-002	0.00000E+000	4.67411E-002	4.23427E-001	4.21207E-002	5.02179E+001	11	...........	7.02972E-002	-5.45347E-003	6.02963E-001	5.26321E-001	-2.68956E-002	-3.84971E-002	6.98745E-001	-4.42531E-002	2.98633E-003	-2.31671E-004	2.56147E-002	2.23589E-002	-1.14256E-003	-1.63541E-003	2.96837E-002	-1.87993E-003
	55	55	1.10013E+000	4.24278E-002	0.00000E+000	4.66761E-002	4.22893E-001	4.20767E-002	5.01953E+001	11	...........	7.02285E-002	-5.40111E-003	6.02945E-001	5.26317E-001	-2.68994E-002	-3.85339E-002	6.98670E-001	-4.41728E-002	2.97964E-003	-2.29157E-004	2.55816E-002	2.23304E-002	-1.14128E-003	-1.63491E-003	2.96430E-002	-1.87415E-003
	56	56	1.10018E+000	4.25343E-002	0.00000E+000	4.67955E-002	4.23954E-001	4.20753E-002	5.01988E+001	11	...........	7.02233E-002	-5.42819E-003	6.02785E-001	5.26269E-001	-2.68997E-002	-3.85222E-002	6.98580E-001	-4.39253E-002	2.98690E-003	-2.30885E-004	2.56390E-002	2.23845E-002	-1.14416E-003	-1.63852E-003	2.97136E-002	-1.86833E-003
	57	57	1.10027E+000	4.20934E-002	0.00000E+000	4.63143E-002	4.19575E-001	4.20367E-002	5.01054E+001	11	...........	7.01650E-002	-5.30417E-003	6.03027E-001	5.26258E-001	-2.69375E-002	-3.85026E-002	6.98676E-001	-4.40428E-002	2.95349E-003	-2.23271E-004	2.53835E-002	2.21520E-002	-1.13389E-003	-1.62071E-003	2.94097E-002	-1.85391E-003
	58	58	1.10013E+000	4.21004E-002	0.00000E+000	4.63159E-002	4.19639E-001	4.19763E-002	5.00653E+001	11	...........	7.00785E-002	-5.34944E-003	6.03121E-001	5.26163E-001	-2.69319E-002	-3.84849E-002	6.98789E-001	-4.40178E-002	2.95033E-003	-2.25214E-004	2.53916E-002	2.21517E-002	-1.13384E-003	-1.62023E-003	2.94193E-002	-1.85316E-003
	59	59	1.10018E+000	4.21781E-002	0.00000E+000	4.64034E-002	4.20414E-001	4.19667E-002	5.01026E+001	11	...........	7.00753E-002	-5.32083E-003	6.03157E-001	5.26112E-001	-2.69128E-002	-3.85024E-002	6.98749E-001	-4.42018E-002	2.95564E-003	-2.24422E-004	2.54400E-002	2.21904E-002	-1.13513E-003	-1.62395E-003	2.94719E-002	-1.86435E-003
	60	60	1.10028E+000	4.17734E-002	0.00000E+000	4.59622E-002	4.16388E-001	4.19377E-002	5.01143E+001	11	...........	7.00037E-002	-5.21403E-003	6.03157E-001	5.26277E-001	-2.69187E-002	-3.84947E-002	6.98735E-001	-4.40828E-002	2.92429E-003	-2.17808E-004	2.51959E-002	2.19844E-002	-1.12449E-003	-1.60806E-003	2.91886E-002	-1.84149E-003
	61	61	1.10013E+000	4.17017E-002	0.00000E+000	4.58773E-002	4.15670E-001	4.19074E-002	5.01637E+001	11	...........	6.99487E-002	-5.11792E-003	6.03096E-001	5.26268E-001	-2.69451E-002	-3.84796E-002	6.98763E-001	-4.40294E-002	2.91698E-003	-2.13426E-004	2.51501E-002	2.19463E-002	-1.12366E-003	-1.60466E-003	2.91396E-002	-1.83610E-003
	62	62	1.10018E+000	4.18483E-002	0.00000E+000	4.60405E-002	4.17130E-001	4.19028E-002	4.96716E+001	11	...........	6.99312E-002	-5.26222E-003	6.02944E-001	5.26285E-001	-2.69553E-002	-3.84722E-002	6.98802E-001	-4.41557E-002	2.92650E-003	-2.20215E-004	2.52322E-002	2.20241E-002	-1.12803E-003	-1.61000E-003	2.92437E-002	-1.84784E-003
	63	63	1.10027E+000	4.14232E-002	0.00000E+000	4.55769E-002	4.12910E-001	4.17419E-002	4.88086E+001	11	...........	6.96729E-002	-5.17625E-003	6.02981E-001	5.26318E-001	-2.69453E-002	-3.85165E-002	6.98675E-001	-4.42843E-002	2.88608E-003	-2.14417E-004	2.49774E-002	2.18018E-002	-1.11616E-003	-1.59548E-003	2.89414E-002	-1.83440E-003
	64	64	1.10013E+000	4.14081E-002	0.00000E+000	4.55544E-002	4.12758E-001	4.18464E-002	4.99276E+001	11	...........	6.98511E-002	-5.17375E-003	6.02953E-001	5.26375E-001	-2.69446E-002	-3.85562E-002	6.98707E-001	-4.42174E-002	2.89240E-003	-2.14235E-004	2.49672E-002	2.17962E-002	-1.11572E-003	-1.59654E-003	2.89322E-002	-1.83096E-003
	65	65	1.10018E+000	4.15727E-002	0.00000E+000	4.57373E-002	4.14393E-001	4.17377E-002	5.01443E+001	11	...........	6.96574E-002	-5.36139E-003	6.03051E-001	5.26388E-001	-2.69108E-002	-3.85726E-002	6.98755E-001	-4.42406E-002	2.89584E-003	-2.22887E-004	2.50704E-002	2.18833E-002	-1.11876E-003	-1.60357E-003	2.90491E-002	-1.83920E-003
	66	66	1.10027E+000	4.12407E-002	0.00000E+000	4.53760E-002	4.11091E-001	4.17327E-002	5.00929E+001	11	...........	6.96676E-002	-5.31819E-003	6.03162E-001	5.26333E-001	-2.69367E-002	-3.85335E-002	6.98733E-001	-4.40957E-002	2.87314E-003	-2.19326E-004	2.48748E-002	2.17063E-002	-1.11089E-003	-1.58915E-003	2.88162E-002	-1.81854E-003
	67	67	1.10013E+000	4.11462E-002	0.00000E+000	4.52663E-002	4.10153E-001	4.16712E-002	5.00902E+001	11	...........	6.95801E-002	-5.22736E-003	6.03083E-001	5.26381E-001	-2.69029E-002	-3.85075E-002	6.98715E-001	-4.40394E-002	2.86296E-003	-2.15086E-004	2.48145E-002	2.16586E-002	-1.10695E-003	-1.58444E-003	2.87494E-002	-1.81205E-003
	68	68	1.10017E+000	4.12858E-002	0.00000E+000	4.54216E-002	4.11541E-001	4.16702E-002	5.01415E+001	11	...........	6.95736E-002	-5.19347E-003	6.02986E-001	5.26368E-001	-2.68976E-002	-3.85582E-002	6.98569E-001	-4.41642E-002	2.87240E-003	-2.14417E-004	2.48948E-002	2.17315E-002	-1.11049E-003	-1.59191E-003	2.88410E-002	-1.82335E-003
	69	69	1.10027E+000	4.09736E-002	0.00000E+000	4.50822E-002	4.08438E-001	4.16183E-002	5.01577E+001	11	...........	6.95006E-002	-5.26708E-003	6.03153E-001	5.26316E-001	-2.69254E-002	-3.85639E-002	6.98597E-001	-4.42044E-002	2.84769E-003	-2.15811E-004	2.47134E-002	2.15651E-002	-1.10323E-003	-1.58010E-003	2.86241E-002	-1.81122E-003
	70	70	1.10014E+000	4.08154E-002	0.00000E+000	4.49025E-002	4.06860E-001	4.16263E-002	5.01176E+001	11	...........	6.95000E-002	-5.25111E-003	6.03204E-001	5.26437E-001	-2.68879E-002	-3.85278E-002	6.98617E-001	-4.42289E-002	2.83667E-003	-2.14326E-004	2.46200E-002	2.14867E-002	-1.09744E-003	-1.57253E-003	2.85143E-002	-1.80522E-003
	71	71	1.10017E+000	4.09614E-002	0.00000E+000	4.50647E-002	4.08311E-001	4.15885E-002	5.01401E+001	11	...........	6.94232E-002	-5.29681E-003	6.03253E-001	5.26651E-001	-2.69101E-002	-3.85006E-002	6.98658E-001	-4.41808E-002	2.84367E-003	-2.16965E-004	2.47101E-002	2.15724E-002	-1.10228E-003	-1.57704E-003	2.86180E-002	-1.80971E-003
	72	72	1.10027E+000	4.06494E-002	0.00000E+000	4.47254E-002	4.05215E-001	4.15796E-002	5.00672E+001	11	...........	6.94043E-002	-5.45139E-003	6.03063E-001	5.26603E-001	-2.69129E-002	-3.84706E-002	6.98704E-001	-4.41457E-002	2.82124E-003	-2.21596E-004	2.45142E-002	2.14061E-002	-1.09399E-003	-1.56380E-003	2.84019E-002	-1.79450E-003
	73	73	1.10014E+000	4.04827E-002	0.00000E+000	4.45366E-002	4.03556E-001	4.14858E-002	5.00970E+001	11	...........	6.92343E-002	-5.23694E-003	6.03146E-001	5.26465E-001	-2.69206E-002	-3.84644E-002	6.98790E-001	-4.40989E-002	2.80279E-003	-2.12006E-004	2.44170E-002	2.13127E-002	-1.08982E-003	-1.55714E-003	2.82889E-002	-1.78524E-003
	74	74	1.10017E+000	4.06327E-002	0.00000E+000	4.47030E-002	4.05048E-001	4.15387E-002	5.00157E+001	11	...........	6.93103E-002	-5.22486E-003	6.03117E-001	5.26566E-001	-2.68626E-002	-3.84867E-002	6.98678E-001	-4.40921E-002	2.81626E-003	-2.12300E-004	2.45063E-002	2.13958E-002	-1.09150E-003	-1.56382E-003	2.83892E-002	-1.79158E-003
	75	75	1.10027E+000	4.02690E-002	0.00000E+000	4.43068E-002	4.01434E-001	4.13435E-002	4.74654E+001	11	...........	6.89997E-002	-5.33694E-003	6.03196E-001	5.26527E-001	-2.68735E-002	-3.85014E-002	6.98643E-001	-4.41899E-002	2.77855E-003	-2.14913E-004	2.42901E-002	2.12027E-002	-1.08217E-003	-1.55041E-003	2.81337E-002	-1.77948E-003
	76	76	1.10014E+000	4.02089E-002	0.00000E+000	4.42354E-002	4.00837E-001	4.14260E-002	4.93317E+001	11	...........	6.91317E-002	-5.36292E-003	6.03262E-001	5.26592E-001	-2.69087E-002	-3.84971E-002	6.98689E-001	-4.42933E-002	2.77971E-003	-2.15637E-004	2.42565E-002	2.11737E-002	-1.08197E-003	-1.54792E-003	2.80935E-002	-1.78098E-003
	77	77	1.10017E+000	4.03648E-002	0.00000E+000	4.44081E-002	4.02384E-001	4.14508E-002	4.97948E+001	11	...........	6.91755E-002	-5.42056E-003	6.03420E-001	5.26695E-001	-2.69006E-002	-3.84687E-002	6.98817E-001	-4.42504E-002	2.79226E-003	-2.18799E-004	2.43569E-002	2.12599E-002	-1.08583E-003	-1.55278E-003	2.82076E-002	-1.78616E-003
	78	78	1.10027E+000	4.00552E-002	0.00000E+000	4.40716E-002	3.99305E-001	4.14885E-002	4.98639E+001	11	...........	6.92468E-002	-5.31375E-003	6.03352E-001	5.26710E-001	-2.69118E-002	-3.84646E-002	6.98814E-001	-4.40297E-002	2.77370E-003	-2.12844E-004	2.41674E-002	2.10975E-002	-1.07796E-003	-1.54071E-003	2.79911E-002	-1.76362E-003
	79	79	1.10014E+000	3.98923E-002	0.00000E+000	4.38872E-002	3.97683E-001	4.14259E-002	4.98743E+001	11	...........	6.91464E-002	-5.28625E-003	6.03304E-001	5.26785E-001	-2.69251E-002	-3.84389E-002	6.98632E-001	-4.41415E-002	2.75841E-003	-2.10881E-004	2.40672E-002	2.10146E-002	-1.07411E-003	-1.53341E-003	2.78700E-002	-1.76091E-003
	80	80	1.10017E+000	4.00445E-002	0.00000E+000	4.40558E-002	3.99199E-001	4.14003E-002	4.98540E+001	11	...........	6.91160E-002	-5.27236E-003	6.03380E-001	5.26757E-001	-2.69483E-002	-3.84425E-002	6.98729E-001	-4.41318E-002	2.76771E-003	-2.11129E-004	2.41620E-002	2.10937E-002	-1.07913E-003	-1.53941E-003	2.79803E-002	-1.76724E-003
	81	81	1.10027E+000	3.97659E-002	0.00000E+000	4.37531E-002	3.96426E-001	4.13742E-002	4.99107E+001	11	...........	6.90565E-002	-5.37806E-003	6.03352E-001	5.26664E-001	-2.69599E-002	-3.84271E-002	6.98741E-001	-4.41329E-002	2.74609E-003	-2.13863E-004	2.39928E-002	2.09432E-002	-1.07208E-003	-1.52809E-003	2.77860E-002	-1.75498E-003
	82	82	1.10015E+000	3.95694E-002	0.00000E+000	4.35321E-002	3.94475E-001	4.13454E-002	4.98831E+001	11	...........	6.90021E-002	-5.36819E-003	6.03258E-001	5.26752E-001	-2.69569E-002	-3.84531E-002	6.98676E-001	-4.41211E-002	2.73037E-003	-2.12416E-004	2.38706E-002	2.08432E-002	-1.06667E-003	-1.52156E-003	2.76462E-002	-1.74584E-003
	83	83	1.10017E+000	3.97333E-002	0.00000E+000	4.37133E-002	3.96102E-001	4.13372E-002	4.99486E+001	11	...........	6.89925E-002	-5.31389E-003	6.03281E-001	5.26854E-001	-2.69285E-002	-3.84489E-002	6.98748E-001	-4.41211E-002	2.74130E-003	-2.11138E-004	2.39704E-002	2.09336E-002	-1.06996E-003	-1.52770E-003	2.77636E-002	-1.75308E-003
	84	84	1.10027E+000	3.94616E-002	0.00000E+000	4.34183E-002	3.93399E-001	4.12787E-002	4.99487E+001	11	...........	6.89126E-002	-5.25181E-003	6.03303E-001	5.26754E-001	-2.69700E-002	-3.84356E-002	6.98887E-001	-4.41081E-002	2.71940E-003	-2.07245E-004	2.38073E-002	2.07865E-002	-1.06428E-003	-1.51673E-003	2.75792E-002	-1.74057E-003
	85	85	1.10015E+000	3.92576E-002	0.00000E+000	4.31892E-002	3.91373E-001	4.12692E-002	4.98921E+001	11	...........	6.88868E-002	-5.31153E-003	6.03425E-001	5.26827E-001	-2.69369E-002	-3.84183E-002	6.98832E-001	-4.42428E-002	2.70433E-003	-2.08518E-004	2.36890E-002	2.06820E-002	-1.05748E-003	-1.50821E-003	2.74345E-002	-1.73686E-003
	86	86	1.10017E+000	3.94296E-002	0.00000E+000	4.33793E-002	3.93089E-001	4.12550E-002	4.99659E+001	11	...........	6.88700E-002	-5.36347E-003	6.03511E-001	5.26885E-001	-2.69157E-002	-3.83765E-002	6.98677E-001	-4.41671E-002	2.71552E-003	-2.11480E-004	2.37962E-002	2.07749E-002	-1.06128E-003	-1.51317E-003	2.75486E-002	-1.74149E-003
	87	87	1.10026E+000	3.91942E-002	0.00000E+000	4.31240E-002	3.90749E-001	4.12613E-002	4.95167E+001	11	...........	6.88512E-002	-5.34389E-003	6.03405E-001	5.26978E-001	-2.69329E-002	-3.83604E-002	6.98884E-001	-4.42015E-002	2.69857E-003	-2.09449E-004	2.36500E-002	2.06545E-002	-1.05561E-003	-1.50351E-003	2.73922E-002	-1.73244E-003
	88	88	1.10015E+000	3.88771E-002	0.00000E+000	4.27708E-002	3.87595E-001	4.11103E-002	4.85333E+001	11	...........	6.86081E-002	-5.21806E-003	6.03448E-001	5.27109E-001	-2.69328E-002	-3.83912E-002	6.99004E-001	-4.41087E-002	2.66728E-003	-2.02863E-004	2.34603E-002	2.04925E-002	-1.04707E-003	-1.49254E-003	2.71753E-002	-1.71482E-003
	89	89	1.10017E+000	3.91228E-002	0.00000E+000	4.30415E-002	3.90038E-001	4.11591E-002	4.95773E+001	11	...........	6.86990E-002	-5.42014E-003	6.03397E-001	5.27192E-001	-2.69208E-002	-3.84056E-002	6.98910E-001	-4.41481E-002	2.68770E-003	-2.12051E-004	2.36066E-002	2.06252E-002	-1.05322E-003	-1.50253E-003	2.73433E-002	-1.72719E-003
	90	90	1.10026E+000	3.88921E-002	0.00000E+000	4.27915E-002	3.87744E-001	4.11425E-002	4.98305E+001	11	...........	6.86936E-002	-5.34611E-003	6.03396E-001	5.27383E-001	-2.69133E-002	-3.84022E-002	6.98984E-001	-4.41874E-002	2.67164E-003	-2.07921E-004	2.34673E-002	2.05110E-002	-1.04671E-003	-1.49354E-003	2.71849E-002	-1.71854E-003
	91	91	1.10016E+000	3.86428E-002	0.00000E+000	4.25131E-002	3.85263E-001	4.11243E-002	4.98873E+001	11	...........	6.86386E-002	-5.33569E-003	6.03317E-001	5.27327E-001	-2.69156E-002	-3.84065E-002	6.98897E-001	-4.42110E-002	2.65239E-003	-2.06186E-004	2.33138E-002	2.03774E-002	-1.04009E-003	-1.48414E-003	2.70073E-002	-1.70843E-003
	92	92	1.10017E+000	3.88338E-002	0.00000E+000	4.27237E-002	3.87162E-001	4.11289E-002	4.99170E+001	11	...........	6.86644E-002	-5.27917E-003	6.03312E-001	5.27267E-001	-2.69221E-002	-3.84151E-002	6.98888E-001	-4.40729E-002	2.66650E-003	-2.05010E-004	2.34289E-002	2.04758E-002	-1.04549E-003	-1.49181E-003	2.71405E-002	-1.71152E-003
	93	93	1.10026E+000	3.86292E-002	0.00000E+000	4.25022E-002	3.85128E-001	4.10280E-002	4.98700E+001	11	...........	6.84843E-002	-5.24250E-003	6.03223E-001	5.27101E-001	-2.68896E-002	-3.84118E-002	6.98907E-001	-4.41475E-002	2.64550E-003	-2.02514E-004	2.33020E-002	2.03615E-002	-1.03872E-003	-1.48382E-003	2.69982E-002	-1.70538E-003
	94	94	1.10016E+000	3.83455E-002	0.00000E+000	4.21862E-002	3.82304E-001	4.10309E-002	4.98419E+001	11	...........	6.85017E-002	-5.13875E-003	6.03151E-001	5.27046E-001	-2.69436E-002	-3.84051E-002	6.98883E-001	-4.40854E-002	2.62673E-003	-1.97048E-004	2.31281E-002	2.02099E-002	-1.03317E-003	-1.47267E-003	2.67990E-002	-1.69048E-003
	95	95	1.10017E+000	3.85307E-002	0.00000E+000	4.23901E-002	3.84146E-001	4.09640E-002	4.98230E+001	11	...........	6.83958E-002	-5.13194E-003	6.03222E-001	5.26996E-001	-2.69324E-002	-3.83946E-002	6.98821E-001	-4.40508E-002	2.63534E-003	-1.97737E-004	2.32425E-002	2.03055E-002	-1.03772E-003	-1.47937E-003	2.69260E-002	-1.69731E-003
	96	96	1.10026E+000	3.83700E-002	0.00000E+000	4.22169E-002	3.82549E-001	4.10132E-002	4.98797E+001	11	...........	6.84243E-002	-5.21694E-003	6.03219E-001	5.26978E-001	-2.69469E-002	-3.83957E-002	6.98840E-001	-4.41632E-002	2.62544E-003	-2.00174E-004	2.31455E-002	2.02201E-002	-1.03395E-003	-1.47324E-003	2.68145E-002	-1.69454E-003
	97	97	1.10016E+000	3.80377E-002	0.00000E+000	4.18476E-002	3.79245E-001	4.09620E-002	4.98766E+001	11	...........	6.83476E-002	-5.29250E-003	6.03258E-001	5.26938E-001	-2.69237E-002	-3.83953E-002	6.98921E-001	-4.41869E-002	2.59979E-003	-2.01314E-004	2.29466E-002	2.00435E-002	-1.02412E-003	-1.46047E-003	2.65853E-002	-1.68077E-003
	98	98	1.10017E+000	3.82434E-002	0.00000E+000	4.20741E-002	3.81291E-001	4.09458E-002	4.98498E+001	11	...........	6.83514E-002	-5.36389E-003	6.03335E-001	5.26867E-001	-2.69218E-002	-3.84317E-002	6.98907E-001	-4.42549E-002	2.61399E-003	-2.05133E-004	2.30736E-002	2.01492E-002	-1.02958E-003	-1.46976E-003	2.67286E-002	-1.69246E-003
	99	99	1.10026E+000	3.80649E-002	0.00000E+000	4.18812E-002	3.79519E-001	4.08803E-002	4.98292E+001	11	...........	6.82267E-002	-5.30000E-003	6.03425E-001	5.26726E-001	-2.69354E-002	-3.84479E-002	6.98840E-001	-4.42118E-002	2.59704E-003	-2.01744E-004	2.29693E-002	2.00498E-002	-1.02529E-003	-1.46352E-003	2.66013E-002	-1.68292E-003
	100	100	1.10016E+000	3.77660E-002	0.00000E+000	4.15488E-002	3.76546E-001	4.08812E-002	4.98881E+001	11	...........	6.82469E-002	-5.48153E-003	6.03702E-001	5.26867E-001	-2.69111E-002	-3.84508E-002	6.98741E-001	-4.43118E-002	2.57741E-003	-2.07015E-004	2.27994E-002	1.98976E-002	-1.01632E-003	-1.45213E-003	2.63887E-002	-1.67348E-003
	101	101	1.10017E+000	3.79305E-002	0.00000E+000	4.17298E-002	3.78184E-001	4.08284E-002	4.98658E+001	11	...........	6.81696E-002	-5.38917E-003	6.03706E-001	5.26985E-001	-2.69322E-002	-3.83993E-002	6.98655E-001	-4.41660E-002	2.58571E-003	-2.04414E-004	2.28989E-002	1.99888E-002	-1.02155E-003	-1.45651E-003	2.65003E-002	-1.67524E-003
	102	102	1.10025E+000	3.77829E-002	0.00000E+000	4.15708E-002	3.76717E-001	4.08443E-002	4.98762E+001	11	...........	6.81968E-002	-5.36472E-003	6.03642E-001	5.27166E-001	-2.69632E-002	-3.83915E-002	6.98792E-001	-4.41593E-002	2.57668E-003	-2.02695E-004	2.28074E-002	1.99179E-002	-1.01875E-003	-1.45054E-003	2.64024E-002	-1.66847E-003
	103	103	1.10017E+000	3.74841E-002	0.00000E+000	4.12387E-002	3.73740E-001	4.08054E-002	4.90178E+001	11	...........	6.80981E-002	-5.45250E-003	6.03507E-001	5.27082E-001	-2.69637E-002	-3.83944E-002	6.98851E-001	-4.41506E-002	2.55259E-003	-2.04382E-004	2.26219E-002	1.97572E-002	-1.01071E-003	-1.43918E-003	2.61958E-002	-1.65494E-003
	104	104	1.10016E+000	3.76784E-002	0.00000E+000	4.14523E-002	3.75674E-001	4.07587E-002	4.95032E+001	11	...........	6.80264E-002	-5.28250E-003	6.03314E-001	5.27046E-001	-2.69371E-002	-3.84090E-002	6.98717E-001	-4.40826E-002	2.56312E-003	-1.99036E-004	2.27319E-002	1.98582E-002	-1.01494E-003	-1.44719E-003	2.63265E-002	-1.66096E-003
	105	105	1.10025E+000	3.75257E-002	0.00000E+000	4.12877E-002	3.74157E-001	4.07434E-002	4.95045E+001	11	...........	6.80128E-002	-5.15847E-003	6.03302E-001	5.27017E-001	-2.69717E-002	-3.84310E-002	6.98758E-001	-4.41513E-002	2.55223E-003	-1.93575E-004	2.26393E-002	1.97767E-002	-1.01213E-003	-1.44215E-003	2.62214E-002	-1.65681E-003
	106	106	1.10017E+000	3.72333E-002	0.00000E+000	4.09629E-002	3.71246E-001	4.07266E-002	4.94849E+001	11	...........	6.79868E-002	-5.29333E-003	6.03303E-001	5.26852E-001	-2.69615E-002	-3.84614E-002	6.98677E-001	-4.41642E-002	2.53137E-003	-1.97088E-004	2.24630E-002	1.96164E-002	-1.00387E-003	-1.43204E-003	2.60141E-002	-1.64438E-003
	107	107	1.10016E+000	3.73847E-002	0.00000E+000	4.11293E-002	3.72754E-001	4.07214E-002	4.95014E+001	11	...........	6.79549E-002	-5.15153E-003	6.03218E-001	5.26946E-001	-2.69578E-002	-3.84207E-002	6.98786E-001	-4.41133E-002	2.54047E-003	-1.92588E-004	2.25511E-002	1.96997E-002	-1.00781E-003	-1.43635E-003	2.61239E-002	-1.64916E-003
	108	108	1.10025E+000	3.72376E-002	0.00000E+000	4.09707E-002	3.71291E-001	4.06618E-002	4.85197E+001	11	...........	6.78768E-002	-5.17694E-003	6.03203E-001	5.27011E-001	-2.69544E-002	-3.84144E-002	6.98737E-001	-4.41218E-002	2.52757E-003	-1.92777E-004	2.24618E-002	1.96246E-002	-1.00372E-003	-1.43046E-003	2.60193E-002	-1.64299E-003
	109	109	1.10017E+000	3.69303E-002	0.00000E+000	4.06296E-002	3.68237E-001	4.05206E-002	4.95614E+001	11	...........	6.76358E-002	-5.14903E-003	6.03302E-001	5.26831E-001	-2.69400E-002	-3.84099E-002	6.98731E-001	-4.41579E-002	2.49781E-003	-1.90155E-004	2.22801E-002	1.94560E-002	-9.94902E-004	-1.41849E-003	2.58043E-002	-1.63077E-003
	110	110	1.10016E+000	3.71201E-002	0.00000E+000	4.08382E-002	3.70123E-001	4.06286E-002	4.98850E+001	11	...........	6.78235E-002	-5.45875E-003	6.03225E-001	5.26502E-001	-2.69300E-002	-3.84268E-002	6.98718E-001	-4.41264E-002	2.51761E-003	-2.02629E-004	2.23918E-002	1.95438E-002	-9.99645E-004	-1.42641E-003	2.59365E-002	-1.63798E-003
	111	111	1.10025E+000	3.70000E-002	0.00000E+000	4.07092E-002	3.68930E-001	4.06098E-002	4.95048E+001	11	...........	6.77860E-002	-5.40819E-003	6.03176E-001	5.26575E-001	-2.69181E-002	-3.84415E-002	6.98711E-001	-4.40604E-002	2.50808E-003	-2.00103E-004	2.23175E-002	1.94832E-002	-9.95967E-004	-1.42234E-003	2.58523E-002	-1.63023E-003
	112	112	1.10017E+000	3.66631E-002	0.00000E+000	4.03358E-002	3.65580E-001	4.05117E-002	4.94284E+001	11	...........	6.76043E-002	-5.16361E-003	6.03221E-001	5.26559E-001	-2.69190E-002	-3.84369E-002	6.98616E-001	-4.41231E-002	2.47858E-003	-1.89314E-004	2.21160E-002	1.93053E-002	-9.86935E-004	-1.40922E-003	2.56134E-002	-1.61769E-003
	113	113	1.10016E+000	3.68584E-002	0.00000E+000	4.05503E-002	3.67521E-001	4.04933E-002	4.93603E+001	11	...........	6.75883E-002	-5.18083E-003	6.03335E-001	5.26596E-001	-2.69060E-002	-3.84029E-002	6.98726E-001	-4.41624E-002	2.49120E-003	-1.90957E-004	2.22380E-002	1.94095E-002	-9.91711E-004	-1.41547E-003	2.57539E-002	-1.62775E-003
	114	114	1.10025E+000	3.67109E-002	0.00000E+000	4.03911E-002	3.66059E-001	4.05836E-002	4.85068E+001	11	...........	6.77297E-002	-5.14208E-003	6.03272E-001	5.26681E-001	-2.69344E-002	-3.83729E-002	6.98764E-001	-4.41258E-002	2.48642E-003	-1.88771E-004	2.21467E-002	1.93349E-002	-9.88789E-004	-1.40871E-003	2.56523E-002	-1.61990E-003
	115	115	1.10018E+000	3.63475E-002	0.00000E+000	3.99886E-002	3.62443E-001	4.03897E-002	4.95647E+001	11	...........	6.74135E-002	-5.14569E-003	6.03217E-001	5.26675E-001	-2.69301E-002	-3.84037E-002	6.98758E-001	-4.42186E-002	2.45031E-003	-1.87033E-004	2.19254E-002	1.91433E-002	-9.78842E-004	-1.39588E-003	2.53981E-002	-1.60723E-003
	116	116	1.10016E+000	3.65856E-002	0.00000E+000	4.02501E-002	3.64811E-001	4.05940E-002	4.97763E+001	11	...........	6.77517E-002	-5.17500E-003	6.03316E-001	5.26501E-001	-2.69417E-002	-3.83876E-002	6.98804E-001	-4.41246E-002	2.47873E-003	-1.89330E-004	2.20726E-002	1.92623E-002	-9.85676E-004	-1.40443E-003	2.55661E-002	-1.61432E-003
	117	117	1.10024E+000	3.64779E-002	0.00000E+000	4.01345E-002	3.63739E-001	4.04771E-002	4.98315E+001	11	...........	6.75793E-002	-5.23194E-003	6.03154E-001	5.26752E-001	-2.69189E-002	-3.83636E-002	6.98971E-001	-4.40500E-002	2.46515E-003	-1.90850E-004	2.20018E-002	1.92148E-002	-9.81943E-004	-1.39942E-003	2.54970E-002	-1.60685E-003
	118	118	1.10018E+000	3.61236E-002	0.00000E+000	3.97424E-002	3.60220E-001	4.04549E-002	4.98242E+001	11	...........	6.75214E-002	-5.20778E-003	6.03156E-001	5.26843E-001	-2.69589E-002	-3.83243E-002	6.98735E-001	-4.40237E-002	2.43911E-003	-1.88123E-004	2.17881E-002	1.90314E-002	-9.73851E-004	-1.38441E-003	2.52408E-002	-1.59029E-003
	119	119	1.10016E+000	3.62757E-002	0.00000E+000	3.99091E-002	3.61728E-001	4.04164E-002	4.98447E+001	11	...........	6.74878E-002	-5.29278E-003	6.03135E-001	5.26810E-001	-2.69725E-002	-3.83151E-002	6.98660E-001	-4.40710E-002	2.44817E-003	-1.91999E-004	2.18791E-002	1.91104E-002	-9.78447E-004	-1.38991E-003	2.53444E-002	-1.59871E-003
	120	120	1.10024E+000	3.62237E-002	0.00000E+000	3.98548E-002	3.61213E-001	4.04323E-002	4.98531E+001	11	...........	6.74976E-002	-5.36264E-003	6.03159E-001	5.26748E-001	-2.69419E-002	-3.83249E-002	6.98741E-001	-4.41611E-002	2.44502E-003	-1.94255E-004	2.18487E-002	1.90808E-002	-9.75937E-004	-1.38827E-003	2.53110E-002	-1.59968E-003
	121	121	1.10018E+000	3.58595E-002	0.00000E+000	3.94521E-002	3.57592E-001	4.04286E-002	4.98368E+001	11	...........	6.74885E-002	-5.33056E-003	6.03168E-001	5.26864E-001	-2.69692E-002	-3.83515E-002	6.98756E-001	-4.40779E-002	2.42011E-003	-1.91151E-004	2.16293E-002	1.88931E-002	-9.67102E-004	-1.37527E-003	2.50571E-002	-1.58061E-003
	122	122	1.10016E+000	3.60121E-002	0.00000E+000	3.96191E-002	3.59106E-001	4.03615E-002	4.98753E+001	11	...........	6.73767E-002	-5.26528E-003	6.03125E-001	5.26975E-001	-2.69381E-002	-3.83440E-002	6.98759E-001	-4.38824E-002	2.42637E-003	-1.89614E-004	2.17198E-002	1.89775E-002	-9.70095E-004	-1.38085E-003	2.51638E-002	-1.58030E-003
	123	123	1.10024E+000	3.59497E-002	0.00000E+000	3.95533E-002	3.58487E-001	4.03384E-002	4.98331E+001	11	...........	6.73257E-002	-5.27486E-003	6.03007E-001	5.26935E-001	-2.69561E-002	-3.83353E-002	6.98743E-001	-4.40215E-002	2.42034E-003	-1.89630E-004	2.16779E-002	1.89432E-002	-9.69065E-004	-1.37814E-003	2.51196E-002	-1.58256E-003
	124	124	1.10019E+000	3.55485E-002	0.00000E+000	3.91099E-002	3.54498E-001	4.03309E-002	4.98956E+001	11	...........	6.73297E-002	-5.43778E-003	6.03008E-001	5.26946E-001	-2.69926E-002	-3.83372E-002	6.98719E-001	-4.41275E-002	2.39347E-003	-1.93305E-004	2.14360E-002	1.87321E-002	-9.59547E-004	-1.36283E-003	2.48384E-002	-1.56867E-003
	125	125	1.10016E+000	3.57447E-002	0.00000E+000	3.93249E-002	3.56448E-001	4.03102E-002	4.99133E+001	11	...........	6.73008E-002	-5.38528E-003	6.02998E-001	5.27074E-001	-2.69890E-002	-3.83383E-002	6.98783E-001	-4.40785E-002	2.40565E-003	-1.92495E-004	2.15540E-002	1.88401E-002	-9.64714E-004	-1.37039E-003	2.49778E-002	-1.57557E-003
	126	126	1.10024E+000	3.57043E-002	0.00000E+000	3.92831E-002	3.56048E-001	4.02533E-002	4.99131E+001	11	...........	6.71982E-002	-5.28569E-003	6.02954E-001	5.27133E-001	-2.70079E-002	-3.83221E-002	6.98882E-001	-4.41775E-002	2.39926E-003	-1.88722E-004	2.15280E-002	1.88209E-002	-9.64298E-004	-1.36826E-003	2.49531E-002	-1.57733E-003
	127	127	1.10019E+000	3.52993E-002	0.00000E+000	3.88359E-002	3.52016E-001	4.02483E-002	4.99424E+001	11	...........	6.71933E-002	-5.33139E-003	6.03158E-001	5.27138E-001	-2.70078E-002	-3.83197E-002	6.98936E-001	-4.42225E-002	2.37187E-003	-1.88194E-004	2.12910E-002	1.86076E-002	-9.53354E-004	-1.35266E-003	2.46719E-002	-1.56102E-003
	128	128	1.10016E+000	3.54712E-002	0.00000E+000	3.90239E-002	3.53728E-001	4.02101E-002	4.99125E+001	11	...........	6.71061E-002	-5.26333E-003	6.03188E-001	5.27184E-001	-2.69715E-002	-3.83237E-002	6.98890E-001	-4.41612E-002	2.38033E-003	-1.86697E-004	2.13958E-002	1.86998E-002	-9.56712E-004	-1.35939E-003	2.47905E-002	-1.56645E-003
	129	129	1.10023E+000	3.54204E-002	0.00000E+000	3.89707E-002	3.53225E-001	4.02119E-002	4.99430E+001	11	...........	6.71062E-002	-5.20167E-003	6.03322E-001	5.27149E-001	-2.69678E-002	-3.83637E-002	6.98782E-001	-4.41636E-002	2.37693E-003	-1.84245E-004	2.13699E-002	1.86718E-002	-9.55211E-004	-1.35886E-003	2.47512E-002	-1.56429E-003
	130	130	1.10020E+000	3.50321E-002	0.00000E+000	3.85421E-002	3.49360E-001	4.00999E-002	4.98746E+001	11	...........	6.69768E-002	-5.23639E-003	6.03267E-001	5.27086E-001	-2.69712E-002	-3.83650E-002	6.98782E-001	-4.42144E-002	2.34634E-003	-1.83442E-004	2.11337E-002	1.84649E-002	-9.44859E-004	-1.34401E-003	2.44798E-002	-1.54892E-003
	131	131	1.10016E+000	3.52369E-002	0.00000E+000	3.87661E-002	3.51396E-001	4.01504E-002	4.99098E+001	11	...........	6.69999E-002	-5.26236E-003	6.03373E-001	5.27181E-001	-2.69839E-002	-3.83854E-002	6.98829E-001	-4.41793E-002	2.36087E-003	-1.85429E-004	2.12610E-002	1.85762E-002	-9.50829E-004	-1.35258E-003	2.46246E-002	-1.55674E-003
	132	132	1.10023E+000	3.51791E-002	0.00000E+000	3.87051E-002	3.50823E-001	4.01303E-002	4.99660E+001	11	...........	6.69782E-002	-5.39944E-003	6.03378E-001	5.27060E-001	-2.69958E-002	-3.83800E-002	6.98787E-001	-4.41954E-002	2.35623E-003	-1.89947E-004	2.12263E-002	1.85415E-002	-9.49688E-004	-1.35017E-003	2.45827E-002	-1.55475E-003
	133	133	1.10020E+000	3.47982E-002	0.00000E+000	3.82849E-002	3.47038E-001	4.00945E-002	4.99286E+001	11	...........	6.69214E-002	-5.26917E-003	6.03321E-001	5.27079E-001	-2.69892E-002	-3.83843E-002	6.98696E-001	-4.43068E-002	2.32875E-003	-1.83358E-004	2.09945E-002	1.83414E-002	-9.39176E-004	-1.33571E-003	2.43134E-002	-1.54180E-003
	134	134	1.10016E+000	3.49602E-002	0.00000E+000	3.84617E-002	3.48645E-001	4.00567E-002	4.99175E+001	11	...........	6.68800E-002	-5.29722E-003	6.03278E-001	5.27040E-001	-2.69607E-002	-3.83740E-002	6.98767E-001	-4.42232E-002	2.33814E-003	-1.85192E-004	2.10907E-002	1.84254E-002	-9.42552E-004	-1.34156E-003	2.44290E-002	-1.54605E-003
	135	135	1.10023E+000	3.49489E-002	0.00000E+000	3.84518E-002	3.48533E-001	4.00262E-002	4.98923E+001	11	...........	6.68100E-002	-5.42708E-003	6.03326E-001	5.27060E-001	-2.69587E-002	-3.83826E-002	6.98825E-001	-4.41382E-002	2.33494E-003	-1.89671E-004	2.10856E-002	1.84202E-002	-9.42180E-004	-1.34143E-003	2.44232E-002	-1.54258E-003
	136	136	1.10020E+000	3.45519E-002	0.00000E+000	3.80141E-002	3.44586E-001	4.00179E-002	4.77294E+001	11	...........	6.68043E-002	-5.22917E-003	6.03366E-001	5.26993E-001	-2.69115E-002	-3.83826E-002	6.98769E-001	-4.41914E-002	2.30822E-003	-1.80678E-004	2.08474E-002	1.82086E-002	-9.29844E-004	-1.32619E-003	2.41438E-002	-1.52690E-003
	137	137	1.10015E+000	3.46686E-002	0.00000E+000	3.81409E-002	3.45748E-001	3.97937E-002	4.92615E+001	11	...........	6.64401E-002	-5.15431E-003	6.03298E-001	5.27085E-001	-2.69033E-002	-3.83762E-002	6.98775E-001	-4.41251E-002	2.30339E-003	-1.78693E-004	2.09155E-002	1.82733E-002	-9.32702E-004	-1.33045E-003	2.42256E-002	-1.52976E-003
	138	138	1.10022E+000	3.46878E-002	0.00000E+000	3.81643E-002	3.45943E-001	3.99853E-002	4.97346E+001	11	...........	6.67397E-002	-5.23083E-003	6.03304E-001	5.27238E-001	-2.68882E-002	-3.83814E-002	6.98936E-001	-4.41607E-002	2.31505E-003	-1.81446E-004	2.09273E-002	1.82887E-002	-9.32692E-004	-1.33136E-003	2.42445E-002	-1.53184E-003
	139	139	1.10020E+000	3.43093E-002	0.00000E+000	3.77472E-002	3.42182E-001	3.98900E-002	4.97956E+001	11	...........	6.65965E-002	-5.18569E-003	6.03415E-001	5.27282E-001	-2.68628E-002	-3.83887E-002	6.98927E-001	-4.42190E-002	2.28488E-003	-1.77917E-004	2.07027E-002	1.80907E-002	-9.21643E-004	-1.31709E-003	2.39797E-002	-1.51712E-003
	140	140	1.10016E+000	3.44534E-002	0.00000E+000	3.79042E-002	3.43610E-001	3.98825E-002	4.98061E+001	11	...........	6.65519E-002	-5.27431E-003	6.03472E-001	5.27207E-001	-2.68397E-002	-3.84135E-002	6.98829E-001	-4.40969E-002	2.29294E-003	-1.81718E-004	2.07917E-002	1.81641E-002	-9.24721E-004	-1.32348E-003	2.40771E-002	-1.51929E-003
	141	141	1.10022E+000	3.44302E-002	0.00000E+000	3.78808E-002	3.43379E-001	3.98588E-002	4.98241E+001	11	...........	6.65246E-002	-5.27569E-003	6.03444E-001	5.27207E-001	-2.68596E-002	-3.84129E-002	6.98779E-001	-4.39851E-002	2.29045E-003	-1.81643E-004	2.07767E-002	1.81519E-002	-9.24780E-004	-1.32256E-003	2.40591E-002	-1.51442E-003
	142	142	1.10021E+000	3.40107E-002	0.00000E+000	3.74189E-002	3.39210E-001	3.98455E-002	4.93900E+001	11	...........	6.65082E-002	-5.22931E-003	6.03505E-001	5.27155E-001	-2.68761E-002	-3.84186E-002	6.98767E-001	-4.39599E-002	2.26199E-003	-1.77853E-004	2.05256E-002	1.79289E-002	-9.14077E-004	-1.30665E-003	2.37656E-002	-1.49511E-003
	143	143	1.10016E+000	3.41588E-002	0.00000E+000	3.75800E-002	3.40685E-001	3.97560E-002	4.91980E+001	11	...........	6.63572E-002	-5.30653E-003	6.03659E-001	5.27034E-001	-2.68553E-002	-3.84050E-002	6.98975E-001	-4.38936E-002	2.26668E-003	-1.81265E-004	2.06203E-002	1.80029E-002	-9.17344E-004	-1.31187E-003	2.38762E-002	-1.49935E-003
	144	144	1.10022E+000	3.41674E-002	0.00000E+000	3.75916E-002	3.40770E-001	3.97752E-002	4.95764E+001	11	...........	6.63931E-002	-5.30014E-003	6.03676E-001	5.27032E-001	-2.68856E-002	-3.83962E-002	6.99047E-001	-4.39800E-002	2.26848E-003	-1.81092E-004	2.06260E-002	1.80073E-002	-9.18609E-004	-1.31190E-003	2.38846E-002	-1.50268E-003
	145	145	1.10021E+000	3.37710E-002	0.00000E+000	3.71552E-002	3.36827E-001	3.98574E-002	4.97113E+001	11	...........	6.65289E-002	-5.46708E-003	6.03819E-001	5.27016E-001	-2.68871E-002	-3.83892E-002	6.99016E-001	-4.40931E-002	2.24675E-003	-1.84629E-004	2.03916E-002	1.77979E-002	-9.08004E-004	-1.29644E-003	2.36065E-002	-1.48907E-003
	146	146	1.10015E+000	3.39349E-002	0.00000E+000	3.73336E-002	3.38451E-001	3.98393E-002	4.97791E+001	11	...........	6.65047E-002	-5.48139E-003	6.03807E-001	5.27055E-001	-2.68533E-002	-3.83742E-002	6.98980E-001	-4.40514E-002	2.25683E-003	-1.86010E-004	2.04901E-002	1.78856E-002	-9.11265E-004	-1.30222E-003	2.37198E-002	-1.49488E-003
	147	147	1.10022E+000	3.39304E-002	0.00000E+000	3.73308E-002	3.38408E-001	3.98062E-002	4.98145E+001	11	...........	6.64415E-002	-5.32639E-003	6.03905E-001	5.27101E-001	-2.69367E-002	-3.83917E-002	6.98881E-001	-4.41769E-002	2.25439E-003	-1.80726E-004	2.04907E-002	1.78847E-002	-9.13972E-004	-1.30264E-003	2.37133E-002	-1.49894E-003
	148	148	1.10021E+000	3.35225E-002	0.00000E+000	3.68820E-002	3.34354E-001	3.97268E-002	4.98198E+001	11	...........	6.63122E-002	-5.30819E-003	6.03689E-001	5.27239E-001	-2.68982E-002	-3.84311E-002	6.98890E-001	-4.42117E-002	2.22295E-003	-1.77944E-004	2.02372E-002	1.76744E-002	-9.01695E-004	-1.28831E-003	2.34285E-002	-1.48209E-003
	149	149	1.10015E+000	3.36822E-002	0.00000E+000	3.70556E-002	3.35944E-001	3.97805E-002	4.82377E+001	11	...........	6.63762E-002	-5.25556E-003	6.03703E-001	5.27438E-001	-2.69040E-002	-3.84592E-002	6.98914E-001	-4.41989E-002	2.23570E-003	-1.77019E-004	2.03340E-002	1.77653E-002	-9.06187E-004	-1.29539E-003	2.35410E-002	-1.48872E-003
	150	150	1.10021E+000	3.36237E-002	0.00000E+000	3.69933E-002	3.35362E-001	3.95319E-002	4.87666E+001	11	...........	6.59797E-002	-5.29722E-003	6.03608E-001	5.27460E-001	-2.68972E-002	-3.84418E-002	6.98858E-001	-4.42981E-002	2.21848E-003	-1.78112E-004	2.02955E-002	1.77351E-002	-9.04384E-004	-1.29256E-003	2.34982E-002	-1.48946E-003
	151	151	1.10022E+000	3.33122E-002	0.00000E+000	3.66507E-002	3.32264E-001	3.97932E-002	4.96650E+001	11	...........	6.64325E-002	-5.33611E-003	6.03646E-001	5.27431E-001	-2.69062E-002	-3.84632E-002	6.98956E-001	-4.42842E-002	2.21302E-003	-1.77758E-004	2.01088E-002	1.75699E-002	-8.96308E-004	-1.28130E-003	2.32838E-002	-1.47520E-003
	152	152	1.10015E+000	3.34308E-002	0.00000E+000	3.67789E-002	3.33444E-001	3.97080E-002	4.98446E+001	11	...........	6.62917E-002	-5.32236E-003	6.03481E-001	5.27444E-001	-2.69440E-002	-3.84772E-002	6.99051E-001	-4.42574E-002	2.21618E-003	-1.77931E-004	2.01748E-002	1.76329E-002	-9.00760E-004	-1.28632E-003	2.33698E-002	-1.47956E-003
	153	153	1.10021E+000	3.34435E-002	0.00000E+000	3.67949E-002	3.33575E-001	3.96837E-002	4.98241E+001	11	...........	6.62346E-002	-5.47417E-003	6.03422E-001	5.27516E-001	-2.69954E-002	-3.84607E-002	6.98989E-001	-4.41525E-002	2.21511E-003	-1.83075E-004	2.01805E-002	1.76419E-002	-9.02820E-004	-1.28626E-003	2.33766E-002	-1.47661E-003
	154	154	1.10022E+000	3.30523E-002	0.00000E+000	3.63649E-002	3.29682E-001	3.96522E-002	4.98229E+001	11	...........	6.61971E-002	-5.32542E-003	6.03186E-001	5.27596E-001	-2.70247E-002	-3.84421E-002	6.98917E-001	-4.42379E-002	2.18796E-003	-1.76017E-004	1.99367E-002	1.74382E-002	-8.93229E-004	-1.27060E-003	2.31008E-002	-1.46216E-003
	155	155	1.10015E+000	3.31997E-002	0.00000E+000	3.65246E-002	3.31147E-001	3.96119E-002	4.97520E+001	11	...........	6.61269E-002	-5.18097E-003	6.03080E-001	5.27608E-001	-2.70307E-002	-3.84594E-002	6.99012E-001	-4.41849E-002	2.19539E-003	-1.72007E-004	2.00221E-002	1.75164E-002	-8.97410E-004	-1.27684E-003	2.32070E-002	-1.46692E-003
	156	156	1.10021E+000	3.32255E-002	0.00000E+000	3.65550E-002	3.31405E-001	3.96506E-002	4.98105E+001	11	...........	6.61699E-002	-5.23111E-003	6.03159E-001	5.27532E-001	-2.70043E-002	-3.84708E-002	6.98988E-001	-4.41225E-002	2.19853E-003	-1.73806E-004	2.00403E-002	1.75275E-002	-8.97232E-004	-1.27821E-003	2.32242E-002	-1.46599E-003
	157	157	1.10023E+000	3.28244E-002	0.00000E+000	3.61142E-002	3.27417E-001	3.95737E-002	4.98443E+001	11	...........	6.60631E-002	-5.31903E-003	6.03214E-001	5.27427E-001	-2.69711E-002	-3.84547E-002	6.99057E-001	-4.42197E-002	2.16848E-003	-1.74594E-004	1.98001E-002	1.73125E-002	-8.85310E-004	-1.26225E-003	2.29461E-002	-1.45149E-003
	158	158	1.10015E+000	3.29520E-002	0.00000E+000	3.62522E-002	3.28684E-001	3.95977E-002	4.98426E+001	11	...........	6.61089E-002	-5.26431E-003	6.03107E-001	5.27295E-001	-2.69387E-002	-3.84753E-002	6.99023E-001	-4.42761E-002	2.17842E-003	-1.73469E-004	1.98736E-002	1.73754E-002	-8.87686E-004	-1.26784E-003	2.30342E-002	-1.45899E-003
	159	159	1.10021E+000	3.29824E-002	0.00000E+000	3.62875E-002	3.28989E-001	3.95681E-002	4.98832E+001	11	...........	6.60754E-002	-5.22583E-003	6.03047E-001	5.27184E-001	-2.69292E-002	-3.84665E-002	6.98972E-001	-4.42767E-002	2.17933E-003	-1.72361E-004	1.98900E-002	1.73878E-002	-8.88190E-004	-1.26872E-003	2.30538E-002	-1.46035E-003
	160	160	1.10023E+000	3.26094E-002	0.00000E+000	3.58778E-002	3.25275E-001	3.95577E-002	4.98835E+001	11	...........	6.60189E-002	-5.25333E-003	6.03156E-001	5.27144E-001	-2.69143E-002	-3.84633E-002	6.99102E-001	-4.42483E-002	2.15284E-003	-1.71308E-004	1.96685E-002	1.71899E-002	-8.77659E-004	-1.25427E-003	2.27973E-002	-1.44291E-003
	161	161	1.10015E+000	3.26649E-002	0.00000E+000	3.59362E-002	3.25826E-001	3.95001E-002	4.99441E+001	11	...........	6.59568E-002	-5.20958E-003	6.03203E-001	5.27043E-001	-2.69172E-002	-3.84394E-002	6.99137E-001	-4.43306E-002	2.15447E-003	-1.70170E-004	1.97035E-002	1.72158E-002	-8.79247E-004	-1.25562E-003	2.28372E-002	-1.44805E-003
	162	162	1.10020E+000	3.27285E-002	0.00000E+000	3.60080E-002	3.26458E-001	3.95151E-002	4.99323E+001	11	...........	6.59644E-002	-5.16292E-003	6.03327E-001	5.27188E-001	-2.69317E-002	-3.84321E-002	6.98857E-001	-4.41872E-002	2.15892E-003	-1.68975E-004	1.97460E-002	1.72541E-002	-8.81434E-004	-1.25783E-003	2.28725E-002	-1.44618E-003
	163	163	1.10023E+000	3.23591E-002	0.00000E+000	3.56025E-002	3.22789E-001	3.94638E-002	4.99238E+001	11	...........	6.58731E-002	-5.22847E-003	6.03325E-001	5.27155E-001	-2.69558E-002	-3.84294E-002	6.98890E-001	-4.39636E-002	2.13160E-003	-1.69189E-004	1.95231E-002	1.70583E-002	-8.72267E-004	-1.24354E-003	2.26155E-002	-1.42262E-003
	164	164	1.10015E+000	3.24558E-002	0.00000E+000	3.57062E-002	3.23747E-001	3.94400E-002	4.99290E+001	11	...........	6.58349E-002	-5.27417E-003	6.03316E-001	5.27149E-001	-2.70060E-002	-3.84083E-002	6.99029E-001	-4.40628E-002	2.13672E-003	-1.71177E-004	1.95811E-002	1.71090E-002	-8.76500E-004	-1.24657E-003	2.26875E-002	-1.43009E-003
	165	165	1.10020E+000	3.25050E-002	0.00000E+000	3.57620E-002	3.24237E-001	3.94733E-002	4.99665E+001	11	...........	6.59001E-002	-5.36500E-003	6.03251E-001	5.27320E-001	-2.70260E-002	-3.83956E-002	6.98976E-001	-4.41601E-002	2.14209E-003	-1.74389E-004	1.96087E-002	1.71406E-002	-8.78480E-004	-1.24805E-003	2.27202E-002	-1.43543E-003
	166	166	1.10023E+000	3.21614E-002	0.00000E+000	3.53851E-002	3.20826E-001	3.94215E-002	4.99506E+001	11	...........	6.58033E-002	-5.38306E-003	6.03163E-001	5.27183E-001	-2.70315E-002	-3.83872E-002	6.98971E-001	-4.41172E-002	2.11633E-003	-1.73127E-004	1.93986E-002	1.69550E-002	-8.69373E-004	-1.23459E-003	2.24799E-002	-1.41887E-003
	167	167	1.10015E+000	3.22281E-002	0.00000E+000	3.54557E-002	3.21489E-001	3.94230E-002	4.99611E+001	11	...........	6.58028E-002	-5.31722E-003	6.03120E-001	5.27333E-001	-2.70068E-002	-3.83942E-002	6.98932E-001	-4.41787E-002	2.12070E-003	-1.71364E-004	1.94374E-002	1.69950E-002	-8.70379E-004	-1.23737E-003	2.25253E-002	-1.42380E-003
	168	168	1.10020E+000	3.22813E-002	0.00000E+000	3.55159E-002	3.22015E-001	3.93748E-002	4.99536E+001	11	...........	6.57447E-002	-5.34750E-003	6.02988E-001	5.27435E-001	-2.70082E-002	-3.83968E-002	6.98939E-001	-4.42111E-002	2.12233E-003	-1.72624E-004	1.94653E-002	1.70263E-002	-8.71861E-004	-1.23950E-003	2.25627E-002	-1.42719E-003
	169	169	1.10024E+000	3.18717E-002	0.00000E+000	3.50665E-002	3.17947E-001	3.93924E-002	4.70995E+001	11	...........	6.57440E-002	-5.48000E-003	6.02892E-001	5.27443E-001	-2.70315E-002	-3.83844E-002	6.98888E-001	-4.41719E-002	2.09538E-003	-1.74657E-004	1.92152E-002	1.68105E-002	-8.61542E-004	-1.22338E-003	2.22748E-002	-1.40784E-003
	170	170	1.10015E+000	3.19525E-002	0.00000E+000	3.51524E-002	3.18745E-001	3.91757E-002	4.89806E+001	11	...........	6.53890E-002	-5.42361E-003	6.03043E-001	5.27483E-001	-2.70337E-002	-3.83936E-002	6.98903E-001	-4.41869E-002	2.08934E-003	-1.73298E-004	1.92687E-002	1.68544E-002	-8.63795E-004	-1.22677E-003	2.23317E-002	-1.41188E-003
	171	171	1.10020E+000	3.20504E-002	0.00000E+000	3.52618E-002	3.19720E-001	3.93403E-002	4.97491E+001	11	...........	6.56690E-002	-5.47931E-003	6.03243E-001	5.27320E-001	-2.70457E-002	-3.83857E-002	6.98866E-001	-4.40644E-002	2.10472E-003	-1.75614E-004	1.93342E-002	1.69008E-002	-8.66826E-004	-1.23028E-003	2.23989E-002	-1.41228E-003
	172	172	1.10024E+000	3.16797E-002	0.00000E+000	3.48552E-002	3.16034E-001	3.93705E-002	4.97639E+001	11	...........	6.57157E-002	-5.45778E-003	6.03409E-001	5.27380E-001	-2.70333E-002	-3.83887E-002	6.98950E-001	-4.40081E-002	2.08186E-003	-1.72901E-004	1.91158E-002	1.67073E-002	-8.56409E-004	-1.21615E-003	2.21426E-002	-1.39416E-003
	173	173	1.10015E+000	3.17318E-002	0.00000E+000	3.49097E-002	3.16552E-001	3.93764E-002	4.98024E+001	11	...........	6.57206E-002	-5.43833E-003	6.03307E-001	5.27272E-001	-2.70053E-002	-3.84254E-002	6.98999E-001	-4.38783E-002	2.08543E-003	-1.72568E-004	1.91440E-002	1.67313E-002	-8.56926E-004	-1.21931E-003	2.21805E-002	-1.39234E-003
	174	174	1.10020E+000	3.17903E-002	0.00000E+000	3.49755E-002	3.17138E-001	3.92781E-002	4.97780E+001	11	...........	6.55628E-002	-5.47153E-003	6.03006E-001	5.27511E-001	-2.70099E-002	-3.84069E-002	6.99038E-001	-4.39878E-002	2.08426E-003	-1.73941E-004	1.91697E-002	1.67697E-002	-8.58651E-004	-1.22097E-003	2.22226E-002	-1.39838E-003
	175	175	1.10024E+000	3.14705E-002	0.00000E+000	3.46251E-002	3.13954E-001	3.92876E-002	4.97987E+001	11	...........	6.55856E-002	-5.45583E-003	6.02864E-001	5.27521E-001	-2.70187E-002	-3.84086E-002	6.99046E-001	-4.40043E-002	2.06401E-003	-1.71698E-004	1.89724E-002	1.66013E-002	-8.50293E-004	-1.20874E-003	2.19993E-002	-1.38484E-003
	176	176	1.10015E+000	3.14950E-002	0.00000E+000	3.46491E-002	3.14198E-001	3.92808E-002	4.98565E+001	11	...........	6.55760E-002	-5.61597E-003	6.02925E-001	5.27373E-001	-2.69740E-002	-3.84212E-002	6.99145E-001	-4.40253E-002	2.06531E-003	-1.76875E-004	1.89891E-002	1.66096E-002	-8.49546E-004	-1.21008E-003	2.20195E-002	-1.38657E-003
	177	177	1.10019E+000	3.15848E-002	0.00000E+000	3.47495E-002	3.15092E-001	3.92755E-002	4.98651E+001	11	...........	6.55503E-002	-5.67792E-003	6.02882E-001	5.27426E-001	-2.69432E-002	-3.84097E-002	6.99094E-001	-4.41312E-002	2.07039E-003	-1.79336E-004	1.90419E-002	1.66586E-002	-8.50996E-004	-1.21316E-003	2.20808E-002	-1.39388E-003
	178	178	1.10024E+000	3.12236E-002	0.00000E+000	3.43536E-002	3.11498E-001	3.92899E-002	4.99008E+001	11	...........	6.55794E-002	-5.50556E-003	6.02872E-001	5.27358E-001	-2.69344E-002	-3.83774E-002	6.99208E-001	-4.40879E-002	2.04763E-003	-1.71903E-004	1.88239E-002	1.64660E-002	-8.40991E-004	-1.19828E-003	2.18318E-002	-1.37658E-003
	179	179	1.10015E+000	3.12589E-002	0.00000E+000	3.43894E-002	3.11850E-001	3.92388E-002	4.99040E+001	11	...........	6.55118E-002	-5.24153E-003	6.02868E-001	5.27345E-001	-2.69396E-002	-3.83979E-002	6.99126E-001	-4.40385E-002	2.04783E-003	-1.63844E-004	1.88450E-002	1.64842E-002	-8.42102E-004	-1.20028E-003	2.18539E-002	-1.37659E-003
	180	180	1.10019E+000	3.13482E-002	0.00000E+000	3.44891E-002	3.12739E-001	3.92208E-002	4.99068E+001	11	...........	6.54833E-002	-5.32208E-003	6.02863E-001	5.27439E-001	-2.69281E-002	-3.83717E-002	6.99079E-001	-4.42547E-002	2.05279E-003	-1.66838E-004	1.88987E-002	1.65343E-002	-8.44147E-004	-1.20288E-003	2.19149E-002	-1.38731E-003
	181	181	1.10024E+000	3.10044E-002	0.00000E+000	3.41124E-002	3.09324E-001	3.91927E-002	4.91646E+001	11	...........	6.54321E-002	-5.42083E-003	6.02850E-001	5.27443E-001	-2.69131E-002	-3.83569E-002	6.99057E-001	-4.42962E-002	2.02868E-003	-1.68070E-004	1.86910E-002	1.63531E-002	-8.34424E-004	-1.18923E-003	2.16739E-002	-1.37338E-003
	182	182	1.10015E+000	3.10528E-002	0.00000E+000	3.41627E-002	3.09801E-001	3.91806E-002	4.95195E+001	11	...........	6.54029E-002	-5.38222E-003	6.02764E-001	5.27458E-001	-2.68949E-002	-3.83574E-002	6.99057E-001	-4.42447E-002	2.03095E-003	-1.67133E-004	1.87175E-002	1.63791E-002	-8.35162E-004	-1.19111E-003	2.17077E-002	-1.37392E-003
	183	183	1.10019E+000	3.11512E-002	0.00000E+000	3.42723E-002	3.10782E-001	3.91641E-002	4.95315E+001	11	...........	6.53926E-002	-5.27000E-003	6.02595E-001	5.27517E-001	-2.68785E-002	-3.83697E-002	6.98993E-001	-4.41451E-002	2.03706E-003	-1.64167E-004	1.87716E-002	1.64328E-002	-8.37298E-004	-1.19526E-003	2.17745E-002	-1.37518E-003
	184	184	1.10025E+000	3.08298E-002	0.00000E+000	3.39204E-002	3.07589E-001	3.91748E-002	4.95181E+001	11	...........	6.53983E-002	-5.31028E-003	6.02625E-001	5.27535E-001	-2.69011E-002	-3.83510E-002	6.98932E-001	-4.40286E-002	2.01622E-003	-1.63715E-004	1.85788E-002	1.62638E-002	-8.29357E-004	-1.18235E-003	2.15480E-002	-1.35740E-003
	185	185	1.10015E+000	3.08381E-002	0.00000E+000	3.39264E-002	3.07667E-001	3.91396E-002	4.95277E+001	11	...........	6.53203E-002	-5.34083E-003	6.02777E-001	5.27578E-001	-2.68810E-002	-3.83264E-002	6.99060E-001	-4.41479E-002	2.01435E-003	-1.64701E-004	1.85885E-002	1.62695E-002	-8.28958E-004	-1.18191E-003	2.15577E-002	-1.36144E-003
	186	186	1.10019E+000	3.09081E-002	0.00000E+000	3.40048E-002	3.08366E-001	3.91288E-002	4.95146E+001	11	...........	6.53079E-002	-5.25528E-003	6.02874E-001	5.27595E-001	-2.68854E-002	-3.83064E-002	6.99102E-001	-4.41232E-002	2.01854E-003	-1.62431E-004	1.86337E-002	1.63070E-002	-8.30977E-004	-1.18398E-003	2.16079E-002	-1.36376E-003
	187	187	1.10025E+000	3.06107E-002	0.00000E+000	3.36793E-002	3.05415E-001	3.90882E-002	4.95237E+001	11	...........	6.52521E-002	-5.37083E-003	6.02857E-001	5.27619E-001	-2.68929E-002	-3.83285E-002	6.99027E-001	-4.42001E-002	1.99741E-003	-1.64405E-004	1.84538E-002	1.61508E-002	-8.23210E-004	-1.17326E-003	2.13977E-002	-1.35300E-003
	188	188	1.10015E+000	3.06250E-002	0.00000E+000	3.36920E-002	3.05553E-001	3.90679E-002	4.95314E+001	11	...........	6.52229E-002	-5.42917E-003	6.02924E-001	5.27626E-001	-2.68951E-002	-3.83496E-002	6.99129E-001	-4.41031E-002	1.99745E-003	-1.66268E-004	1.84645E-002	1.61586E-002	-8.23663E-004	-1.17446E-003	2.14108E-002	-1.35066E-003
	189	189	1.10019E+000	3.07060E-002	0.00000E+000	3.37824E-002	3.06359E-001	3.91028E-002	4.95200E+001	11	...........	6.52794E-002	-5.40403E-003	6.02956E-001	5.27606E-001	-2.68729E-002	-3.83581E-002	6.98968E-001	-4.40321E-002	2.00447E-003	-1.65936E-004	1.85144E-002	1.62007E-002	-8.25159E-004	-1.17782E-003	2.14625E-002	-1.35205E-003
	190	190	1.10025E+000	3.03925E-002	0.00000E+000	3.34393E-002	3.03240E-001	3.90418E-002	4.95297E+001	11	...........	6.51758E-002	-5.38653E-003	6.02976E-001	5.27594E-001	-2.69000E-002	-3.83626E-002	6.99077E-001	-4.39647E-002	1.98086E-003	-1.63710E-004	1.83260E-002	1.60349E-002	-8.17559E-004	-1.16594E-003	2.12467E-002	-1.33620E-003
	191	191	1.10015E+000	3.03639E-002	0.00000E+000	3.34048E-002	3.02956E-001	3.90320E-002	4.95282E+001	11	...........	6.51524E-002	-5.45792E-003	6.02902E-001	5.27609E-001	-2.68981E-002	-3.83599E-002	6.99114E-001	-4.42300E-002	1.97828E-003	-1.65724E-004	1.83065E-002	1.60203E-002	-8.16730E-004	-1.16476E-003	2.12279E-002	-1.34300E-003
	192	192	1.10019E+000	3.04730E-002	0.00000E+000	3.35260E-002	3.04038E-001	3.90139E-002	4.95596E+001	11	...........	6.51178E-002	-5.38681E-003	6.02797E-001	5.27605E-001	-2.69050E-002	-3.83642E-002	6.99031E-001	-4.42121E-002	1.98433E-003	-1.64152E-004	1.83690E-002	1.60777E-002	-8.19876E-004	-1.16907E-003	2.13016E-002	-1.34727E-003
	193	193	1.10025E+000	3.01828E-002	0.00000E+000	3.32086E-002	3.01153E-001	3.90111E-002	4.94782E+001	11	...........	6.50892E-002	-5.36625E-003	6.02862E-001	5.27599E-001	-2.68962E-002	-3.83946E-002	6.99052E-001	-4.40764E-002	1.96457E-003	-1.61968E-004	1.81960E-002	1.59244E-002	-8.11803E-004	-1.15885E-003	2.10993E-002	-1.33035E-003
	194	194	1.10015E+000	3.01402E-002	0.00000E+000	3.31587E-002	3.00731E-001	3.90081E-002	4.94941E+001	11	...........	6.50811E-002	-5.45264E-003	6.03018E-001	5.27629E-001	-2.68681E-002	-3.83744E-002	6.99097E-001	-4.39858E-002	1.96156E-003	-1.64343E-004	1.81751E-002	1.59028E-002	-8.09808E-004	-1.15661E-003	2.10709E-002	-1.32574E-003
	195	195	1.10019E+000	3.02634E-002	0.00000E+000	3.32953E-002	3.01955E-001	3.89517E-002	4.95451E+001	11	...........	6.50235E-002	-5.48625E-003	6.02894E-001	5.27617E-001	-2.68882E-002	-3.83619E-002	6.99022E-001	-4.39903E-002	1.96783E-003	-1.66032E-004	1.82456E-002	1.59675E-002	-8.13727E-004	-1.16096E-003	2.11547E-002	-1.33129E-003
	196	196	1.10025E+000	2.99712E-002	0.00000E+000	3.29758E-002	2.99054E-001	3.89371E-002	4.95444E+001	11	...........	6.49949E-002	-5.52750E-003	6.02843E-001	5.27618E-001	-2.68889E-002	-3.83682E-002	6.99042E-001	-4.41014E-002	1.94797E-003	-1.65666E-004	1.80679E-002	1.58133E-002	-8.05892E-004	-1.14994E-003	2.09511E-002	-1.32177E-003
	197	197	1.10015E+000	2.99257E-002	0.00000E+000	3.29228E-002	2.98597E-001	3.89414E-002	4.95582E+001	11	...........	6.50142E-002	-5.51417E-003	6.02943E-001	5.27648E-001	-2.69264E-002	-3.83953E-002	6.98942E-001	-4.42567E-002	1.94560E-003	-1.65016E-004	1.80435E-002	1.57903E-002	-8.05792E-004	-1.14901E-003	2.09163E-002	-1.32441E-003
	198	198	1.10018E+000	3.00404E-002	0.00000E+000	3.30500E-002	2.99737E-001	3.89073E-002	4.95988E+001	11	...........	6.49535E-002	-5.39444E-003	6.02990E-001	5.27666E-001	-2.69418E-002	-3.84125E-002	6.99034E-001	-4.42436E-002	1.95123E-003	-1.62051E-004	1.81140E-002	1.58513E-002	-8.09342E-004	-1.15393E-003	2.09992E-002	-1.32909E-003
	199	199	1.10025E+000	2.97428E-002	0.00000E+000	3.27246E-002	2.96776E-001	3.89087E-002	4.95686E+001	11	...........	6.49560E-002	-5.26583E-003	6.02996E-001	5.27637E-001	-2.69528E-002	-3.84422E-002	6.99105E-001	-4.42228E-002	1.93197E-003	-1.56621E-004	1.79348E-002	1.56934E-002	-8.01652E-004	-1.14338E-003	2.07933E-002	-1.31531E-003
	200	200	1.10015E+000	2.97077E-002	0.00000E+000	3.26829E-002	2.96428E-001	3.88632E-002	4.95578E+001	11	...........	6.48944E-002	-5.34694E-003	6.02936E-001	5.27649E-001	-2.69600E-002	-3.84014E-002	6.99131E-001	-4.42115E-002	1.92786E-003	-1.58845E-004	1.79118E-002	1.56752E-002	-8.00919E-004	-1.14082E-003	2.07695E-002	-1.31342E-003
	201	201	1.10018E+000	2.98266E-002	0.00000E+000	3.28148E-002	2.97614E-001	3.88662E-002	4.95664E+001	11	...........	6.48812E-002	-5.32111E-003	6.02905E-001	5.27603E-001	-2.69690E-002	-3.83826E-002	6.99157E-001	-4.39565E-002	1.93519E-003	-1.58711E-004	1.79826E-002	1.57366E-002	-8.04395E-004	-1.14482E-003	2.08535E-002	-1.31108E-003
	202	202	1.10025E+000	2.95690E-002	0.00000E+000	3.25332E-002	2.95053E-001	3.88266E-002	4.95146E+001	11	...........	6.48271E-002	-5.33014E-003	6.02775E-001	5.27516E-001	-2.69842E-002	-3.84086E-002	6.99133E-001	-4.38494E-002	1.91687E-003	-1.57607E-004	1.78234E-002	1.55981E-002	-7.97894E-004	-1.13570E-003	2.06726E-002	-1.29658E-003
	203	203	1.10015E+000	2.94895E-002	0.00000E+000	3.24429E-002	2.94266E-001	3.88084E-002	4.95486E+001	11	...........	6.48158E-002	-5.34931E-003	6.02864E-001	5.27515E-001	-2.69454E-002	-3.84375E-002	6.98926E-001	-4.39390E-002	1.91139E-003	-1.57749E-004	1.77782E-002	1.55562E-002	-7.94608E-004	-1.13350E-003	2.06110E-002	-1.29574E-003
	204	204	1.10018E+000	2.96225E-002	0.00000E+000	3.25902E-002	2.95585E-001	3.87913E-002	4.95826E+001	11	...........	6.47796E-002	-5.50681E-003	6.02889E-001	5.27452E-001	-2.69618E-002	-3.83929E-002	6.98831E-001	-4.39207E-002	1.91893E-003	-1.63125E-004	1.78591E-002	1.56244E-002	-7.98677E-004	-1.13730E-003	2.07011E-002	-1.30104E-003
	205	205	1.10025E+000	2.93724E-002	0.00000E+000	3.23170E-002	2.93103E-001	3.87648E-002	4.96073E+001	11	...........	6.47243E-002	-5.49208E-003	6.02987E-001	5.27458E-001	-2.70062E-002	-3.83999E-002	6.98872E-001	-4.41115E-002	1.90111E-003	-1.61316E-004	1.77112E-002	1.54927E-002	-7.93239E-004	-1.12790E-003	2.05276E-002	-1.29566E-003
	206	206	1.10015E+000	2.92857E-002	0.00000E+000	3.22188E-002	2.92241E-001	3.87587E-002	4.95967E+001	11	...........	6.47012E-002	-5.41583E-003	6.03118E-001	5.27384E-001	-2.69771E-002	-3.83946E-002	6.98972E-001	-4.40565E-002	1.89482E-003	-1.58607E-004	1.76627E-002	1.54448E-002	-7.90044E-004	-1.12441E-003	2.04699E-002	-1.29023E-003
	207	207	1.10018E+000	2.94355E-002	0.00000E+000	3.23844E-002	2.93731E-001	3.87070E-002	4.95744E+001	11	...........	6.46162E-002	-5.37722E-003	6.03103E-001	5.27436E-001	-2.69675E-002	-3.83712E-002	6.98924E-001	-4.41576E-002	1.90201E-003	-1.58281E-004	1.77527E-002	1.55254E-002	-7.93803E-004	-1.12948E-003	2.05732E-002	-1.29980E-003
	208	208	1.10025E+000	2.91765E-002	0.00000E+000	3.21015E-002	2.91156E-001	3.87086E-002	4.95895E+001	11	...........	6.46280E-002	-5.36722E-003	6.03201E-001	5.27571E-001	-2.69687E-002	-3.83826E-002	6.99018E-001	-4.42458E-002	1.88562E-003	-1.56597E-004	1.75993E-002	1.53927E-002	-7.86854E-004	-1.11987E-003	2.03949E-002	-1.29094E-003
	209	209	1.10015E+000	2.90699E-002	0.00000E+000	3.19813E-002	2.90096E-001	3.86707E-002	4.96335E+001	11	...........	6.45514E-002	-5.40778E-003	6.03153E-001	5.27630E-001	-2.69661E-002	-3.83779E-002	6.98966E-001	-4.42585E-002	1.87650E-003	-1.57204E-004	1.75336E-002	1.53381E-002	-7.83902E-004	-1.11564E-003	2.03189E-002	-1.28659E-003
	210	210	1.10018E+000	2.92400E-002	0.00000E+000	3.21693E-002	2.91789E-001	3.86541E-002	4.95949E+001	11	...........	6.45356E-002	-5.50667E-003	6.03079E-001	5.27600E-001	-2.69539E-002	-3.83672E-002	6.98809E-001	-4.42972E-002	1.88702E-003	-1.61015E-004	1.76340E-002	1.54270E-002	-7.88132E-004	-1.12186E-003	2.04332E-002	-1.29525E-003
	211	211	1.10025E+000	2.89648E-002	0.00000E+000	3.18685E-002	2.89051E-001	3.86402E-002	4.96362E+001	11	...........	6.45029E-002	-5.53319E-003	6.03207E-001	5.27646E-001	-2.69458E-002	-3.83910E-002	6.98880E-001	-4.43144E-002	1.86831E-003	-1.60268E-004	1.74718E-002	1.52831E-002	-7.80480E-004	-1.11199E-003	2.02429E-002	-1.28356E-003
	212	212	1.10015E+000	2.88603E-002	0.00000E+000	3.17508E-002	2.88011E-001	3.86114E-002	4.96604E+001	11	...........	6.44478E-002	-5.38000E-003	6.03320E-001	5.27656E-001	-2.69483E-002	-3.84124E-002	6.98784E-001	-4.43206E-002	1.85998E-003	-1.55269E-004	1.74120E-002	1.52283E-002	-7.77738E-004	-1.10859E-003	2.01671E-002	-1.27911E-003
	213	213	1.10018E+000	2.90088E-002	0.00000E+000	3.19149E-002	2.89486E-001	3.86436E-002	4.71923E+001	11	...........	6.44883E-002	-5.32431E-003	6.03231E-001	5.27677E-001	-2.69224E-002	-3.84043E-002	6.98840E-001	-4.42411E-002	1.87073E-003	-1.54452E-004	1.74990E-002	1.53073E-002	-7.80986E-004	-1.11406E-003	2.02725E-002	-1.28338E-003
	214	214	1.10025E+000	2.87005E-002	0.00000E+000	3.15776E-002	2.86421E-001	3.82375E-002	4.76988E+001	11	...........	6.38229E-002	-5.16125E-003	6.03195E-001	5.27685E-001	-2.69253E-002	-3.84071E-002	6.98950E-001	-4.42051E-002	1.83175E-003	-1.48130E-004	1.73120E-002	1.51448E-002	-7.72768E-004	-1.10230E-003	2.00602E-002	-1.26871E-003
	215	214.94	1.10020E+000	2.87566E-002	0.00000E+000	3.16380E-002	2.86982E-001	3.86676E-002	4.95265E+001	11	...........	6.45529E-002	-5.16918E-003	6.03262E-001	5.27701E-001	-2.69323E-002	-3.83994E-002	6.98896E-001	-4.42880E-002	1.85632E-003	-1.48648E-004	1.73478E-002	1.51749E-002	-7.74483E-004	-1.10424E-003	2.00979E-002	-1.27357E-003
STARTTIMEOFFSET	QUANT	597891.8	Start Time Offset (s)
