EXPLAIN
TAG	PWR800_CHARGE
TITLE	LABEL	PWR Charge	Test Identifier
DATE	LABEL	10/12/2022	Date
TIME	LABEL	23:29:29	Time
NOTES	NOTES	1	Notes...
	
PSTAT	PSTAT	REF3000-21114	Potentiostat
CAPACITY	QUANT	5.30000E-002	Capacity (A-hr)
CELLTYPE	SELECTOR	1	Cell Type
WORKINGCONNECTION	SELECTOR	0	Working Connection
MAXCHARGETIME	VARIABLEANDUNITS	7.20000E+003	s	2.00000E+000	hour(s)	Max Charge Time
CHARGEMODE	MULTIPARAM	0	1.00000E-001	Charge Mode	Constant Current	Amp(s)
CHARGECURRENT	QUANT	0.1	Charge Current (A)
VOLTAGEFINISH	TWOPARAM	T	2.50000E-002	7.20000E+003	Voltage Finish	I (A) <	Max Time(s)
SAMPLETIME	QUANT	1.00000E+000	Sample Period (s)
CHARGESTOPAT1	MULTIPARAM	2	1.10000E+000	Stop At 1	|Voltage| > Limit	V
CHARGESTOPAT2	MULTIPARAM	0	0.00000E+000	Stop At 2	None	N/A
AESELECTOR	AESELECTOR	0x1	T	Set Limits	AE Channels
AESBHCSELECTOR	TOGGLE	F	Save Both Half Cells
IRCOMP	TOGGLE	F	IR Measure
EOC	QUANT	0.2508261	Open Circuit (V)
SEQUENCER	TOGGLE	TRUE	Run as Sequence
PSTATMODEL	IQUANT	5	Pstat Model
PSTATSECTION	LABEL	REF3000-21114	Pstat Section
PSTATSERIALNO	LABEL	21114	Pstat Serial Number
CTRLMODE	IQUANT	0	Control Mode
ELECTROMETER	IQUANT	0	RE=0 or CS=1
IESTAB	IQUANT	0	I/E Stability
CASPEED	IQUANT	4	Control Amp Speed
CONVENTION	IQUANT	1	Current Convention
ICHRANGE	IQUANT	2	Ich Range
ICHRANGEMODE	TOGGLE	T	Ich Auto Range
ICHOFFSETENABLE	TOGGLE	F	Ich Offset Enable
ICHOFFSET	QUANT	0	Ich Offset (V)
ICHFILTER	IQUANT	1	Ich Filter
VCHRANGE	IQUANT	3	Vch Range
VCHRANGEMODE	TOGGLE	T	Vch Auto Range
VCHOFFSETENABLE	TOGGLE	F	Vch Offset Enable
VCHOFFSET	QUANT	0	Vch Offset (V)
VCHFILTER	IQUANT	1	Vch Filter
ACHRANGE	IQUANT	2	Ach Range
ACHOFFSETENABLE	TOGGLE	F	Ach Offset Enable
ACHOFFSET	QUANT	0	Ach Offset (V)
ACHFILTER	IQUANT	1	Ach Filter
IERANGELOWERLIMIT	IQUANT	9	I/E Range Lower Limit
IERANGEMODE	TOGGLE	F	I/E AutoRange
IERANGE	IQUANT	9	I/E Range
POSFEEDENABLE	TOGGLE	F	Positive Feedback IR Comp
POSFEEDRESISTANCE	QUANT	0	Positive Feedback Resistance (ohm)
ACHSELECT	IQUANT	1	Ach Select
SENSECABLEID	IQUANT	13	Sense Cable ID
PWRCABLEID	IQUANT	13	Power Cable ID
DCCALDATE	LABEL		DC Calibration Date
ACCALDATE	LABEL		AC Calibration Date
THERMOSELECT	IQUANT	1	Thermo Select
FRAMEWORKVERSION	LABEL	7.8.6	Framework Version
INSTRUMENTVERSION	LABEL	4.50	Instrument Version
COMPLIANCEVOLTAGE	IQUANT	0	Compliance Voltage
CURVE	TABLE	111
	Pt	T	Vf	Im	Vu	Pwr	Sig	Ach	Temp	IERange	Over	Vf1	Vf2	Vf3	Vf4	Vf5	Vf6	Vf7	Vf8	Pwr1	Pwr2	Pwr3	Pwr4	Pwr5	Pwr6	Pwr7	Pwr8
	#	s	V	A	V	W	V	V	deg C	#	bits	V	V	V	V	V	V	V	V	W	W	W	W	W	W	W	W
	0	1	5.34759E-001	9.98516E-002	0.00000E+000	5.33966E-002	9.94000E-001	4.15103E-002	4.17687E+001	11	...........	6.89024E-002	-4.81431E-003	5.79017E-001	5.90050E-001	-3.01660E-002	-4.16842E-002	6.67061E-001	-4.38418E-002	6.88001E-003	-4.80716E-004	5.78157E-002	5.89174E-002	-3.01212E-003	-4.16223E-003	6.66071E-002	-4.37767E-003
	1	2	7.61290E-001	9.98519E-002	0.00000E+000	7.60163E-002	9.94000E-001	4.20433E-002	4.52759E+001	11	...........	6.98082E-002	-4.85931E-003	5.79173E-001	5.90109E-001	-2.95785E-002	-4.16244E-002	6.67051E-001	-4.38754E-002	6.97048E-003	-4.85211E-004	5.78316E-002	5.89235E-002	-2.95347E-003	-4.15628E-003	6.66064E-002	-4.38105E-003
	2	2.305	1.03291E+000	9.98526E-002	0.00000E+000	1.03139E-001	9.94000E-001	4.28478E-002	4.94933E+001	11	...........	7.10706E-002	-4.93124E-003	5.79421E-001	5.90336E-001	-2.92295E-002	-4.15883E-002	6.67147E-001	-4.38292E-002	7.09658E-003	-4.92397E-004	5.78567E-002	5.89466E-002	-2.91864E-003	-4.15270E-003	6.66164E-002	-4.37646E-003
	3	3	1.10112E+000	7.20383E-002	0.00000E+000	7.93231E-002	7.17396E-001	4.22977E-002	5.11803E+001	11	...........	7.01773E-002	-4.90608E-003	5.79350E-001	5.90378E-001	-2.90993E-002	-4.14842E-002	6.67131E-001	-4.38851E-002	5.05545E-003	-3.53425E-004	4.17354E-002	4.25298E-002	-2.09626E-003	-2.98845E-003	4.80590E-002	-3.16141E-003
	4	4	1.10074E+000	5.47695E-002	0.00000E+000	6.02869E-002	5.45673E-001	4.23397E-002	4.98505E+001	11	...........	7.02390E-002	-4.81292E-003	5.79546E-001	5.90278E-001	-2.88531E-002	-4.13878E-002	6.67103E-001	-4.38358E-002	3.84696E-003	-2.63601E-004	3.17414E-002	3.23293E-002	-1.58027E-003	-2.26679E-003	3.65369E-002	-2.40087E-003
	5	5	1.10063E+000	4.82204E-002	0.00000E+000	5.30728E-002	4.80553E-001	4.21577E-002	4.96875E+001	11	...........	6.99461E-002	-4.74000E-003	5.79531E-001	5.90538E-001	-2.85890E-002	-4.12642E-002	6.66901E-001	-4.37929E-002	3.37283E-003	-2.28565E-004	2.79453E-002	2.84760E-002	-1.37857E-003	-1.98978E-003	3.21583E-002	-2.11171E-003
	6	6	1.10058E+000	4.51912E-002	0.00000E+000	4.97366E-002	4.50436E-001	4.21778E-002	4.92110E+001	11	...........	6.99619E-002	-4.69778E-003	5.79601E-001	5.90635E-001	-2.84537E-002	-4.11601E-002	6.66981E-001	-4.37096E-002	3.16167E-003	-2.12298E-004	2.61929E-002	2.66915E-002	-1.28586E-003	-1.86008E-003	3.01417E-002	-1.97529E-003
	7	7	1.10066E+000	4.30291E-002	0.00000E+000	4.73602E-002	4.28935E-001	4.21909E-002	4.88677E+001	11	...........	6.99686E-002	-4.61361E-003	5.79588E-001	5.90635E-001	-2.83272E-002	-4.10787E-002	6.66879E-001	-4.37900E-002	3.01069E-003	-1.98519E-004	2.49391E-002	2.54145E-002	-1.21889E-003	-1.76758E-003	2.86952E-002	-1.88424E-003
	8	8	1.10060E+000	4.11805E-002	0.00000E+000	4.53235E-002	4.10552E-001	4.21482E-002	4.85969E+001	11	...........	6.99492E-002	-4.67208E-003	5.79621E-001	5.90761E-001	-2.82699E-002	-4.09897E-002	6.66927E-001	-4.38115E-002	2.88054E-003	-1.92399E-004	2.38691E-002	2.43279E-002	-1.16417E-003	-1.68798E-003	2.74644E-002	-1.80418E-003
	9	9	1.10056E+000	4.03830E-002	0.00000E+000	4.44440E-002	4.02623E-001	4.21367E-002	4.83647E+001	11	...........	6.99235E-002	-4.69014E-003	5.79730E-001	5.90817E-001	-2.82228E-002	-4.08882E-002	6.66893E-001	-4.38400E-002	2.82372E-003	-1.89402E-004	2.34112E-002	2.38590E-002	-1.13972E-003	-1.65119E-003	2.69311E-002	-1.77039E-003
	10	10	1.10064E+000	3.95863E-002	0.00000E+000	4.35702E-002	3.94706E-001	4.21412E-002	4.81914E+001	11	...........	6.99307E-002	-4.62819E-003	5.79758E-001	5.90910E-001	-2.81839E-002	-4.07879E-002	6.66883E-001	-4.39271E-002	2.76829E-003	-1.83213E-004	2.29505E-002	2.33919E-002	-1.11569E-003	-1.61464E-003	2.63994E-002	-1.73891E-003
	11	11	1.10060E+000	3.86473E-002	0.00000E+000	4.25354E-002	3.85365E-001	4.21170E-002	4.80487E+001	11	...........	6.98946E-002	-4.66694E-003	5.79639E-001	5.90985E-001	-2.81650E-002	-4.06912E-002	6.66811E-001	-4.37987E-002	2.70124E-003	-1.80365E-004	2.24015E-002	2.28400E-002	-1.08850E-003	-1.57261E-003	2.57705E-002	-1.69270E-003
	12	12	1.10056E+000	3.84901E-002	0.00000E+000	4.23606E-002	3.83806E-001	4.21222E-002	4.79295E+001	11	...........	6.98913E-002	-4.64111E-003	5.79617E-001	5.91084E-001	-2.81221E-002	-4.05692E-002	6.66897E-001	-4.38165E-002	2.69012E-003	-1.78637E-004	2.23095E-002	2.27509E-002	-1.08242E-003	-1.56151E-003	2.56690E-002	-1.68650E-003
	13	13	1.10063E+000	3.81646E-002	0.00000E+000	4.20051E-002	3.80569E-001	4.21665E-002	4.77203E+001	11	...........	6.99793E-002	-4.64319E-003	5.79663E-001	5.91101E-001	-2.81160E-002	-4.04736E-002	6.66900E-001	-4.37983E-002	2.67073E-003	-1.77206E-004	2.21226E-002	2.25591E-002	-1.07303E-003	-1.54466E-003	2.54520E-002	-1.67155E-003
	14	14	1.10060E+000	3.75407E-002	0.00000E+000	4.13174E-002	3.74369E-001	4.20572E-002	4.77453E+001	11	...........	6.98056E-002	-4.67681E-003	5.79658E-001	5.91124E-001	-2.81719E-002	-4.04275E-002	6.66871E-001	-4.37987E-002	2.62055E-003	-1.75570E-004	2.17608E-002	2.21912E-002	-1.05759E-003	-1.51768E-003	2.50348E-002	-1.64423E-003
	15	15	1.10056E+000	3.75230E-002	0.00000E+000	4.12962E-002	3.74192E-001	4.20712E-002	4.76628E+001	11	...........	6.97974E-002	-4.72722E-003	5.79539E-001	5.91169E-001	-2.82439E-002	-4.03706E-002	6.66785E-001	-4.38628E-002	2.61901E-003	-1.77380E-004	2.17461E-002	2.21824E-002	-1.05980E-003	-1.51483E-003	2.50198E-002	-1.64587E-003
	16	16	1.10062E+000	3.73692E-002	0.00000E+000	4.11295E-002	3.72666E-001	4.20350E-002	4.76484E+001	11	...........	6.97539E-002	-4.79889E-003	5.79440E-001	5.91296E-001	-2.82971E-002	-4.02885E-002	6.66758E-001	-4.39107E-002	2.60665E-003	-1.79331E-004	2.16532E-002	2.20963E-002	-1.05744E-003	-1.50555E-003	2.49162E-002	-1.64091E-003
	17	17	1.10061E+000	3.68748E-002	0.00000E+000	4.05848E-002	3.67744E-001	4.20149E-002	4.76054E+001	11	...........	6.97117E-002	-4.73153E-003	5.79371E-001	5.91344E-001	-2.83510E-002	-4.02137E-002	6.66659E-001	-4.39354E-002	2.57060E-003	-1.74474E-004	2.13642E-002	2.18057E-002	-1.04544E-003	-1.48287E-003	2.45829E-002	-1.62011E-003
	18	18	1.10055E+000	3.69747E-002	0.00000E+000	4.06926E-002	3.68733E-001	4.19897E-002	4.75871E+001	11	...........	6.96931E-002	-4.76306E-003	5.79264E-001	5.91484E-001	-2.84231E-002	-4.01226E-002	6.66679E-001	-4.38357E-002	2.57688E-003	-1.76113E-004	2.14181E-002	2.18700E-002	-1.05093E-003	-1.48352E-003	2.46503E-002	-1.62081E-003
	19	19	1.10062E+000	3.68903E-002	0.00000E+000	4.06022E-002	3.67895E-001	4.20573E-002	4.73815E+001	11	...........	6.98085E-002	-4.67236E-003	5.79284E-001	5.91424E-001	-2.84728E-002	-4.00715E-002	6.66791E-001	-4.38375E-002	2.57525E-003	-1.72365E-004	2.13700E-002	2.18178E-002	-1.05037E-003	-1.47825E-003	2.45981E-002	-1.61718E-003
	20	20	1.10061E+000	3.64309E-002	0.00000E+000	4.00963E-002	3.63328E-001	4.18913E-002	4.74234E+001	11	...........	6.97605E-002	-4.66361E-003	5.79199E-001	5.91631E-001	-2.85207E-002	-4.00603E-002	6.66925E-001	-4.38965E-002	2.54144E-003	-1.69899E-004	2.11007E-002	2.15536E-002	-1.03903E-003	-1.45943E-003	2.42967E-002	-1.59919E-003
	21	21	1.10055E+000	3.65380E-002	0.00000E+000	4.02120E-002	3.64394E-001	4.17501E-002	4.70640E+001	11	...........	6.96721E-002	-4.68389E-003	5.79231E-001	5.91664E-001	-2.85706E-002	-3.99904E-002	6.66878E-001	-4.39049E-002	2.54568E-003	-1.71140E-004	2.11639E-002	2.16182E-002	-1.04391E-003	-1.46117E-003	2.43664E-002	-1.60420E-003
	22	22	1.10062E+000	3.64896E-002	0.00000E+000	4.01612E-002	3.63912E-001	4.21966E-002	4.38573E+001	11	...........	7.04083E-002	-4.71500E-003	5.79258E-001	5.91765E-001	-2.86101E-002	-3.99314E-002	6.66891E-001	-4.38508E-002	2.56917E-003	-1.72049E-004	2.11369E-002	2.15933E-002	-1.04397E-003	-1.45708E-003	2.43346E-002	-1.60010E-003
	23	23	1.10062E+000	3.59281E-002	0.00000E+000	3.95430E-002	3.58329E-001	4.12527E-002	4.61270E+001	11	...........	6.88307E-002	-4.62597E-003	5.79054E-001	5.91790E-001	-2.86681E-002	-3.98919E-002	6.66835E-001	-4.38253E-002	2.47295E-003	-1.66202E-004	2.08043E-002	2.12619E-002	-1.02999E-003	-1.43324E-003	2.39581E-002	-1.57456E-003
	24	24	1.10055E+000	3.61944E-002	0.00000E+000	3.98339E-002	3.60978E-001	4.16093E-002	4.61067E+001	11	...........	6.94571E-002	-4.64681E-003	5.78859E-001	5.91803E-001	-2.87310E-002	-3.98632E-002	6.66797E-001	-4.39075E-002	2.51396E-003	-1.68188E-004	2.09515E-002	2.14200E-002	-1.03990E-003	-1.44283E-003	2.41343E-002	-1.58921E-003
	25	25	1.10061E+000	3.61184E-002	0.00000E+000	3.97523E-002	3.60224E-001	4.14072E-002	4.66661E+001	11	...........	6.91040E-002	-4.57889E-003	5.78856E-001	5.91881E-001	-2.88006E-002	-3.98147E-002	6.66919E-001	-4.39374E-002	2.49592E-003	-1.65382E-004	2.09073E-002	2.13778E-002	-1.04023E-003	-1.43804E-003	2.40880E-002	-1.58695E-003
	26	26	1.10062E+000	3.56974E-002	0.00000E+000	3.92893E-002	3.56038E-001	4.15152E-002	4.72771E+001	11	...........	6.93039E-002	-4.60417E-003	5.78867E-001	5.91962E-001	-2.88192E-002	-3.97987E-002	6.66873E-001	-4.37750E-002	2.47397E-003	-1.64357E-004	2.06640E-002	2.11315E-002	-1.02877E-003	-1.42071E-003	2.38056E-002	-1.56265E-003
	27	27	1.10055E+000	3.58401E-002	0.00000E+000	3.94438E-002	3.57457E-001	4.14897E-002	4.71660E+001	11	...........	6.92587E-002	-4.62292E-003	5.78867E-001	5.91896E-001	-2.88504E-002	-3.97767E-002	6.66849E-001	-4.37578E-002	2.48224E-003	-1.65686E-004	2.07467E-002	2.12136E-002	-1.03400E-003	-1.42560E-003	2.38999E-002	-1.56828E-003
	28	28	1.10061E+000	3.58081E-002	0.00000E+000	3.94108E-002	3.57140E-001	4.14087E-002	4.53502E+001	11	...........	6.91131E-002	-4.65778E-003	5.78817E-001	5.92096E-001	-2.88392E-002	-3.97775E-002	6.66953E-001	-4.37494E-002	2.47481E-003	-1.66786E-004	2.07263E-002	2.12018E-002	-1.03268E-003	-1.42436E-003	2.38823E-002	-1.56658E-003
	29	29	1.10063E+000	3.54273E-002	0.00000E+000	3.89922E-002	3.53356E-001	4.13998E-002	4.65419E+001	11	...........	6.90942E-002	-4.49250E-003	5.78787E-001	5.92282E-001	-2.88456E-002	-3.97664E-002	6.66852E-001	-4.38079E-002	2.44782E-003	-1.59157E-004	2.05049E-002	2.09830E-002	-1.02192E-003	-1.40882E-003	2.36248E-002	-1.55200E-003
	30	30	1.10055E+000	3.55364E-002	0.00000E+000	3.91095E-002	3.54439E-001	4.11047E-002	4.70431E+001	11	...........	6.91814E-002	-4.54667E-003	5.78726E-001	5.92357E-001	-2.88182E-002	-3.97114E-002	6.66842E-001	-4.38217E-002	2.45846E-003	-1.61572E-004	2.05658E-002	2.10502E-002	-1.02409E-003	-1.41120E-003	2.36972E-002	-1.55726E-003
	31	31	1.10061E+000	3.54878E-002	0.00000E+000	3.90582E-002	3.53959E-001	4.14702E-002	4.71481E+001	11	...........	6.92171E-002	-4.67042E-003	5.78934E-001	5.92404E-001	-2.88104E-002	-3.96803E-002	6.66784E-001	-4.38106E-002	2.45636E-003	-1.65743E-004	2.05451E-002	2.10231E-002	-1.02242E-003	-1.40817E-003	2.36627E-002	-1.55474E-003
	32	32	1.10063E+000	3.50686E-002	0.00000E+000	3.85975E-002	3.49786E-001	4.14304E-002	4.71568E+001	11	...........	6.91400E-002	-4.71014E-003	5.78859E-001	5.92393E-001	-2.87978E-002	-3.96462E-002	6.66868E-001	-4.38510E-002	2.42464E-003	-1.65178E-004	2.02998E-002	2.07744E-002	-1.00990E-003	-1.39034E-003	2.33861E-002	-1.53779E-003
	33	33	1.10055E+000	3.51758E-002	0.00000E+000	3.87126E-002	3.50858E-001	4.14031E-002	4.71062E+001	11	...........	6.90980E-002	-4.59458E-003	5.78842E-001	5.92431E-001	-2.87856E-002	-3.96010E-002	6.66830E-001	-4.37842E-002	2.43058E-003	-1.61618E-004	2.03612E-002	2.08392E-002	-1.01255E-003	-1.39299E-003	2.34563E-002	-1.54014E-003
	34	34	1.10061E+000	3.52076E-002	0.00000E+000	3.87497E-002	3.51174E-001	4.13867E-002	4.71443E+001	11	...........	6.90682E-002	-4.56375E-003	5.78902E-001	5.92463E-001	-2.88235E-002	-3.95962E-002	6.66962E-001	-4.37901E-002	2.43173E-003	-1.60679E-004	2.03818E-002	2.08592E-002	-1.01481E-003	-1.39409E-003	2.34821E-002	-1.54175E-003
	35	35	1.10063E+000	3.47951E-002	0.00000E+000	3.82966E-002	3.47069E-001	4.12694E-002	4.71758E+001	11	...........	6.90183E-002	-4.62653E-003	5.78959E-001	5.92435E-001	-2.88147E-002	-3.95860E-002	6.67048E-001	-4.37454E-002	2.40150E-003	-1.60981E-004	2.01450E-002	2.06138E-002	-1.00261E-003	-1.37740E-003	2.32100E-002	-1.52213E-003
	36	36	1.10055E+000	3.48969E-002	0.00000E+000	3.84057E-002	3.48085E-001	4.13493E-002	4.71581E+001	11	...........	6.89769E-002	-4.68944E-003	5.78923E-001	5.92400E-001	-2.88204E-002	-3.95704E-002	6.67014E-001	-4.38028E-002	2.40708E-003	-1.63647E-004	2.02027E-002	2.06729E-002	-1.00574E-003	-1.38089E-003	2.32767E-002	-1.52858E-003
	37	37	1.10060E+000	3.49036E-002	0.00000E+000	3.84150E-002	3.48151E-001	4.13153E-002	4.71491E+001	11	...........	6.89449E-002	-4.56542E-003	5.78905E-001	5.92549E-001	-2.88375E-002	-3.95560E-002	6.67008E-001	-4.38199E-002	2.40642E-003	-1.59350E-004	2.02059E-002	2.06821E-002	-1.00653E-003	-1.38065E-003	2.32810E-002	-1.52947E-003
	38	38	1.10064E+000	3.45060E-002	0.00000E+000	3.79785E-002	3.44198E-001	4.12910E-002	4.71292E+001	11	...........	6.88893E-002	-4.44333E-003	5.78848E-001	5.92514E-001	-2.88694E-002	-3.95732E-002	6.67175E-001	-4.38490E-002	2.37709E-003	-1.53321E-004	1.99737E-002	2.04453E-002	-9.96168E-004	-1.36551E-003	2.30215E-002	-1.51305E-003
	39	39	1.10055E+000	3.45883E-002	0.00000E+000	3.80660E-002	3.45017E-001	4.12624E-002	4.71237E+001	11	...........	6.88593E-002	-4.51681E-003	5.78681E-001	5.92502E-001	-2.88690E-002	-3.95431E-002	6.67283E-001	-4.39233E-002	2.38173E-003	-1.56229E-004	2.00156E-002	2.04936E-002	-9.98530E-004	-1.36773E-003	2.30802E-002	-1.51923E-003
	40	40	1.10060E+000	3.45891E-002	0.00000E+000	3.80689E-002	3.45020E-001	4.12440E-002	4.71063E+001	11	...........	6.87979E-002	-4.51417E-003	5.78735E-001	5.92473E-001	-2.88428E-002	-3.95418E-002	6.67218E-001	-4.38026E-002	2.37966E-003	-1.56141E-004	2.00180E-002	2.04931E-002	-9.97647E-004	-1.36772E-003	2.30785E-002	-1.51510E-003
	41	41	1.10064E+000	3.41573E-002	0.00000E+000	3.75948E-002	3.40728E-001	4.12224E-002	4.70963E+001	11	...........	6.87550E-002	-4.51403E-003	5.78683E-001	5.92489E-001	-2.88624E-002	-3.95231E-002	6.67073E-001	-4.37585E-002	2.34848E-003	-1.54187E-004	1.97662E-002	2.02378E-002	-9.85859E-004	-1.35000E-003	2.27854E-002	-1.49467E-003
	42	42	1.10054E+000	3.42709E-002	0.00000E+000	3.77166E-002	3.41858E-001	4.11870E-002	4.71070E+001	11	...........	6.87172E-002	-4.57667E-003	5.78652E-001	5.92499E-001	-2.88817E-002	-3.94962E-002	6.66950E-001	-4.36599E-002	2.35500E-003	-1.56846E-004	1.98309E-002	2.03055E-002	-9.89800E-004	-1.35357E-003	2.28570E-002	-1.49626E-003
	43	43	1.10060E+000	3.43122E-002	0.00000E+000	3.77640E-002	3.42264E-001	4.11630E-002	4.71069E+001	11	...........	6.86768E-002	-4.59528E-003	5.78714E-001	5.92609E-001	-2.88757E-002	-3.95019E-002	6.66921E-001	-4.36565E-002	2.35645E-003	-1.57674E-004	1.98569E-002	2.03337E-002	-9.90789E-004	-1.35540E-003	2.28835E-002	-1.49795E-003
	44	44	1.10064E+000	3.38865E-002	0.00000E+000	3.72968E-002	3.38036E-001	4.11327E-002	4.70891E+001	11	...........	6.86338E-002	-4.56722E-003	5.78849E-001	5.92689E-001	-2.88710E-002	-3.95018E-002	6.66960E-001	-4.36525E-002	2.32576E-003	-1.54767E-004	1.96152E-002	2.00841E-002	-9.78336E-004	-1.33858E-003	2.26009E-002	-1.47923E-003
	45	45	1.10054E+000	3.39775E-002	0.00000E+000	3.73937E-002	3.38942E-001	4.11102E-002	4.70794E+001	11	...........	6.85937E-002	-4.63722E-003	5.78788E-001	5.92571E-001	-2.88911E-002	-3.94858E-002	6.66897E-001	-4.36842E-002	2.33064E-003	-1.57561E-004	1.96658E-002	2.01341E-002	-9.81647E-004	-1.34163E-003	2.26595E-002	-1.48428E-003
	46	46	1.10060E+000	3.40075E-002	0.00000E+000	3.74286E-002	3.39243E-001	4.10870E-002	4.70854E+001	11	...........	6.85501E-002	-4.57806E-003	5.78805E-001	5.92664E-001	-2.88897E-002	-3.94765E-002	6.66913E-001	-4.37729E-002	2.33122E-003	-1.55688E-004	1.96837E-002	2.01550E-002	-9.82467E-004	-1.34250E-003	2.26800E-002	-1.48861E-003
	47	47	1.10064E+000	3.36373E-002	0.00000E+000	3.70227E-002	3.35561E-001	4.10544E-002	4.70603E+001	11	...........	6.85083E-002	-4.52042E-003	5.78817E-001	5.92575E-001	-2.88808E-002	-3.94357E-002	6.66931E-001	-4.37725E-002	2.30444E-003	-1.52055E-004	1.94699E-002	1.99326E-002	-9.71475E-004	-1.32651E-003	2.24338E-002	-1.47239E-003
	48	48	1.10055E+000	3.36987E-002	0.00000E+000	3.70870E-002	3.36168E-001	4.10239E-002	4.70310E+001	11	...........	6.84596E-002	-4.54097E-003	5.78830E-001	5.92451E-001	-2.89268E-002	-3.94486E-002	6.66934E-001	-4.37924E-002	2.30700E-003	-1.53025E-004	1.95059E-002	1.99649E-002	-9.74797E-004	-1.32937E-003	2.24748E-002	-1.47575E-003
	49	49	1.10060E+000	3.37414E-002	0.00000E+000	3.71356E-002	3.36595E-001	4.09981E-002	4.70382E+001	11	...........	6.84168E-002	-4.66194E-003	5.78879E-001	5.92355E-001	-2.89529E-002	-3.94511E-002	6.66981E-001	-4.38475E-002	2.30848E-003	-1.57300E-004	1.95322E-002	1.99869E-002	-9.76911E-004	-1.33113E-003	2.25049E-002	-1.47947E-003
	50	50	1.10064E+000	3.33698E-002	0.00000E+000	3.67283E-002	3.32900E-001	4.09727E-002	4.70380E+001	11	...........	6.83750E-002	-4.68444E-003	5.78866E-001	5.92560E-001	-2.89451E-002	-3.94303E-002	6.67000E-001	-4.38057E-002	2.28166E-003	-1.56319E-004	1.93167E-002	1.97736E-002	-9.65894E-004	-1.31578E-003	2.22577E-002	-1.46179E-003
	51	51	1.10054E+000	3.34244E-002	0.00000E+000	3.67850E-002	3.33440E-001	4.09366E-002	4.70418E+001	11	...........	6.83183E-002	-4.67125E-003	5.78857E-001	5.92611E-001	-2.89499E-002	-3.94464E-002	6.67057E-001	-4.39329E-002	2.28350E-003	-1.56134E-004	1.93479E-002	1.98077E-002	-9.67631E-004	-1.31847E-003	2.22960E-002	-1.46843E-003
	52	52	1.10059E+000	3.34790E-002	0.00000E+000	3.68468E-002	3.33985E-001	4.09643E-002	4.69534E+001	11	...........	6.83656E-002	-4.60667E-003	5.78840E-001	5.92560E-001	-2.89778E-002	-3.94310E-002	6.67038E-001	-4.40693E-002	2.28881E-003	-1.54227E-004	1.93790E-002	1.98383E-002	-9.70147E-004	-1.32011E-003	2.23318E-002	-1.47540E-003
	53	53	1.10065E+000	3.31335E-002	0.00000E+000	3.64683E-002	3.30551E-001	4.09474E-002	4.68988E+001	11	...........	6.83269E-002	-4.58069E-003	5.78771E-001	5.92592E-001	-2.89976E-002	-3.94189E-002	6.66958E-001	-4.39044E-002	2.26391E-003	-1.51774E-004	1.91767E-002	1.96347E-002	-9.60794E-004	-1.30609E-003	2.20987E-002	-1.45471E-003
	54	54	1.10054E+000	3.31730E-002	0.00000E+000	3.65084E-002	3.30943E-001	4.08501E-002	4.70179E+001	11	...........	6.81711E-002	-4.54097E-003	5.78773E-001	5.92547E-001	-2.90142E-002	-3.94321E-002	6.66977E-001	-4.38878E-002	2.26144E-003	-1.50638E-004	1.91996E-002	1.96566E-002	-9.62487E-004	-1.30808E-003	2.21256E-002	-1.45589E-003
	55	55	1.10059E+000	3.32059E-002	0.00000E+000	3.65461E-002	3.31271E-001	4.08316E-002	4.70262E+001	11	...........	6.81360E-002	-4.56083E-003	5.78784E-001	5.92588E-001	-2.90458E-002	-3.94443E-002	6.67138E-001	-4.39733E-002	2.26251E-003	-1.51446E-004	1.92190E-002	1.96774E-002	-9.64492E-004	-1.30978E-003	2.21529E-002	-1.46017E-003
	56	56	1.10065E+000	3.28513E-002	0.00000E+000	3.61577E-002	3.27744E-001	4.08055E-002	4.70389E+001	11	...........	6.81075E-002	-4.57750E-003	5.78874E-001	5.92603E-001	-2.90467E-002	-3.94249E-002	6.67134E-001	-4.40019E-002	2.23742E-003	-1.50377E-004	1.90168E-002	1.94678E-002	-9.54220E-004	-1.29516E-003	2.19162E-002	-1.44552E-003
	57	57	1.10054E+000	3.28845E-002	0.00000E+000	3.61908E-002	3.28073E-001	4.07866E-002	4.70493E+001	11	...........	6.80786E-002	-4.62931E-003	5.78847E-001	5.92542E-001	-2.90374E-002	-3.94219E-002	6.67169E-001	-4.38665E-002	2.23873E-003	-1.52232E-004	1.90351E-002	1.94854E-002	-9.54878E-004	-1.29637E-003	2.19395E-002	-1.44253E-003
	58	58	1.10059E+000	3.29442E-002	0.00000E+000	3.62580E-002	3.28669E-001	4.07639E-002	4.70472E+001	11	...........	6.80432E-002	-4.58486E-003	5.78983E-001	5.92486E-001	-2.90611E-002	-3.94350E-002	6.67131E-001	-4.38135E-002	2.24163E-003	-1.51044E-004	1.90741E-002	1.95190E-002	-9.57394E-004	-1.29915E-003	2.19781E-002	-1.44340E-003
	59	59	1.10065E+000	3.25941E-002	0.00000E+000	3.58746E-002	3.25187E-001	4.07265E-002	4.70535E+001	11	...........	6.79763E-002	-4.54347E-003	5.78899E-001	5.92289E-001	-2.90736E-002	-3.94393E-002	6.67085E-001	-4.38596E-002	2.21562E-003	-1.48090E-004	1.88687E-002	1.93051E-002	-9.47627E-004	-1.28549E-003	2.17430E-002	-1.42956E-003
	60	60	1.10054E+000	3.26075E-002	0.00000E+000	3.58860E-002	3.25320E-001	4.07142E-002	4.70644E+001	11	...........	6.79401E-002	-4.53056E-003	5.78979E-001	5.92258E-001	-2.90411E-002	-3.94392E-002	6.66938E-001	-4.37889E-002	2.21536E-003	-1.47730E-004	1.88791E-002	1.93120E-002	-9.46958E-004	-1.28601E-003	2.17472E-002	-1.42785E-003
	61	61	1.10059E+000	3.26848E-002	0.00000E+000	3.59725E-002	3.26089E-001	4.06794E-002	4.70739E+001	11	...........	6.78949E-002	-4.63167E-003	5.79197E-001	5.92213E-001	-2.90350E-002	-3.94468E-002	6.66941E-001	-4.40085E-002	2.21913E-003	-1.51385E-004	1.89309E-002	1.93563E-002	-9.49002E-004	-1.28931E-003	2.17988E-002	-1.43841E-003
	62	62	1.10065E+000	3.23505E-002	0.00000E+000	3.56066E-002	3.22768E-001	4.06699E-002	4.70700E+001	11	...........	6.78561E-002	-4.50500E-003	5.79289E-001	5.92292E-001	-2.90265E-002	-3.94640E-002	6.66934E-001	-4.39533E-002	2.19518E-003	-1.45739E-004	1.87403E-002	1.91610E-002	-9.39024E-004	-1.27668E-003	2.15757E-002	-1.42191E-003
	63	63	1.10054E+000	3.23557E-002	0.00000E+000	3.56089E-002	3.22819E-001	4.06280E-002	4.70639E+001	11	...........	6.78072E-002	-4.51611E-003	5.79176E-001	5.92207E-001	-2.90275E-002	-3.94639E-002	6.66970E-001	-4.39575E-002	2.19395E-003	-1.46122E-004	1.87396E-002	1.91613E-002	-9.39205E-004	-1.27688E-003	2.15803E-002	-1.42227E-003
	64	64	1.10059E+000	3.24302E-002	0.00000E+000	3.56923E-002	3.23561E-001	4.06008E-002	4.70621E+001	11	...........	6.77547E-002	-4.64736E-003	5.79458E-001	5.92260E-001	-2.89981E-002	-3.94510E-002	6.67056E-001	-4.39026E-002	2.19730E-003	-1.50715E-004	1.87919E-002	1.92071E-002	-9.40412E-004	-1.27940E-003	2.16327E-002	-1.42377E-003
	65	65	1.10065E+000	3.20969E-002	0.00000E+000	3.53275E-002	3.20246E-001	4.06858E-002	4.68108E+001	11	...........	6.78964E-002	-4.66208E-003	5.79421E-001	5.92292E-001	-2.89787E-002	-3.94676E-002	6.67011E-001	-4.39813E-002	2.17926E-003	-1.49638E-004	1.85976E-002	1.90107E-002	-9.30127E-004	-1.26679E-003	2.14090E-002	-1.41166E-003
	66	66	1.10054E+000	3.20972E-002	0.00000E+000	3.53244E-002	3.20249E-001	4.05432E-002	4.70269E+001	11	...........	6.76500E-002	-4.63333E-003	5.79410E-001	5.92264E-001	-2.89724E-002	-3.94640E-002	6.67054E-001	-4.39182E-002	2.17138E-003	-1.48717E-004	1.85975E-002	1.90100E-002	-9.29932E-004	-1.26669E-003	2.14106E-002	-1.40965E-003
	67	67	1.10059E+000	3.21849E-002	0.00000E+000	3.54223E-002	3.21119E-001	4.07193E-002	4.67422E+001	11	...........	6.79685E-002	-4.67597E-003	5.79297E-001	5.92196E-001	-2.89744E-002	-3.94678E-002	6.67094E-001	-4.38757E-002	2.18756E-003	-1.50496E-004	1.86446E-002	1.90598E-002	-9.32541E-004	-1.27027E-003	2.14704E-002	-1.41214E-003
	68	68	1.10065E+000	3.18654E-002	0.00000E+000	3.50728E-002	3.17942E-001	4.03986E-002	4.70142E+001	11	...........	6.74190E-002	-4.64792E-003	5.79168E-001	5.92187E-001	-2.89958E-002	-3.94868E-002	6.67105E-001	-4.38418E-002	2.14834E-003	-1.48108E-004	1.84554E-002	1.88703E-002	-9.23965E-004	-1.25826E-003	2.12576E-002	-1.39704E-003
	69	69	1.10055E+000	3.18196E-002	0.00000E+000	3.50189E-002	3.17487E-001	4.04909E-002	4.69727E+001	11	...........	6.75489E-002	-4.60542E-003	5.79147E-001	5.92018E-001	-2.89915E-002	-3.94907E-002	6.67117E-001	-4.38106E-002	2.14938E-003	-1.46542E-004	1.84282E-002	1.88378E-002	-9.22498E-004	-1.25658E-003	2.12274E-002	-1.39403E-003
	70	70	1.10059E+000	3.19032E-002	0.00000E+000	3.51122E-002	3.18320E-001	4.04625E-002	4.70422E+001	11	...........	6.75274E-002	-4.60181E-003	5.79144E-001	5.92005E-001	-2.90021E-002	-3.95011E-002	6.67079E-001	-4.38336E-002	2.15434E-003	-1.46812E-004	1.84765E-002	1.88868E-002	-9.25259E-004	-1.26021E-003	2.12820E-002	-1.39843E-003
	71	71	1.10065E+000	3.16129E-002	0.00000E+000	3.47948E-002	3.15428E-001	4.04490E-002	4.70370E+001	11	...........	6.74914E-002	-4.65056E-003	5.79168E-001	5.91941E-001	-2.90286E-002	-3.95165E-002	6.66947E-001	-4.37475E-002	2.13360E-003	-1.47017E-004	1.83091E-002	1.87130E-002	-9.17677E-004	-1.24923E-003	2.10841E-002	-1.38298E-003
	72	72	1.10055E+000	3.15599E-002	0.00000E+000	3.47332E-002	3.14904E-001	4.04358E-002	4.70279E+001	11	...........	6.74800E-002	-4.70931E-003	5.79136E-001	5.91914E-001	-2.90476E-002	-3.94775E-002	6.67001E-001	-4.37860E-002	2.12966E-003	-1.48625E-004	1.82775E-002	1.86808E-002	-9.16741E-004	-1.24591E-003	2.10505E-002	-1.38188E-003
	73	73	1.10058E+000	3.16387E-002	0.00000E+000	3.48211E-002	3.15691E-001	4.04107E-002	4.70382E+001	11	...........	6.74432E-002	-4.73194E-003	5.79028E-001	5.91992E-001	-2.90193E-002	-3.94657E-002	6.67067E-001	-4.37967E-002	2.13381E-003	-1.49713E-004	1.83197E-002	1.87299E-002	-9.18133E-004	-1.24864E-003	2.11051E-002	-1.38567E-003
	74	74	1.10065E+000	3.13598E-002	0.00000E+000	3.45162E-002	3.12915E-001	4.03680E-002	4.70461E+001	11	...........	6.73774E-002	-4.67597E-003	5.78823E-001	5.91997E-001	-2.90071E-002	-3.94594E-002	6.66992E-001	-4.38093E-002	2.11294E-003	-1.46637E-004	1.81518E-002	1.85649E-002	-9.09655E-004	-1.23744E-003	2.09167E-002	-1.37385E-003
	75	75	1.10055E+000	3.13049E-002	0.00000E+000	3.44525E-002	3.12372E-001	4.03503E-002	4.70318E+001	11	...........	6.73305E-002	-4.71347E-003	5.78848E-001	5.92011E-001	-2.90021E-002	-3.94679E-002	6.66987E-001	-4.38065E-002	2.10778E-003	-1.47555E-004	1.81208E-002	1.85329E-002	-9.07908E-004	-1.23554E-003	2.08800E-002	-1.37136E-003
	76	76	1.10058E+000	3.13960E-002	0.00000E+000	3.45540E-002	3.13276E-001	4.05279E-002	4.68248E+001	11	...........	6.76272E-002	-4.72944E-003	5.79064E-001	5.92039E-001	-2.89860E-002	-3.94699E-002	6.67084E-001	-4.37926E-002	2.12323E-003	-1.48486E-004	1.81803E-002	1.85877E-002	-9.10044E-004	-1.23920E-003	2.09438E-002	-1.37491E-003
	77	77	1.10065E+000	3.11087E-002	0.00000E+000	3.42399E-002	3.10421E-001	4.03370E-002	4.44208E+001	11	...........	6.73185E-002	-4.74611E-003	5.79342E-001	5.91974E-001	-2.89924E-002	-3.94628E-002	6.67085E-001	-4.38174E-002	2.09419E-003	-1.47645E-004	1.80226E-002	1.84155E-002	-9.01914E-004	-1.22764E-003	2.07521E-002	-1.36310E-003
	78	78	1.10054E+000	3.09166E-002	0.00000E+000	3.40251E-002	3.08511E-001	3.99934E-002	4.59814E+001	11	...........	6.67501E-002	-4.70444E-003	5.79349E-001	5.91986E-001	-2.89849E-002	-3.94574E-002	6.66977E-001	-4.38293E-002	2.06369E-003	-1.45446E-004	1.79115E-002	1.83022E-002	-8.96114E-004	-1.21989E-003	2.06207E-002	-1.35505E-003
	79	79	1.10058E+000	3.11715E-002	0.00000E+000	3.43069E-002	3.11044E-001	4.06355E-002	4.65769E+001	11	...........	6.78140E-002	-4.75736E-003	5.79417E-001	5.92052E-001	-2.90057E-002	-3.94451E-002	6.66997E-001	-4.38294E-002	2.11387E-003	-1.48294E-004	1.80613E-002	1.84552E-002	-9.04152E-004	-1.22957E-003	2.07913E-002	-1.36623E-003
	80	80	1.10065E+000	3.09008E-002	0.00000E+000	3.40110E-002	3.08356E-001	3.99943E-002	4.70474E+001	11	...........	6.67468E-002	-4.68778E-003	5.79346E-001	5.92034E-001	-2.90611E-002	-3.94331E-002	6.66920E-001	-4.37961E-002	2.06253E-003	-1.44856E-004	1.79022E-002	1.82943E-002	-8.98011E-004	-1.21851E-003	2.06083E-002	-1.35333E-003
	81	81	1.10055E+000	3.08345E-002	0.00000E+000	3.39350E-002	3.07700E-001	4.00996E-002	4.68727E+001	11	...........	6.69285E-002	-4.66347E-003	5.79351E-001	5.91904E-001	-2.90957E-002	-3.94199E-002	6.66950E-001	-4.38433E-002	2.06371E-003	-1.43796E-004	1.78640E-002	1.82511E-002	-8.97153E-004	-1.21549E-003	2.05651E-002	-1.35189E-003
	82	82	1.10058E+000	3.09453E-002	0.00000E+000	3.40578E-002	3.08800E-001	4.01218E-002	4.71631E+001	11	...........	6.69604E-002	-4.64972E-003	5.79271E-001	5.91799E-001	-2.90201E-002	-3.94692E-002	6.66927E-001	-4.38644E-002	2.07211E-003	-1.43887E-004	1.79257E-002	1.83134E-002	-8.98036E-004	-1.22138E-003	2.06382E-002	-1.35740E-003
	83	83	1.10065E+000	3.06838E-002	0.00000E+000	3.37721E-002	3.06199E-001	4.01470E-002	4.62895E+001	11	...........	6.69978E-002	-4.77139E-003	5.79249E-001	5.91642E-001	-2.90310E-002	-3.94861E-002	6.66971E-001	-4.38351E-002	2.05574E-003	-1.46404E-004	1.77735E-002	1.81538E-002	-8.90779E-004	-1.21158E-003	2.04652E-002	-1.34503E-003
	84	84	1.10055E+000	3.05498E-002	0.00000E+000	3.36217E-002	3.04872E-001	3.99129E-002	4.57879E+001	11	...........	6.66056E-002	-4.62306E-003	5.79301E-001	5.91677E-001	-2.90374E-002	-3.94735E-002	6.67041E-001	-4.38268E-002	2.03479E-003	-1.41234E-004	1.76976E-002	1.80756E-002	-8.87086E-004	-1.20591E-003	2.03780E-002	-1.33890E-003
	85	85	1.10058E+000	3.07514E-002	0.00000E+000	3.38445E-002	3.06871E-001	4.01418E-002	4.70106E+001	11	...........	6.69874E-002	-4.69250E-003	5.79216E-001	5.91823E-001	-2.90597E-002	-3.94540E-002	6.67115E-001	-4.39383E-002	2.05996E-003	-1.44301E-004	1.78117E-002	1.81994E-002	-8.93628E-004	-1.21327E-003	2.05148E-002	-1.35117E-003
	86	86	1.10065E+000	3.04992E-002	0.00000E+000	3.35689E-002	3.04364E-001	4.00442E-002	4.72361E+001	11	...........	6.68369E-002	-4.68389E-003	5.79184E-001	5.91840E-001	-2.90529E-002	-3.94646E-002	6.67067E-001	-4.40933E-002	2.03847E-003	-1.42855E-004	1.76647E-002	1.80506E-002	-8.86090E-004	-1.20364E-003	2.03450E-002	-1.34481E-003
	87	87	1.10056E+000	3.03618E-002	0.00000E+000	3.34148E-002	3.02996E-001	3.99853E-002	4.72316E+001	11	...........	6.67511E-002	-4.51750E-003	5.79103E-001	5.91830E-001	-2.90567E-002	-3.94628E-002	6.67106E-001	-4.40057E-002	2.02668E-003	-1.37159E-004	1.75826E-002	1.79690E-002	-8.82212E-004	-1.19816E-003	2.02545E-002	-1.33609E-003
	88	88	1.10058E+000	3.04712E-002	0.00000E+000	3.35359E-002	3.04084E-001	3.99673E-002	4.72642E+001	11	...........	6.67124E-002	-4.55944E-003	5.79133E-001	5.91737E-001	-2.90821E-002	-3.94874E-002	6.66869E-001	-4.38992E-002	2.03280E-003	-1.38932E-004	1.76469E-002	1.80309E-002	-8.86165E-004	-1.20323E-003	2.03203E-002	-1.33766E-003
	89	89	1.10065E+000	3.02419E-002	0.00000E+000	3.32857E-002	3.01803E-001	3.99386E-002	4.72948E+001	11	...........	6.66642E-002	-4.55028E-003	5.79087E-001	5.91601E-001	-2.90396E-002	-3.94853E-002	6.66889E-001	-4.38314E-002	2.01605E-003	-1.37609E-004	1.75127E-002	1.78911E-002	-8.78211E-004	-1.19411E-003	2.01680E-002	-1.32554E-003
	90	90	1.10055E+000	3.01159E-002	0.00000E+000	3.31442E-002	3.00550E-001	4.00117E-002	4.70957E+001	11	...........	6.67857E-002	-4.63917E-003	5.79212E-001	5.91537E-001	-2.90736E-002	-3.94922E-002	6.66874E-001	-4.38486E-002	2.01131E-003	-1.39713E-004	1.74435E-002	1.78147E-002	-8.75578E-004	-1.18934E-003	2.00835E-002	-1.32054E-003
	91	91	1.10058E+000	3.02374E-002	0.00000E+000	3.32786E-002	3.01756E-001	3.99081E-002	4.72768E+001	11	...........	6.66250E-002	-4.59681E-003	5.79289E-001	5.91463E-001	-2.90699E-002	-3.94946E-002	6.66943E-001	-4.38713E-002	2.01457E-003	-1.38995E-004	1.75162E-002	1.78843E-002	-8.78997E-004	-1.19421E-003	2.01666E-002	-1.32655E-003
	92	92	1.10065E+000	3.00121E-002	0.00000E+000	3.30327E-002	2.99520E-001	4.01792E-002	4.60992E+001	11	...........	6.70528E-002	-4.65208E-003	5.79491E-001	5.91595E-001	-2.90306E-002	-3.95010E-002	6.66920E-001	-4.39433E-002	2.01239E-003	-1.39619E-004	1.73917E-002	1.77550E-002	-8.71267E-004	-1.18551E-003	2.00156E-002	-1.31883E-003
	93	93	1.10056E+000	2.98426E-002	0.00000E+000	3.28435E-002	2.97832E-001	3.95865E-002	4.64227E+001	11	...........	6.60442E-002	-4.67972E-003	5.79373E-001	5.91667E-001	-2.90237E-002	-3.95025E-002	6.66972E-001	-4.39337E-002	1.97093E-003	-1.39655E-004	1.72900E-002	1.76569E-002	-8.66145E-004	-1.17886E-003	1.99042E-002	-1.31110E-003
	94	94	1.10058E+000	3.00200E-002	0.00000E+000	3.30394E-002	2.99593E-001	3.99217E-002	4.70493E+001	11	...........	6.66303E-002	-4.62278E-003	5.79339E-001	5.91586E-001	-2.91008E-002	-3.95029E-002	6.67013E-001	-4.39515E-002	2.00024E-003	-1.38776E-004	1.73918E-002	1.77594E-002	-8.73607E-004	-1.18588E-003	2.00237E-002	-1.31942E-003
	95	95	1.10065E+000	2.97959E-002	0.00000E+000	3.27948E-002	2.97364E-001	3.98831E-002	4.72591E+001	11	...........	6.65753E-002	-4.59972E-003	5.79008E-001	5.91447E-001	-2.90462E-002	-3.95322E-002	6.66878E-001	-4.38771E-002	1.98367E-003	-1.37053E-004	1.72521E-002	1.76227E-002	-8.65459E-004	-1.17790E-003	1.98702E-002	-1.30736E-003
	96	96	1.10056E+000	2.96566E-002	0.00000E+000	3.26388E-002	2.95985E-001	3.98467E-002	4.72904E+001	11	...........	6.65228E-002	-4.61986E-003	5.78936E-001	5.91219E-001	-2.98783E-002	-3.95392E-002	6.66793E-001	-4.38850E-002	1.97284E-003	-1.37009E-004	1.71692E-002	1.75335E-002	-8.86089E-004	-1.17260E-003	1.97748E-002	-1.30148E-003
	97	97	1.10058E+000	2.97961E-002	0.00000E+000	3.27929E-002	2.97367E-001	3.98263E-002	4.73234E+001	11	...........	6.64797E-002	-4.57694E-003	5.78940E-001	5.91066E-001	-3.60586E-002	-4.06404E-002	6.67062E-001	-4.39857E-002	1.98084E-003	-1.36375E-004	1.72501E-002	1.76115E-002	-1.07441E-003	-1.21093E-003	1.98758E-002	-1.31060E-003
	98	98	1.10064E+000	2.95590E-002	0.00000E+000	3.25339E-002	2.95007E-001	3.98093E-002	4.73305E+001	11	...........	6.64406E-002	-4.60181E-003	5.78943E-001	5.90792E-001	-5.73717E-002	-4.50857E-002	6.67359E-001	-4.39710E-002	1.96391E-003	-1.36025E-004	1.71130E-002	1.74632E-002	-1.69585E-003	-1.33269E-003	1.97265E-002	-1.29974E-003
	99	99	1.10056E+000	2.94137E-002	0.00000E+000	3.23716E-002	2.93567E-001	3.97876E-002	4.73315E+001	11	...........	6.63940E-002	-4.53514E-003	5.78629E-001	5.90924E-001	-4.16696E-002	-4.56208E-002	6.66884E-001	-4.38229E-002	1.95289E-003	-1.33395E-004	1.70196E-002	1.73813E-002	-1.22566E-003	-1.34188E-003	1.96155E-002	-1.28899E-003
	100	100	1.10058E+000	2.95651E-002	0.00000E+000	3.25386E-002	2.95072E-001	3.97797E-002	4.73050E+001	11	...........	6.63821E-002	-4.58514E-003	5.78497E-001	5.90989E-001	-3.12881E-002	-4.44024E-002	6.66810E-001	-4.38551E-002	1.96259E-003	-1.35560E-004	1.71033E-002	1.74726E-002	-9.25033E-004	-1.31276E-003	1.97143E-002	-1.29658E-003
	101	101	1.10064E+000	2.93701E-002	0.00000E+000	3.23260E-002	2.93137E-001	3.98934E-002	4.71569E+001	11	...........	6.65576E-002	-4.58722E-003	5.78555E-001	5.91083E-001	-2.99469E-002	-4.40818E-002	6.67049E-001	-4.39181E-002	1.95480E-003	-1.34727E-004	1.69922E-002	1.73602E-002	-8.79545E-004	-1.29469E-003	1.95913E-002	-1.28988E-003
	102	102	1.10056E+000	2.91833E-002	0.00000E+000	3.21181E-002	2.91277E-001	3.96709E-002	4.72293E+001	11	...........	6.62007E-002	-4.60750E-003	5.78492E-001	5.90980E-001	-3.69386E-002	-4.50346E-002	6.67252E-001	-4.39854E-002	1.93195E-003	-1.34462E-004	1.68823E-002	1.72467E-002	-1.07799E-003	-1.31426E-003	1.94726E-002	-1.28364E-003
	103	103	1.10058E+000	2.93213E-002	0.00000E+000	3.22703E-002	2.92648E-001	3.98722E-002	4.68499E+001	11	...........	6.65407E-002	-4.59569E-003	5.78541E-001	5.90928E-001	-3.41422E-002	-4.55742E-002	6.67104E-001	-4.39093E-002	1.95106E-003	-1.34752E-004	1.69636E-002	1.73268E-002	-1.00109E-003	-1.33629E-003	1.95604E-002	-1.28748E-003
	104	104	1.10064E+000	2.91467E-002	0.00000E+000	3.20801E-002	2.90911E-001	3.99075E-002	4.68511E+001	11	...........	6.65957E-002	-4.57694E-003	5.78520E-001	5.91086E-001	-1.93396E-002	-4.31585E-002	6.66904E-001	-4.39081E-002	1.94105E-003	-1.33403E-004	1.68620E-002	1.72282E-002	-5.63685E-004	-1.25793E-003	1.94381E-002	-1.27978E-003
	105	105	1.10057E+000	2.89469E-002	0.00000E+000	3.18579E-002	2.88930E-001	3.95728E-002	4.70732E+001	11	...........	6.60286E-002	-4.56944E-003	5.78648E-001	5.91217E-001	-1.48082E-002	-4.12131E-002	6.67009E-001	-4.37683E-002	1.91132E-003	-1.32271E-004	1.67500E-002	1.71139E-002	-4.28651E-004	-1.19299E-003	1.93078E-002	-1.26696E-003
	106	106	1.10058E+000	2.90807E-002	0.00000E+000	3.20055E-002	2.90260E-001	3.98941E-002	4.60745E+001	11	...........	6.65740E-002	-4.73597E-003	5.78786E-001	5.91203E-001	-1.56208E-002	-3.99708E-002	6.67229E-001	-4.37974E-002	1.93602E-003	-1.37725E-004	1.68315E-002	1.71926E-002	-4.54264E-004	-1.16238E-003	1.94035E-002	-1.27366E-003
	107	107	1.10064E+000	2.89265E-002	0.00000E+000	3.18377E-002	2.88731E-001	3.96127E-002	4.64430E+001	11	...........	6.60911E-002	-4.74056E-003	5.78867E-001	5.91188E-001	-1.80757E-002	-3.92067E-002	6.67280E-001	-4.38536E-002	1.91178E-003	-1.37128E-004	1.67446E-002	1.71010E-002	-5.22867E-004	-1.13411E-003	1.93021E-002	-1.26853E-003
	108	108	1.10057E+000	2.87570E-002	0.00000E+000	3.16490E-002	2.87045E-001	3.95955E-002	4.65531E+001	11	...........	6.60687E-002	-4.75847E-003	5.78728E-001	5.91095E-001	-2.05244E-002	-3.86042E-002	6.67109E-001	-4.39481E-002	1.89994E-003	-1.36839E-004	1.66425E-002	1.69981E-002	-5.90221E-004	-1.11014E-003	1.91840E-002	-1.26381E-003
	109	109	1.10058E+000	2.89133E-002	0.00000E+000	3.18212E-002	2.88603E-001	3.96192E-002	4.66275E+001	11	...........	6.61107E-002	-4.72486E-003	5.78823E-001	5.91181E-001	-2.24425E-002	-3.82017E-002	6.67183E-001	-4.38665E-002	1.91148E-003	-1.36611E-004	1.67357E-002	1.70930E-002	-6.48886E-004	-1.10453E-003	1.92904E-002	-1.26832E-003
	110	109.073	1.10137E+000	2.84207E-002	0.00000E+000	3.13018E-002	2.83705E-001	3.96693E-002	4.67380E+001	11	...........	6.61629E-002	-4.69697E-003	5.78816E-001	5.91136E-001	-2.35227E-002	-3.79735E-002	6.67214E-001	-4.37576E-002	1.88040E-003	-1.33491E-004	1.64504E-002	1.68005E-002	-6.68533E-004	-1.07923E-003	1.89627E-002	-1.24362E-003
STARTTIMEOFFSET	QUANT	530374.2	Start Time Offset (s)
