EXPLAIN
TAG	PWR800_CHARGE
TITLE	LABEL	PWR Charge	Test Identifier
DATE	LABEL	10/12/2022	Date
TIME	LABEL	19:14:15	Time
NOTES	NOTES	1	Notes...
	
PSTAT	PSTAT	REF3000-21114	Potentiostat
CAPACITY	QUANT	5.30000E-002	Capacity (A-hr)
CELLTYPE	SELECTOR	1	Cell Type
WORKINGCONNECTION	SELECTOR	0	Working Connection
MAXCHARGETIME	VARIABLEANDUNITS	7.20000E+003	s	2.00000E+000	hour(s)	Max Charge Time
CHARGEMODE	MULTIPARAM	0	1.00000E-001	Charge Mode	Constant Current	Amp(s)
CHARGECURRENT	QUANT	0.1	Charge Current (A)
VOLTAGEFINISH	TWOPARAM	T	2.50000E-002	7.20000E+003	Voltage Finish	I (A) <	Max Time(s)
SAMPLETIME	QUANT	1.00000E+000	Sample Period (s)
CHARGESTOPAT1	MULTIPARAM	2	1.10000E+000	Stop At 1	|Voltage| > Limit	V
CHARGESTOPAT2	MULTIPARAM	0	0.00000E+000	Stop At 2	None	N/A
AESELECTOR	AESELECTOR	0x1	T	Set Limits	AE Channels
AESBHCSELECTOR	TOGGLE	F	Save Both Half Cells
IRCOMP	TOGGLE	F	IR Measure
EOC	QUANT	0.2579076	Open Circuit (V)
SEQUENCER	TOGGLE	TRUE	Run as Sequence
PSTATMODEL	IQUANT	5	Pstat Model
PSTATSECTION	LABEL	REF3000-21114	Pstat Section
PSTATSERIALNO	LABEL	21114	Pstat Serial Number
CTRLMODE	IQUANT	0	Control Mode
ELECTROMETER	IQUANT	0	RE=0 or CS=1
IESTAB	IQUANT	0	I/E Stability
CASPEED	IQUANT	4	Control Amp Speed
CONVENTION	IQUANT	1	Current Convention
ICHRANGE	IQUANT	2	Ich Range
ICHRANGEMODE	TOGGLE	T	Ich Auto Range
ICHOFFSETENABLE	TOGGLE	F	Ich Offset Enable
ICHOFFSET	QUANT	0	Ich Offset (V)
ICHFILTER	IQUANT	1	Ich Filter
VCHRANGE	IQUANT	3	Vch Range
VCHRANGEMODE	TOGGLE	T	Vch Auto Range
VCHOFFSETENABLE	TOGGLE	F	Vch Offset Enable
VCHOFFSET	QUANT	0	Vch Offset (V)
VCHFILTER	IQUANT	1	Vch Filter
ACHRANGE	IQUANT	2	Ach Range
ACHOFFSETENABLE	TOGGLE	F	Ach Offset Enable
ACHOFFSET	QUANT	0	Ach Offset (V)
ACHFILTER	IQUANT	1	Ach Filter
IERANGELOWERLIMIT	IQUANT	9	I/E Range Lower Limit
IERANGEMODE	TOGGLE	F	I/E AutoRange
IERANGE	IQUANT	9	I/E Range
POSFEEDENABLE	TOGGLE	F	Positive Feedback IR Comp
POSFEEDRESISTANCE	QUANT	0	Positive Feedback Resistance (ohm)
ACHSELECT	IQUANT	1	Ach Select
SENSECABLEID	IQUANT	13	Sense Cable ID
PWRCABLEID	IQUANT	13	Power Cable ID
DCCALDATE	LABEL		DC Calibration Date
ACCALDATE	LABEL		AC Calibration Date
THERMOSELECT	IQUANT	1	Thermo Select
FRAMEWORKVERSION	LABEL	7.8.6	Framework Version
INSTRUMENTVERSION	LABEL	4.50	Instrument Version
COMPLIANCEVOLTAGE	IQUANT	0	Compliance Voltage
CURVE	TABLE	77
	Pt	T	Vf	Im	Vu	Pwr	Sig	Ach	Temp	IERange	Over	Vf1	Vf2	Vf3	Vf4	Vf5	Vf6	Vf7	Vf8	Pwr1	Pwr2	Pwr3	Pwr4	Pwr5	Pwr6	Pwr7	Pwr8
	#	s	V	A	V	W	V	V	deg C	#	bits	V	V	V	V	V	V	V	V	W	W	W	W	W	W	W	W
	0	1	5.48668E-001	9.98655E-002	0.00000E+000	5.47930E-002	9.94000E-001	4.06486E-002	4.12002E+001	11	...........	6.74525E-002	-3.74806E-003	5.56329E-001	6.52344E-001	-2.98954E-002	-3.91817E-002	6.38291E-001	-4.29307E-002	6.73617E-003	-3.74301E-004	5.55581E-002	6.51466E-002	-2.98552E-003	-3.91289E-003	6.37432E-002	-4.28729E-003
	1	2	8.26531E-001	9.98665E-002	0.00000E+000	8.25427E-002	9.94000E-001	4.13630E-002	4.59362E+001	11	...........	6.86197E-002	-3.80736E-003	5.56450E-001	6.52447E-001	-2.98986E-002	-3.91868E-002	6.38319E-001	-4.28356E-002	6.85281E-003	-3.80228E-004	5.55707E-002	6.51576E-002	-2.98587E-003	-3.91345E-003	6.37467E-002	-4.27784E-003
	2	2.11	1.08178E+000	9.98681E-002	0.00000E+000	1.08035E-001	9.94000E-001	4.19917E-002	5.13057E+001	11	...........	6.96136E-002	-3.79040E-003	5.56542E-001	6.52414E-001	-2.97525E-002	-3.92513E-002	6.38366E-001	-4.29179E-002	6.95218E-003	-3.78540E-004	5.55807E-002	6.51553E-002	-2.97133E-003	-3.91995E-003	6.37524E-002	-4.28613E-003
	3	3	1.10069E+000	6.71570E-002	0.00000E+000	7.39189E-002	6.68764E-001	4.13001E-002	5.06149E+001	11	...........	6.84906E-002	-4.01826E-003	5.56601E-001	6.52415E-001	-2.99213E-002	-3.91955E-002	6.38398E-001	-4.30198E-002	4.59963E-003	-2.69854E-004	3.73797E-002	4.38142E-002	-2.00943E-003	-2.63225E-003	4.28729E-002	-2.88908E-003
	4	4	1.10025E+000	5.13831E-002	0.00000E+000	5.65342E-002	5.11923E-001	4.12116E-002	4.96960E+001	11	...........	6.83293E-002	-3.92500E-003	5.56542E-001	6.52431E-001	-2.99144E-002	-3.92162E-002	6.38374E-001	-4.30500E-002	3.51097E-003	-2.01679E-004	2.85969E-002	3.35239E-002	-1.53710E-003	-2.01505E-003	3.28016E-002	-2.21204E-003
	5	5	1.10030E+000	4.56871E-002	0.00000E+000	5.02694E-002	4.55295E-001	4.11951E-002	4.90841E+001	11	...........	6.83039E-002	-3.77694E-003	5.56532E-001	6.52339E-001	-2.99415E-002	-3.91946E-002	6.38462E-001	-4.30107E-002	3.12061E-003	-1.72558E-004	2.54263E-002	2.98035E-002	-1.36794E-003	-1.79069E-003	2.91695E-002	-1.96503E-003
	6	6	1.10015E+000	4.25577E-002	0.00000E+000	4.68198E-002	4.24176E-001	4.11954E-002	4.86060E+001	11	...........	6.82978E-002	-3.69056E-003	5.56424E-001	6.52338E-001	-2.99186E-002	-3.91950E-002	6.38307E-001	-4.30183E-002	2.90660E-003	-1.57062E-004	2.36802E-002	2.77620E-002	-1.27327E-003	-1.66805E-003	2.71649E-002	-1.83076E-003
	7	7	1.10018E+000	4.07045E-002	0.00000E+000	4.47824E-002	4.05753E-001	4.11740E-002	4.82141E+001	11	...........	6.82806E-002	-3.72667E-003	5.56263E-001	6.52494E-001	-2.98803E-002	-3.92001E-002	6.38249E-001	-4.29036E-002	2.77933E-003	-1.51692E-004	2.26424E-002	2.65595E-002	-1.21626E-003	-1.59562E-003	2.59796E-002	-1.74637E-003
	8	8	1.10027E+000	3.89396E-002	0.00000E+000	4.28441E-002	3.88209E-001	4.11444E-002	4.79073E+001	11	...........	6.82510E-002	-3.71542E-003	5.56239E-001	6.52471E-001	-2.98431E-002	-3.91831E-002	6.38224E-001	-4.29525E-002	2.65767E-003	-1.44677E-004	2.16597E-002	2.54070E-002	-1.16208E-003	-1.52577E-003	2.48522E-002	-1.67255E-003
	9	9	1.10014E+000	3.77293E-002	0.00000E+000	4.15074E-002	3.76179E-001	4.11421E-002	4.76641E+001	11	...........	6.82335E-002	-3.62250E-003	5.56186E-001	6.52353E-001	-2.98197E-002	-3.91858E-002	6.38272E-001	-4.30164E-002	2.57440E-003	-1.36674E-004	2.09845E-002	2.46128E-002	-1.12508E-003	-1.47845E-003	2.40816E-002	-1.62298E-003
	10	10	1.10017E+000	3.71123E-002	0.00000E+000	4.08298E-002	3.70043E-001	4.12633E-002	4.71941E+001	11	...........	6.84597E-002	-3.71333E-003	5.56380E-001	6.52182E-001	-2.98528E-002	-3.91832E-002	6.38249E-001	-4.30085E-002	2.54070E-003	-1.37810E-004	2.06485E-002	2.42039E-002	-1.10790E-003	-1.45418E-003	2.36869E-002	-1.59614E-003
	11	11	1.10026E+000	3.62727E-002	0.00000E+000	3.99093E-002	3.61694E-001	4.10901E-002	4.72642E+001	11	...........	6.81476E-002	-3.62361E-003	5.56227E-001	6.52164E-001	-2.98775E-002	-3.91692E-002	6.38241E-001	-4.30526E-002	2.47190E-003	-1.31438E-004	2.01758E-002	2.36557E-002	-1.08374E-003	-1.42077E-003	2.31507E-002	-1.56163E-003
	12	12	1.10013E+000	3.57242E-002	0.00000E+000	3.93014E-002	3.56239E-001	4.11989E-002	4.69284E+001	11	...........	6.85706E-002	-3.68931E-003	5.56261E-001	6.52153E-001	-2.98907E-002	-3.91575E-002	6.38243E-001	-4.30194E-002	2.44963E-003	-1.31797E-004	1.98719E-002	2.32976E-002	-1.06782E-003	-1.39887E-003	2.28007E-002	-1.53683E-003
	13	13	1.10017E+000	3.55538E-002	0.00000E+000	3.91151E-002	3.54545E-001	4.09353E-002	4.70415E+001	11	...........	6.78993E-002	-3.70278E-003	5.56213E-001	6.52222E-001	-2.99090E-002	-3.91569E-002	6.38246E-001	-4.30132E-002	2.41408E-003	-1.31648E-004	1.97755E-002	2.31890E-002	-1.06338E-003	-1.39218E-003	2.26921E-002	-1.52928E-003
	14	14	1.10025E+000	3.50513E-002	0.00000E+000	3.85652E-002	3.49548E-001	4.10785E-002	4.63598E+001	11	...........	6.81231E-002	-3.72639E-003	5.56111E-001	6.52143E-001	-2.98864E-002	-3.91806E-002	6.38277E-001	-4.30231E-002	2.38780E-003	-1.30615E-004	1.94924E-002	2.28584E-002	-1.04756E-003	-1.37333E-003	2.23724E-002	-1.50801E-003
	15	15	1.10014E+000	3.47092E-002	0.00000E+000	3.81849E-002	3.46147E-001	4.10433E-002	4.65770E+001	11	...........	6.80972E-002	-3.73931E-003	5.56086E-001	6.52263E-001	-2.98749E-002	-3.91957E-002	6.38442E-001	-4.30567E-002	2.36360E-003	-1.29788E-004	1.93013E-002	2.26395E-002	-1.03693E-003	-1.36045E-003	2.21598E-002	-1.49446E-003
	16	16	1.10016E+000	3.47266E-002	0.00000E+000	3.82049E-002	3.46322E-001	4.10251E-002	4.65554E+001	11	...........	6.80865E-002	-3.71639E-003	5.56132E-001	6.52313E-001	-2.98726E-002	-3.91965E-002	6.38440E-001	-4.29711E-002	2.36442E-003	-1.29058E-004	1.93126E-002	2.26526E-002	-1.03738E-003	-1.36116E-003	2.21709E-002	-1.49224E-003
	17	17	1.10025E+000	3.43882E-002	0.00000E+000	3.78356E-002	3.42955E-001	4.10462E-002	4.65561E+001	11	...........	6.80685E-002	-3.71319E-003	5.56093E-001	6.52325E-001	-2.98483E-002	-3.91917E-002	6.38436E-001	-4.29732E-002	2.34075E-003	-1.27690E-004	1.91231E-002	2.24323E-002	-1.02643E-003	-1.34773E-003	2.19547E-002	-1.47777E-003
	18	18	1.10014E+000	3.41085E-002	0.00000E+000	3.75243E-002	3.40177E-001	4.09931E-002	4.57180E+001	11	...........	6.80150E-002	-3.69500E-003	5.56214E-001	6.52170E-001	-2.98246E-002	-3.91800E-002	6.38345E-001	-4.30026E-002	2.31989E-003	-1.26031E-004	1.89716E-002	2.22446E-002	-1.01727E-003	-1.33637E-003	2.17730E-002	-1.46676E-003
	19	19	1.10016E+000	3.42095E-002	0.00000E+000	3.76360E-002	3.41180E-001	4.08667E-002	4.64293E+001	11	...........	6.77789E-002	-3.51764E-003	5.56295E-001	6.52238E-001	-2.98064E-002	-3.91360E-002	6.38185E-001	-4.30474E-002	2.31869E-003	-1.20337E-004	1.90306E-002	2.23128E-002	-1.01966E-003	-1.33882E-003	2.18320E-002	-1.47263E-003
	20	20	1.10024E+000	3.39298E-002	0.00000E+000	3.73311E-002	3.38402E-001	4.08038E-002	4.66213E+001	11	...........	6.79375E-002	-3.63556E-003	5.56224E-001	6.52257E-001	-2.98100E-002	-3.91174E-002	6.38444E-001	-4.30275E-002	2.30511E-003	-1.23354E-004	1.88726E-002	2.21310E-002	-1.01145E-003	-1.32724E-003	2.16623E-002	-1.45991E-003
	21	21	1.10014E+000	3.37129E-002	0.00000E+000	3.70890E-002	3.36245E-001	4.06039E-002	4.66008E+001	11	...........	6.77533E-002	-3.65986E-003	5.56325E-001	6.52304E-001	-2.98447E-002	-3.91185E-002	6.38420E-001	-4.30419E-002	2.28416E-003	-1.23385E-004	1.87553E-002	2.19911E-002	-1.00615E-003	-1.31880E-003	2.15230E-002	-1.45107E-003
	22	22	1.10016E+000	3.38539E-002	0.00000E+000	3.72448E-002	3.37645E-001	4.06097E-002	4.65897E+001	11	...........	6.77460E-002	-3.62097E-003	5.56359E-001	6.52367E-001	-2.98472E-002	-3.91047E-002	6.38458E-001	-4.30274E-002	2.29347E-003	-1.22584E-004	1.88350E-002	2.20852E-002	-1.01045E-003	-1.32385E-003	2.16143E-002	-1.45665E-003
	23	23	1.10024E+000	3.36030E-002	0.00000E+000	3.69714E-002	3.35149E-001	4.05710E-002	4.65915E+001	11	...........	6.77225E-002	-3.67542E-003	5.56437E-001	6.52360E-001	-2.98664E-002	-3.90965E-002	6.38449E-001	-4.30589E-002	2.27568E-003	-1.23505E-004	1.86979E-002	2.19212E-002	-1.00360E-003	-1.31376E-003	2.14538E-002	-1.44691E-003
	24	24	1.10015E+000	3.33575E-002	0.00000E+000	3.66981E-002	3.32708E-001	4.05612E-002	4.65646E+001	11	...........	6.76785E-002	-3.58875E-003	5.56364E-001	6.52318E-001	-2.99331E-002	-3.90958E-002	6.38443E-001	-4.30944E-002	2.25759E-003	-1.19712E-004	1.85589E-002	2.17597E-002	-9.98492E-004	-1.30414E-003	2.12969E-002	-1.43752E-003
	25	25	1.10016E+000	3.34814E-002	0.00000E+000	3.68349E-002	3.33943E-001	4.05302E-002	4.65661E+001	11	...........	6.76558E-002	-3.66111E-003	5.56398E-001	6.52410E-001	-2.99769E-002	-3.90932E-002	6.38447E-001	-4.30776E-002	2.26521E-003	-1.22579E-004	1.86290E-002	2.18436E-002	-1.00367E-003	-1.30890E-003	2.13761E-002	-1.44230E-003
	26	26	1.10024E+000	3.32500E-002	0.00000E+000	3.65830E-002	3.31645E-001	4.05117E-002	4.65218E+001	11	...........	6.76304E-002	-3.61236E-003	5.56475E-001	6.52577E-001	-3.00071E-002	-3.90774E-002	6.38352E-001	-4.30810E-002	2.24871E-003	-1.20111E-004	1.85028E-002	2.16982E-002	-9.97735E-004	-1.29932E-003	2.12252E-002	-1.43244E-003
	27	27	1.10015E+000	3.29926E-002	0.00000E+000	3.62968E-002	3.29087E-001	4.04846E-002	4.65093E+001	11	...........	6.75833E-002	-3.64958E-003	5.56455E-001	6.52492E-001	-3.00346E-002	-3.90697E-002	6.38452E-001	-4.31142E-002	2.22975E-003	-1.20409E-004	1.83589E-002	2.15274E-002	-9.90920E-004	-1.28901E-003	2.10642E-002	-1.42245E-003
	28	28	1.10016E+000	3.31457E-002	0.00000E+000	3.64655E-002	3.30607E-001	4.04684E-002	4.64765E+001	11	...........	6.75560E-002	-3.55194E-003	5.56371E-001	6.52502E-001	-3.00433E-002	-3.90779E-002	6.38281E-001	-4.31071E-002	2.23919E-003	-1.17732E-004	1.84413E-002	2.16276E-002	-9.95806E-004	-1.29526E-003	2.11562E-002	-1.42881E-003
	29	29	1.10024E+000	3.29305E-002	0.00000E+000	3.62314E-002	3.28466E-001	4.04477E-002	4.64583E+001	11	...........	6.75115E-002	-3.56111E-003	5.56364E-001	6.52421E-001	-3.00372E-002	-3.90822E-002	6.38172E-001	-4.30796E-002	2.22319E-003	-1.17269E-004	1.83214E-002	2.14846E-002	-9.89141E-004	-1.28700E-003	2.10153E-002	-1.41863E-003
	30	30	1.10015E+000	3.26962E-002	0.00000E+000	3.59708E-002	3.26138E-001	4.04872E-002	4.63053E+001	11	...........	6.75704E-002	-3.64361E-003	5.56433E-001	6.52449E-001	-3.00297E-002	-3.91062E-002	6.38242E-001	-4.30579E-002	2.20930E-003	-1.19132E-004	1.81933E-002	2.13326E-002	-9.81858E-004	-1.27863E-003	2.08681E-002	-1.40783E-003
	31	31	1.10016E+000	3.28386E-002	0.00000E+000	3.61277E-002	3.27551E-001	4.03810E-002	4.64024E+001	11	...........	6.74068E-002	-3.62319E-003	5.56380E-001	6.52634E-001	-2.99922E-002	-3.91360E-002	6.38209E-001	-4.30796E-002	2.21355E-003	-1.18981E-004	1.82708E-002	2.14316E-002	-9.84904E-004	-1.28517E-003	2.09579E-002	-1.41468E-003
	32	32	1.10024E+000	3.26546E-002	0.00000E+000	3.59278E-002	3.25721E-001	4.03908E-002	4.63696E+001	11	...........	6.73989E-002	-3.62472E-003	5.56269E-001	6.52811E-001	-2.99769E-002	-3.91369E-002	6.38085E-001	-4.29972E-002	2.20089E-003	-1.18364E-004	1.81648E-002	2.13173E-002	-9.78886E-004	-1.27800E-003	2.08364E-002	-1.40406E-003
	33	33	1.10015E+000	3.23899E-002	0.00000E+000	3.56339E-002	3.23088E-001	4.03547E-002	4.63702E+001	11	...........	6.73464E-002	-3.61569E-003	5.56300E-001	6.52878E-001	-2.99864E-002	-3.91385E-002	6.38058E-001	-4.30136E-002	2.18134E-003	-1.17112E-004	1.80185E-002	2.11467E-002	-9.71256E-004	-1.26769E-003	2.06666E-002	-1.39321E-003
	34	34	1.10016E+000	3.25428E-002	0.00000E+000	3.58022E-002	3.24612E-001	4.03226E-002	4.63515E+001	11	...........	6.73294E-002	-3.60903E-003	5.56425E-001	6.52793E-001	-2.99810E-002	-3.91354E-002	6.38146E-001	-4.30283E-002	2.19109E-003	-1.17448E-004	1.81077E-002	2.12437E-002	-9.75666E-004	-1.27358E-003	2.07671E-002	-1.40026E-003
	35	35	1.10023E+000	3.23687E-002	0.00000E+000	3.56131E-002	3.22877E-001	4.03015E-002	4.63305E+001	11	...........	6.72846E-002	-3.65458E-003	5.56590E-001	6.52730E-001	-2.99862E-002	-3.91503E-002	6.38249E-001	-4.30303E-002	2.17791E-003	-1.18294E-004	1.80161E-002	2.11280E-002	-9.70615E-004	-1.26724E-003	2.06593E-002	-1.39283E-003
	36	36	1.10016E+000	3.21090E-002	0.00000E+000	3.53249E-002	3.20294E-001	4.02653E-002	4.63195E+001	11	...........	6.72167E-002	-3.60361E-003	5.56702E-001	6.52669E-001	-3.00299E-002	-3.91833E-002	6.38194E-001	-4.30218E-002	2.15826E-003	-1.15708E-004	1.78751E-002	2.09565E-002	-9.64228E-004	-1.25814E-003	2.04918E-002	-1.38139E-003
	37	37	1.10016E+000	3.22706E-002	0.00000E+000	3.55026E-002	3.21903E-001	4.02372E-002	4.63060E+001	11	...........	6.71676E-002	-3.61014E-003	5.56800E-001	6.52630E-001	-3.00325E-002	-3.92042E-002	6.38224E-001	-4.29611E-002	2.16754E-003	-1.16501E-004	1.79683E-002	2.10607E-002	-9.69166E-004	-1.26514E-003	2.05959E-002	-1.38638E-003
	38	38	1.10023E+000	3.21223E-002	0.00000E+000	3.53420E-002	3.20431E-001	4.02222E-002	4.63001E+001	11	...........	6.71164E-002	-3.63042E-003	5.56647E-001	6.52659E-001	-3.00218E-002	-3.92058E-002	6.38316E-001	-4.29953E-002	2.15593E-003	-1.16617E-004	1.78808E-002	2.09649E-002	-9.64370E-004	-1.25938E-003	2.05042E-002	-1.38111E-003
	39	39	1.10016E+000	3.18266E-002	0.00000E+000	3.50143E-002	3.17489E-001	4.01878E-002	4.62793E+001	11	...........	6.70771E-002	-3.52611E-003	5.56542E-001	6.52611E-001	-3.00135E-002	-3.92103E-002	6.38287E-001	-4.30115E-002	2.13483E-003	-1.12224E-004	1.77128E-002	2.07704E-002	-9.55226E-004	-1.24793E-003	2.03145E-002	-1.36891E-003
	40	40	1.10016E+000	3.20020E-002	0.00000E+000	3.52072E-002	3.19228E-001	4.01753E-002	4.47825E+001	11	...........	6.70376E-002	-3.52208E-003	5.56373E-001	6.52401E-001	-3.00093E-002	-3.92103E-002	6.38251E-001	-4.29849E-002	2.14534E-003	-1.12714E-004	1.78051E-002	2.08782E-002	-9.60359E-004	-1.25481E-003	2.04253E-002	-1.37560E-003
	41	41	1.10023E+000	3.18008E-002	0.00000E+000	3.49882E-002	3.17232E-001	3.99722E-002	4.52661E+001	11	...........	6.66924E-002	-3.58583E-003	5.56269E-001	6.52425E-001	-3.00142E-002	-3.91861E-002	6.38261E-001	-4.30690E-002	2.12087E-003	-1.14032E-004	1.76898E-002	2.07476E-002	-9.54474E-004	-1.24615E-003	2.02972E-002	-1.36963E-003
	42	42	1.10016E+000	3.15918E-002	0.00000E+000	3.47561E-002	3.15154E-001	4.01747E-002	4.59555E+001	11	...........	6.70357E-002	-3.57806E-003	5.56311E-001	6.52365E-001	-3.00201E-002	-3.91885E-002	6.38174E-001	-4.30929E-002	2.11778E-003	-1.13037E-004	1.75749E-002	2.06094E-002	-9.48391E-004	-1.23804E-003	2.01611E-002	-1.36138E-003
	43	43	1.10015E+000	3.17243E-002	0.00000E+000	3.49017E-002	3.16466E-001	4.00862E-002	4.61958E+001	11	...........	6.69129E-002	-3.68347E-003	5.56413E-001	6.52361E-001	-3.00129E-002	-3.91778E-002	6.38216E-001	-4.30965E-002	2.12277E-003	-1.16856E-004	1.76518E-002	2.06957E-002	-9.52140E-004	-1.24289E-003	2.02470E-002	-1.36721E-003
	44	44	1.10023E+000	3.15871E-002	0.00000E+000	3.47530E-002	3.15105E-001	4.01401E-002	4.61490E+001	11	...........	6.70044E-002	-3.75736E-003	5.56355E-001	6.52351E-001	-3.00004E-002	-3.91807E-002	6.38068E-001	-4.31047E-002	2.11648E-003	-1.18684E-004	1.75736E-002	2.06059E-002	-9.47627E-004	-1.23761E-003	2.01547E-002	-1.36155E-003
	45	45	1.10017E+000	3.12949E-002	0.00000E+000	3.44296E-002	3.12201E-001	4.00448E-002	4.61134E+001	11	...........	6.68436E-002	-3.74181E-003	5.56472E-001	6.52241E-001	-2.99918E-002	-3.92208E-002	6.38268E-001	-4.31990E-002	2.09186E-003	-1.17099E-004	1.74147E-002	2.04118E-002	-9.38591E-004	-1.22741E-003	1.99745E-002	-1.35191E-003
	46	46	1.10015E+000	3.14295E-002	0.00000E+000	3.45773E-002	3.13537E-001	4.00328E-002	4.62076E+001	11	...........	6.68308E-002	-3.74833E-003	5.56566E-001	6.52214E-001	-2.99693E-002	-3.92183E-002	6.38287E-001	-4.31303E-002	2.10046E-003	-1.17808E-004	1.74926E-002	2.04988E-002	-9.41921E-004	-1.23261E-003	2.00610E-002	-1.35556E-003
	47	47	1.10023E+000	3.12500E-002	0.00000E+000	3.43821E-002	3.11757E-001	4.00176E-002	4.62437E+001	11	...........	6.68042E-002	-3.72111E-003	5.56688E-001	6.52314E-001	-2.99658E-002	-3.92036E-002	6.38222E-001	-4.31425E-002	2.08763E-003	-1.16285E-004	1.73965E-002	2.03848E-002	-9.36433E-004	-1.22511E-003	1.99444E-002	-1.34820E-003
	48	48	1.10017E+000	3.09582E-002	0.00000E+000	3.40592E-002	3.08850E-001	4.00594E-002	4.62202E+001	11	...........	6.68899E-002	-3.67778E-003	5.56782E-001	6.52297E-001	-2.99392E-002	-3.91675E-002	6.38297E-001	-4.31182E-002	2.07079E-003	-1.13857E-004	1.72370E-002	2.01939E-002	-9.26863E-004	-1.21256E-003	1.97605E-002	-1.33486E-003
	49	49	1.10015E+000	3.11190E-002	0.00000E+000	3.42356E-002	3.10449E-001	3.99217E-002	4.62587E+001	11	...........	6.66410E-002	-3.66083E-003	5.56936E-001	6.52297E-001	-2.99219E-002	-3.91589E-002	6.38217E-001	-4.30090E-002	2.07380E-003	-1.13921E-004	1.73313E-002	2.02988E-002	-9.31140E-004	-1.21858E-003	1.98606E-002	-1.33840E-003
	50	50	1.10022E+000	3.10098E-002	0.00000E+000	3.41177E-002	3.09365E-001	3.99536E-002	4.62481E+001	11	...........	6.66781E-002	-3.77403E-003	5.56874E-001	6.52386E-001	-2.98899E-002	-3.91760E-002	6.38364E-001	-4.30522E-002	2.06767E-003	-1.17032E-004	1.72685E-002	2.02304E-002	-9.26878E-004	-1.21484E-003	1.97955E-002	-1.33504E-003
	51	51	1.10017E+000	3.07181E-002	0.00000E+000	3.37951E-002	3.06468E-001	3.99206E-002	4.62448E+001	11	...........	6.66378E-002	-3.73986E-003	5.56800E-001	6.52577E-001	-2.98736E-002	-3.91908E-002	6.38347E-001	-4.29964E-002	2.04699E-003	-1.14881E-004	1.71038E-002	2.00459E-002	-9.17661E-004	-1.20387E-003	1.96088E-002	-1.32077E-003
	52	52	1.10015E+000	3.08795E-002	0.00000E+000	3.39722E-002	3.08073E-001	3.99093E-002	4.62633E+001	11	...........	6.65957E-002	-3.79556E-003	5.56670E-001	6.52523E-001	-2.98714E-002	-3.91801E-002	6.38292E-001	-4.30197E-002	2.05644E-003	-1.17205E-004	1.71897E-002	2.01496E-002	-9.22415E-004	-1.20986E-003	1.97102E-002	-1.32843E-003
	53	53	1.10022E+000	3.07782E-002	0.00000E+000	3.38628E-002	3.07067E-001	4.00922E-002	4.61408E+001	11	...........	6.69056E-002	-3.71292E-003	5.56688E-001	6.52696E-001	-2.98650E-002	-3.91435E-002	6.38130E-001	-4.30708E-002	2.05923E-003	-1.14277E-004	1.71339E-002	2.00888E-002	-9.19191E-004	-1.20477E-003	1.96405E-002	-1.32564E-003
	54	54	1.10017E+000	3.04830E-002	0.00000E+000	3.35366E-002	3.04130E-001	4.01741E-002	4.57338E+001	11	...........	6.70597E-002	-3.68000E-003	5.56851E-001	6.52577E-001	-2.98687E-002	-3.91519E-002	6.38149E-001	-4.30074E-002	2.04418E-003	-1.12177E-004	1.69745E-002	1.98925E-002	-9.10488E-004	-1.19347E-003	1.94527E-002	-1.31099E-003
	55	55	1.10015E+000	3.06579E-002	0.00000E+000	3.37283E-002	3.05871E-001	3.96637E-002	4.58600E+001	11	...........	6.62029E-002	-3.70306E-003	5.56986E-001	6.52595E-001	-2.98751E-002	-3.91394E-002	6.38173E-001	-4.30351E-002	2.02964E-003	-1.13528E-004	1.70760E-002	2.00072E-002	-9.15909E-004	-1.19993E-003	1.95651E-002	-1.31937E-003
	56	56	1.10022E+000	3.05578E-002	0.00000E+000	3.36204E-002	3.04876E-001	3.99506E-002	4.57181E+001	11	...........	6.66781E-002	-3.59111E-003	5.56979E-001	6.52574E-001	-2.98867E-002	-3.91704E-002	6.38253E-001	-4.30390E-002	2.03754E-003	-1.09737E-004	1.70201E-002	1.99412E-002	-9.13272E-004	-1.19696E-003	1.95036E-002	-1.31518E-003
	57	57	1.10018E+000	3.02022E-002	0.00000E+000	3.32277E-002	3.01339E-001	3.96958E-002	4.59128E+001	11	...........	6.62635E-002	-3.54375E-003	5.56905E-001	6.52556E-001	-2.98429E-002	-3.91936E-002	6.38296E-001	-4.30236E-002	2.00130E-003	-1.07029E-004	1.68197E-002	1.97086E-002	-9.01320E-004	-1.18373E-003	1.92779E-002	-1.29941E-003
	58	58	1.10015E+000	3.03886E-002	0.00000E+000	3.34320E-002	3.03194E-001	3.97988E-002	4.56057E+001	11	...........	6.64092E-002	-3.57014E-003	5.56910E-001	6.52461E-001	-2.98249E-002	-3.91950E-002	6.38227E-001	-4.30458E-002	2.01808E-003	-1.08491E-004	1.69237E-002	1.98273E-002	-9.06335E-004	-1.19108E-003	1.93948E-002	-1.30810E-003
	59	59	1.10022E+000	3.02544E-002	0.00000E+000	3.32865E-002	3.01860E-001	3.97662E-002	4.52691E+001	11	...........	6.63643E-002	-3.68069E-003	5.56904E-001	6.52442E-001	-2.98043E-002	-3.91860E-002	6.38300E-001	-4.30390E-002	2.00782E-003	-1.11357E-004	1.68488E-002	1.97393E-002	-9.01713E-004	-1.18555E-003	1.93114E-002	-1.30212E-003
	60	60	1.10018E+000	2.99374E-002	0.00000E+000	3.29365E-002	2.98711E-001	3.97201E-002	4.58847E+001	11	...........	6.63040E-002	-3.71444E-003	5.56806E-001	6.52271E-001	-2.98233E-002	-3.91869E-002	6.38348E-001	-4.29262E-002	1.98497E-003	-1.11201E-004	1.66693E-002	1.95273E-002	-8.92834E-004	-1.17316E-003	1.91105E-002	-1.28510E-003
	61	61	1.10015E+000	3.01170E-002	0.00000E+000	3.31332E-002	3.00495E-001	3.97574E-002	4.60888E+001	11	...........	6.63436E-002	-3.70083E-003	5.56855E-001	6.52280E-001	-2.98657E-002	-3.91819E-002	6.38361E-001	-4.29843E-002	1.99807E-003	-1.11458E-004	1.67708E-002	1.96447E-002	-8.99465E-004	-1.18004E-003	1.92255E-002	-1.29456E-003
	62	62	1.10022E+000	3.00173E-002	0.00000E+000	3.30255E-002	2.99503E-001	3.97199E-002	4.60938E+001	11	...........	6.62913E-002	-3.66681E-003	5.56854E-001	6.52225E-001	-2.98903E-002	-3.91958E-002	6.38361E-001	-4.30290E-002	1.98989E-003	-1.10068E-004	1.67153E-002	1.95781E-002	-8.97226E-004	-1.17655E-003	1.91619E-002	-1.29162E-003
	63	63	1.10018E+000	2.96815E-002	0.00000E+000	3.26550E-002	2.96167E-001	3.97010E-002	4.60818E+001	11	...........	6.62630E-002	-3.74042E-003	5.56757E-001	6.52226E-001	-2.98878E-002	-3.91700E-002	6.38148E-001	-4.30051E-002	1.96678E-003	-1.11021E-004	1.65254E-002	1.93590E-002	-8.87113E-004	-1.16262E-003	1.89412E-002	-1.27646E-003
	64	64	1.10015E+000	2.98525E-002	0.00000E+000	3.28422E-002	2.97867E-001	3.96883E-002	4.60724E+001	11	...........	6.62400E-002	-3.65278E-003	5.56760E-001	6.52108E-001	-2.99175E-002	-3.91657E-002	6.38113E-001	-4.30503E-002	1.97743E-003	-1.09045E-004	1.66207E-002	1.94671E-002	-8.93113E-004	-1.16919E-003	1.90493E-002	-1.28516E-003
	65	65	1.10021E+000	2.97827E-002	0.00000E+000	3.27673E-002	2.97173E-001	3.96696E-002	4.61050E+001	11	...........	6.62161E-002	-3.59514E-003	5.56790E-001	6.52022E-001	-2.99240E-002	-3.91374E-002	6.38137E-001	-4.30397E-002	1.97209E-003	-1.07073E-004	1.65827E-002	1.94190E-002	-8.91218E-004	-1.16562E-003	1.90054E-002	-1.28184E-003
	66	66	1.10019E+000	2.94574E-002	0.00000E+000	3.24087E-002	2.93938E-001	3.96412E-002	4.60949E+001	11	...........	6.61831E-002	-3.59556E-003	5.56913E-001	6.52031E-001	-2.99046E-002	-3.91800E-002	6.38060E-001	-4.30060E-002	1.94958E-003	-1.05916E-004	1.64052E-002	1.92072E-002	-8.80912E-004	-1.15414E-003	1.87956E-002	-1.26685E-003
	67	67	1.10015E+000	2.96021E-002	0.00000E+000	3.25666E-002	2.95375E-001	3.96186E-002	4.60998E+001	11	...........	6.61361E-002	-3.64833E-003	5.56897E-001	6.51779E-001	-2.99175E-002	-3.91881E-002	6.38125E-001	-4.30483E-002	1.95776E-003	-1.07998E-004	1.64853E-002	1.92940E-002	-8.85620E-004	-1.16005E-003	1.88898E-002	-1.27432E-003
	68	68	1.10021E+000	2.95539E-002	0.00000E+000	3.25155E-002	2.94891E-001	3.95982E-002	4.60763E+001	11	...........	6.60982E-002	-3.71806E-003	5.56795E-001	6.51696E-001	-2.99501E-002	-3.91840E-002	6.38209E-001	-4.30656E-002	1.95346E-003	-1.09883E-004	1.64554E-002	1.92601E-002	-8.85142E-004	-1.15804E-003	1.88615E-002	-1.27275E-003
	69	69	1.10019E+000	2.92335E-002	0.00000E+000	3.21624E-002	2.91709E-001	3.95796E-002	4.61021E+001	11	...........	6.60665E-002	-3.63236E-003	5.56645E-001	6.51828E-001	-2.99347E-002	-3.91778E-002	6.38251E-001	-4.30410E-002	1.93135E-003	-1.06187E-004	1.62727E-002	1.90552E-002	-8.75096E-004	-1.14530E-003	1.86583E-002	-1.25824E-003
	70	70	1.10015E+000	2.93814E-002	0.00000E+000	3.23239E-002	2.93179E-001	3.95634E-002	4.61264E+001	11	...........	6.60440E-002	-3.71889E-003	5.56542E-001	6.51816E-001	-2.99446E-002	-3.91772E-002	6.38223E-001	-4.30485E-002	1.94047E-003	-1.09266E-004	1.63520E-002	1.91513E-002	-8.79814E-004	-1.15108E-003	1.87519E-002	-1.26482E-003
	71	71	1.10021E+000	2.93360E-002	0.00000E+000	3.22757E-002	2.92733E-001	3.95999E-002	4.59849E+001	11	...........	6.60854E-002	-3.70514E-003	5.56637E-001	6.51682E-001	-2.99426E-002	-3.91586E-002	6.38281E-001	-4.29731E-002	1.93868E-003	-1.08694E-004	1.63295E-002	1.91177E-002	-8.78397E-004	-1.14876E-003	1.87246E-002	-1.26066E-003
	72	72	1.10019E+000	2.90049E-002	0.00000E+000	3.19110E-002	2.89437E-001	3.94959E-002	4.61021E+001	11	...........	6.59346E-002	-3.62625E-003	5.56726E-001	6.51619E-001	-2.99535E-002	-3.91637E-002	6.38260E-001	-4.30089E-002	1.91243E-003	-1.05179E-004	1.61478E-002	1.89002E-002	-8.68798E-004	-1.13594E-003	1.85127E-002	-1.24747E-003
	73	73	1.10015E+000	2.91533E-002	0.00000E+000	3.20728E-002	2.90915E-001	3.94826E-002	4.61316E+001	11	...........	6.58936E-002	-3.68083E-003	5.56845E-001	6.51681E-001	-2.99774E-002	-3.91693E-002	6.38257E-001	-4.29499E-002	1.92101E-003	-1.07308E-004	1.62338E-002	1.89986E-002	-8.73938E-004	-1.14191E-003	1.86073E-002	-1.25213E-003
	74	74	1.10020E+000	2.91205E-002	0.00000E+000	3.20385E-002	2.90589E-001	3.94551E-002	4.61520E+001	11	...........	6.58596E-002	-3.69319E-003	5.56697E-001	6.51678E-001	-2.99960E-002	-3.91678E-002	6.38380E-001	-4.30211E-002	1.91786E-003	-1.07548E-004	1.62113E-002	1.89772E-002	-8.73497E-004	-1.14058E-003	1.85899E-002	-1.25280E-003
	75	75	1.10020E+000	2.87910E-002	0.00000E+000	3.16757E-002	2.87317E-001	3.94292E-002	4.61644E+001	11	...........	6.58158E-002	-3.69528E-003	5.56714E-001	6.51617E-001	-2.99928E-002	-3.91561E-002	6.38451E-001	-4.30707E-002	1.89490E-003	-1.06391E-004	1.60284E-002	1.87607E-002	-8.63521E-004	-1.12734E-003	1.83816E-002	-1.24005E-003
	76	75.535	1.10022E+000	2.90255E-002	0.00000E+000	3.19343E-002	2.89647E-001	3.94145E-002	4.61610E+001	11	...........	6.57895E-002	-3.73572E-003	5.56724E-001	6.51605E-001	-2.99862E-002	-3.91542E-002	6.38420E-001	-4.30260E-002	1.90957E-003	-1.08431E-004	1.61592E-002	1.89132E-002	-8.70366E-004	-1.13647E-003	1.85305E-002	-1.24885E-003
STARTTIMEOFFSET	QUANT	515064.5	Start Time Offset (s)
