EXPLAIN
TAG	PWR800_CHARGE
TITLE	LABEL	PWR Charge	Test Identifier
DATE	LABEL	10/12/2022	Date
TIME	LABEL	16:06:23	Time
NOTES	NOTES	1	Notes...
	
PSTAT	PSTAT	REF3000-21114	Potentiostat
CAPACITY	QUANT	5.30000E-002	Capacity (A-hr)
CELLTYPE	SELECTOR	1	Cell Type
WORKINGCONNECTION	SELECTOR	0	Working Connection
MAXCHARGETIME	VARIABLEANDUNITS	7.20000E+003	s	2.00000E+000	hour(s)	Max Charge Time
CHARGEMODE	MULTIPARAM	0	1.00000E-001	Charge Mode	Constant Current	Amp(s)
CHARGECURRENT	QUANT	0.1	Charge Current (A)
VOLTAGEFINISH	TWOPARAM	T	2.50000E-002	7.20000E+003	Voltage Finish	I (A) <	Max Time(s)
SAMPLETIME	QUANT	1.00000E+000	Sample Period (s)
CHARGESTOPAT1	MULTIPARAM	2	1.10000E+000	Stop At 1	|Voltage| > Limit	V
CHARGESTOPAT2	MULTIPARAM	0	0.00000E+000	Stop At 2	None	N/A
AESELECTOR	AESELECTOR	0x1	T	Set Limits	AE Channels
AESBHCSELECTOR	TOGGLE	F	Save Both Half Cells
IRCOMP	TOGGLE	F	IR Measure
EOC	QUANT	0.271511	Open Circuit (V)
SEQUENCER	TOGGLE	TRUE	Run as Sequence
PSTATMODEL	IQUANT	5	Pstat Model
PSTATSECTION	LABEL	REF3000-21114	Pstat Section
PSTATSERIALNO	LABEL	21114	Pstat Serial Number
CTRLMODE	IQUANT	0	Control Mode
ELECTROMETER	IQUANT	0	RE=0 or CS=1
IESTAB	IQUANT	0	I/E Stability
CASPEED	IQUANT	4	Control Amp Speed
CONVENTION	IQUANT	1	Current Convention
ICHRANGE	IQUANT	2	Ich Range
ICHRANGEMODE	TOGGLE	T	Ich Auto Range
ICHOFFSETENABLE	TOGGLE	F	Ich Offset Enable
ICHOFFSET	QUANT	0	Ich Offset (V)
ICHFILTER	IQUANT	1	Ich Filter
VCHRANGE	IQUANT	3	Vch Range
VCHRANGEMODE	TOGGLE	T	Vch Auto Range
VCHOFFSETENABLE	TOGGLE	F	Vch Offset Enable
VCHOFFSET	QUANT	0	Vch Offset (V)
VCHFILTER	IQUANT	1	Vch Filter
ACHRANGE	IQUANT	2	Ach Range
ACHOFFSETENABLE	TOGGLE	F	Ach Offset Enable
ACHOFFSET	QUANT	0	Ach Offset (V)
ACHFILTER	IQUANT	1	Ach Filter
IERANGELOWERLIMIT	IQUANT	9	I/E Range Lower Limit
IERANGEMODE	TOGGLE	F	I/E AutoRange
IERANGE	IQUANT	9	I/E Range
POSFEEDENABLE	TOGGLE	F	Positive Feedback IR Comp
POSFEEDRESISTANCE	QUANT	0	Positive Feedback Resistance (ohm)
ACHSELECT	IQUANT	1	Ach Select
SENSECABLEID	IQUANT	13	Sense Cable ID
PWRCABLEID	IQUANT	13	Power Cable ID
DCCALDATE	LABEL		DC Calibration Date
ACCALDATE	LABEL		AC Calibration Date
THERMOSELECT	IQUANT	1	Thermo Select
FRAMEWORKVERSION	LABEL	7.8.6	Framework Version
INSTRUMENTVERSION	LABEL	4.50	Instrument Version
COMPLIANCEVOLTAGE	IQUANT	0	Compliance Voltage
CURVE	TABLE	62
	Pt	T	Vf	Im	Vu	Pwr	Sig	Ach	Temp	IERange	Over	Vf1	Vf2	Vf3	Vf4	Vf5	Vf6	Vf7	Vf8	Pwr1	Pwr2	Pwr3	Pwr4	Pwr5	Pwr6	Pwr7	Pwr8
	#	s	V	A	V	W	V	V	deg C	#	bits	V	V	V	V	V	V	V	V	W	W	W	W	W	W	W	W
	0	1	5.37302E-001	9.98558E-002	0.00000E+000	5.36527E-002	9.94000E-001	3.57832E-002	3.53549E+001	11	...........	5.93906E-002	-3.83028E-003	5.59177E-001	6.62038E-001	-3.01507E-002	-3.92756E-002	6.36489E-001	-4.31203E-002	5.93049E-003	-3.82475E-004	5.58370E-002	6.61083E-002	-3.01072E-003	-3.92189E-003	6.35571E-002	-4.30581E-003
	1	2	8.40642E-001	9.98564E-002	0.00000E+000	8.39435E-002	9.94000E-001	3.68208E-002	3.86493E+001	11	...........	6.10737E-002	-3.94278E-003	5.59231E-001	6.62025E-001	-3.01618E-002	-3.92854E-002	6.36545E-001	-4.31821E-002	6.09861E-003	-3.93712E-004	5.58428E-002	6.61074E-002	-3.01185E-003	-3.92290E-003	6.35631E-002	-4.31201E-003
	2	2.07167	1.08714E+000	9.98571E-002	0.00000E+000	1.08559E-001	9.94000E-001	3.70395E-002	4.50299E+001	11	...........	6.15640E-002	-4.00194E-003	5.59277E-001	6.62046E-001	-3.01783E-002	-3.92946E-002	6.36541E-001	-4.30911E-002	6.14760E-003	-3.99622E-004	5.58478E-002	6.61101E-002	-3.01352E-003	-3.92384E-003	6.35631E-002	-4.30295E-003
	3	3	1.10135E+000	6.76092E-002	0.00000E+000	7.44615E-002	6.73332E-001	3.67245E-002	4.11511E+001	11	...........	6.09162E-002	-3.98250E-003	5.59261E-001	6.62055E-001	-3.01679E-002	-3.92968E-002	6.36545E-001	-4.31529E-002	4.11849E-003	-2.69253E-004	3.78112E-002	4.47610E-002	-2.03962E-003	-2.65683E-003	4.30363E-002	-2.91753E-003
	4	4	1.10104E+000	5.17960E-002	0.00000E+000	5.70296E-002	5.16082E-001	3.65017E-002	4.17694E+001	11	...........	6.05483E-002	-3.79347E-003	5.59192E-001	6.62162E-001	-3.01356E-002	-3.92957E-002	6.36535E-001	-4.31511E-002	3.13616E-003	-1.96487E-004	2.89639E-002	3.42973E-002	-1.56090E-003	-2.03536E-003	3.29700E-002	-2.23505E-003
	5	5	1.10088E+000	4.58824E-002	0.00000E+000	5.05112E-002	4.57285E-001	3.64088E-002	4.05741E+001	11	...........	6.03887E-002	-3.71375E-003	5.59237E-001	6.62120E-001	-3.01653E-002	-3.92853E-002	6.36467E-001	-4.31050E-002	2.77078E-003	-1.70396E-004	2.56592E-002	3.03796E-002	-1.38406E-003	-1.80250E-003	2.92026E-002	-1.97776E-003
	6	6	1.10089E+000	4.26824E-002	0.00000E+000	4.69887E-002	4.25466E-001	3.64628E-002	4.03013E+001	11	...........	6.04794E-002	-3.61278E-003	5.58966E-001	6.62061E-001	-3.01686E-002	-3.92649E-002	6.36502E-001	-4.30822E-002	2.58140E-003	-1.54202E-004	2.38580E-002	2.82583E-002	-1.28767E-003	-1.67592E-003	2.71674E-002	-1.83885E-003
	7	7	1.10098E+000	4.01929E-002	0.00000E+000	4.42516E-002	4.00714E-001	3.65839E-002	3.99411E+001	11	...........	6.06874E-002	-3.66806E-003	5.59039E-001	6.62094E-001	-3.01564E-002	-3.92689E-002	6.36638E-001	-4.30701E-002	2.43920E-003	-1.47430E-004	2.24694E-002	2.66115E-002	-1.21207E-003	-1.57833E-003	2.55883E-002	-1.73111E-003
	8	8	1.10086E+000	3.83130E-002	0.00000E+000	4.21771E-002	3.82024E-001	3.60762E-002	3.91035E+001	11	...........	5.98604E-002	-3.81486E-003	5.59176E-001	6.62125E-001	-3.01583E-002	-3.92868E-002	6.36697E-001	-4.31389E-002	2.29343E-003	-1.46159E-004	2.14237E-002	2.53680E-002	-1.15546E-003	-1.50519E-003	2.43938E-002	-1.65278E-003
	9	9	1.10088E+000	3.72694E-002	0.00000E+000	4.10291E-002	3.71651E-001	3.67778E-002	3.97839E+001	11	...........	6.10201E-002	-3.82889E-003	5.59295E-001	6.62136E-001	-3.01658E-002	-3.92514E-002	6.36685E-001	-4.31661E-002	2.27419E-003	-1.42701E-004	2.08446E-002	2.46775E-002	-1.12426E-003	-1.46288E-003	2.37289E-002	-1.60878E-003
	10	10	1.10096E+000	3.60416E-002	0.00000E+000	3.96805E-002	3.59440E-001	3.63996E-002	3.91819E+001	11	...........	6.03826E-002	-3.66194E-003	5.59281E-001	6.62079E-001	-3.01687E-002	-3.92297E-002	6.36714E-001	-4.31372E-002	2.17628E-003	-1.31982E-004	2.01574E-002	2.38623E-002	-1.08733E-003	-1.41390E-003	2.29482E-002	-1.55473E-003
	11	11	1.10085E+000	3.50666E-002	0.00000E+000	3.86032E-002	3.49742E-001	3.62712E-002	3.87794E+001	11	...........	6.01415E-002	-3.76444E-003	5.59328E-001	6.62177E-001	-3.01719E-002	-3.92207E-002	6.36585E-001	-4.30310E-002	2.10896E-003	-1.32006E-004	1.96138E-002	2.32203E-002	-1.05803E-003	-1.37534E-003	2.23229E-002	-1.50895E-003
	12	12	1.10087E+000	3.46902E-002	0.00000E+000	3.81894E-002	3.45999E-001	3.66872E-002	3.96612E+001	11	...........	6.08392E-002	-3.59000E-003	5.59508E-001	6.62210E-001	-3.01603E-002	-3.92240E-002	6.36658E-001	-4.29278E-002	2.11053E-003	-1.24538E-004	1.94095E-002	2.29722E-002	-1.04627E-003	-1.36069E-003	2.20858E-002	-1.48917E-003
	13	13	1.10096E+000	3.40000E-002	0.00000E+000	3.74326E-002	3.39146E-001	3.60776E-002	3.85363E+001	11	...........	5.98482E-002	-3.51208E-003	5.59550E-001	6.62307E-001	-3.01440E-002	-3.92201E-002	6.36768E-001	-4.30064E-002	2.03484E-003	-1.19411E-004	1.90247E-002	2.25184E-002	-1.02490E-003	-1.33349E-003	2.16501E-002	-1.46222E-003
	14	14	1.10085E+000	3.34895E-002	0.00000E+000	3.68670E-002	3.34067E-001	3.63342E-002	3.77093E+001	11	...........	6.02940E-002	-3.58000E-003	5.59524E-001	6.62417E-001	-3.01539E-002	-3.92312E-002	6.36774E-001	-4.31356E-002	2.01922E-003	-1.19893E-004	1.87382E-002	2.21840E-002	-1.00984E-003	-1.31384E-003	2.13253E-002	-1.44459E-003
	15	15	1.10087E+000	3.34441E-002	0.00000E+000	3.68174E-002	3.33611E-001	3.60747E-002	3.93643E+001	11	...........	5.98431E-002	-3.72542E-003	5.59659E-001	6.62321E-001	-3.01612E-002	-3.92383E-002	6.36722E-001	-4.30603E-002	2.00139E-003	-1.24593E-004	1.87173E-002	2.21507E-002	-1.00871E-003	-1.31229E-003	2.12946E-002	-1.44011E-003
	16	16	1.10095E+000	3.31278E-002	0.00000E+000	3.64720E-002	3.30470E-001	3.65928E-002	3.82264E+001	11	...........	6.07137E-002	-3.73917E-003	5.59648E-001	6.62142E-001	-3.01631E-002	-3.92269E-002	6.36571E-001	-4.31308E-002	2.01131E-003	-1.23870E-004	1.85399E-002	2.19353E-002	-9.99234E-004	-1.29950E-003	2.10882E-002	-1.42883E-003
	17	17	1.10085E+000	3.27525E-002	0.00000E+000	3.60557E-002	3.26739E-001	3.59862E-002	3.90720E+001	11	...........	5.96931E-002	-3.56389E-003	5.59492E-001	6.61993E-001	-3.01369E-002	-3.92092E-002	6.36650E-001	-4.31217E-002	1.95510E-003	-1.16726E-004	1.83248E-002	2.16819E-002	-9.87060E-004	-1.28420E-003	2.08519E-002	-1.41234E-003
	18	18	1.10087E+000	3.28443E-002	0.00000E+000	3.61572E-002	3.27660E-001	3.61643E-002	3.87813E+001	11	...........	6.00021E-002	-3.62847E-003	5.59447E-001	6.61922E-001	-3.01375E-002	-3.92426E-002	6.36617E-001	-4.30699E-002	1.97073E-003	-1.19175E-004	1.83747E-002	2.17404E-002	-9.89845E-004	-1.28890E-003	2.09093E-002	-1.41460E-003
	19	19	1.10095E+000	3.25909E-002	0.00000E+000	3.58809E-002	3.25134E-001	3.62717E-002	3.81598E+001	11	...........	6.01704E-002	-3.62208E-003	5.59431E-001	6.61866E-001	-3.01333E-002	-3.92362E-002	6.36555E-001	-4.29606E-002	1.96101E-003	-1.18047E-004	1.82324E-002	2.15708E-002	-9.82074E-004	-1.27875E-003	2.07459E-002	-1.40012E-003
	20	20	1.10086E+000	3.22995E-002	0.00000E+000	3.55571E-002	3.22239E-001	3.61315E-002	3.90801E+001	11	...........	6.01326E-002	-3.58042E-003	5.59671E-001	6.61884E-001	-3.01364E-002	-3.92378E-002	6.36778E-001	-4.30071E-002	1.94225E-003	-1.15646E-004	1.80771E-002	2.13785E-002	-9.73390E-004	-1.26736E-003	2.05676E-002	-1.38911E-003
	21	21	1.10086E+000	3.23945E-002	0.00000E+000	3.56619E-002	3.23179E-001	3.57223E-002	3.88618E+001	11	...........	5.96111E-002	-3.70583E-003	5.59737E-001	6.61991E-001	-3.01724E-002	-3.92285E-002	6.36873E-001	-4.31944E-002	1.93107E-003	-1.20049E-004	1.81324E-002	2.14449E-002	-9.77419E-004	-1.27079E-003	2.06312E-002	-1.39926E-003
	22	22	1.10094E+000	3.22003E-002	0.00000E+000	3.54507E-002	3.21255E-001	3.60015E-002	3.89902E+001	11	...........	6.00631E-002	-3.68903E-003	5.59687E-001	6.61925E-001	-3.01518E-002	-3.92412E-002	6.36833E-001	-4.32235E-002	1.93405E-003	-1.18788E-004	1.80221E-002	2.13142E-002	-9.70897E-004	-1.26358E-003	2.05062E-002	-1.39181E-003
	23	23	1.10086E+000	3.19491E-002	0.00000E+000	3.51715E-002	3.18754E-001	3.60542E-002	3.98862E+001	11	...........	6.01660E-002	-3.72681E-003	5.59550E-001	6.61922E-001	-3.01393E-002	-3.92653E-002	6.36763E-001	-4.31551E-002	1.92225E-003	-1.19068E-004	1.78771E-002	2.11478E-002	-9.62924E-004	-1.25449E-003	2.03440E-002	-1.37877E-003
	24	24	1.10086E+000	3.20342E-002	0.00000E+000	3.52652E-002	3.19598E-001	3.57379E-002	3.86493E+001	11	...........	5.96142E-002	-3.70097E-003	5.59551E-001	6.61720E-001	-3.01554E-002	-3.92700E-002	6.36805E-001	-4.30911E-002	1.90969E-003	-1.18558E-004	1.79248E-002	2.11977E-002	-9.66005E-004	-1.25798E-003	2.03995E-002	-1.38039E-003
	25	25	1.10094E+000	3.19080E-002	0.00000E+000	3.51288E-002	3.18345E-001	3.59210E-002	3.93683E+001	11	...........	5.99143E-002	-3.65889E-003	5.59563E-001	6.61652E-001	-3.01456E-002	-3.92561E-002	6.36811E-001	-4.30860E-002	1.91174E-003	-1.16748E-004	1.78545E-002	2.11120E-002	-9.61883E-004	-1.25258E-003	2.03194E-002	-1.37479E-003
	26	26	1.10086E+000	3.16198E-002	0.00000E+000	3.48091E-002	3.15488E-001	3.59077E-002	3.92461E+001	11	...........	5.98799E-002	-3.65208E-003	5.59548E-001	6.61733E-001	-3.01858E-002	-3.92487E-002	6.36831E-001	-4.30679E-002	1.89339E-003	-1.15478E-004	1.76928E-002	2.09239E-002	-9.54471E-004	-1.24104E-003	2.01365E-002	-1.36180E-003
	27	27	1.10086E+000	3.17467E-002	0.00000E+000	3.49487E-002	3.16742E-001	3.56352E-002	3.86568E+001	11	...........	5.96142E-002	-3.51639E-003	5.59566E-001	6.61796E-001	-3.01858E-002	-3.92139E-002	6.36851E-001	-4.31185E-002	1.89255E-003	-1.11634E-004	1.77644E-002	2.10098E-002	-9.58300E-004	-1.24491E-003	2.02179E-002	-1.36887E-003
	28	28	1.10094E+000	3.15753E-002	0.00000E+000	3.47625E-002	3.15040E-001	3.57275E-002	3.86017E+001	11	...........	5.95937E-002	-3.62819E-003	5.59487E-001	6.61860E-001	-3.01622E-002	-3.92225E-002	6.36930E-001	-4.31272E-002	1.88169E-003	-1.14561E-004	1.76660E-002	2.08984E-002	-9.52382E-004	-1.23846E-003	2.01113E-002	-1.36176E-003
	29	29	1.10086E+000	3.13202E-002	0.00000E+000	3.44793E-002	3.12502E-001	3.59260E-002	3.92659E+001	11	...........	5.99065E-002	-3.77056E-003	5.59470E-001	6.61994E-001	-3.01649E-002	-3.92354E-002	6.36857E-001	-4.30472E-002	1.87628E-003	-1.18095E-004	1.75227E-002	2.07338E-002	-9.44769E-004	-1.22886E-003	1.99465E-002	-1.34825E-003
	30	30	1.10086E+000	3.14690E-002	0.00000E+000	3.46430E-002	3.13982E-001	3.58618E-002	3.85295E+001	11	...........	5.98324E-002	-3.76528E-003	5.59447E-001	6.61962E-001	-3.01650E-002	-3.92529E-002	6.36858E-001	-4.30996E-002	1.88286E-003	-1.18489E-004	1.76052E-002	2.08312E-002	-9.49261E-004	-1.23525E-003	2.00413E-002	-1.35630E-003
	31	31	1.10094E+000	3.13133E-002	0.00000E+000	3.44740E-002	3.12434E-001	3.57373E-002	3.80502E+001	11	...........	5.96028E-002	-3.63667E-003	5.59514E-001	6.61945E-001	-3.01407E-002	-3.92344E-002	6.36836E-001	-4.31150E-002	1.86636E-003	-1.13876E-004	1.75203E-002	2.07277E-002	-9.43805E-004	-1.22856E-003	1.99415E-002	-1.35007E-003
	32	32	1.10087E+000	3.10161E-002	0.00000E+000	3.41447E-002	3.09477E-001	3.56692E-002	3.92998E+001	11	...........	5.95081E-002	-3.61806E-003	5.59596E-001	6.61972E-001	-3.01424E-002	-3.92210E-002	6.36819E-001	-4.31708E-002	1.84571E-003	-1.12218E-004	1.73565E-002	2.05318E-002	-9.34898E-004	-1.21648E-003	1.97516E-002	-1.33899E-003
	33	33	1.10086E+000	3.11330E-002	0.00000E+000	3.42731E-002	3.10642E-001	3.58239E-002	3.77067E+001	11	...........	5.97383E-002	-3.78208E-003	5.59571E-001	6.62055E-001	-3.01342E-002	-3.92058E-002	6.36820E-001	-4.29068E-002	1.85983E-003	-1.17748E-004	1.74211E-002	2.06117E-002	-9.38167E-004	-1.22060E-003	1.98261E-002	-1.33582E-003
	34	34	1.10093E+000	3.10680E-002	0.00000E+000	3.42039E-002	3.09997E-001	3.57761E-002	3.92026E+001	11	...........	5.96789E-002	-3.84486E-003	5.59550E-001	6.61956E-001	-3.01261E-002	-3.92037E-002	6.36748E-001	-4.28862E-002	1.85410E-003	-1.19452E-004	1.73841E-002	2.05657E-002	-9.35959E-004	-1.21798E-003	1.97825E-002	-1.33239E-003
	35	35	1.10087E+000	3.07822E-002	0.00000E+000	3.38872E-002	3.07157E-001	3.56413E-002	3.80892E+001	11	...........	5.94428E-002	-3.70778E-003	5.59644E-001	6.61962E-001	-3.01489E-002	-3.92390E-002	6.36687E-001	-4.29932E-002	1.82978E-003	-1.14134E-004	1.72271E-002	2.03766E-002	-9.28049E-004	-1.20786E-003	1.95986E-002	-1.32342E-003
	36	36	1.10086E+000	3.08918E-002	0.00000E+000	3.40075E-002	3.08243E-001	3.57792E-002	3.81598E+001	11	...........	5.96904E-002	-3.64319E-003	5.59623E-001	6.61936E-001	-3.01719E-002	-3.92632E-002	6.36771E-001	-4.31653E-002	1.84394E-003	-1.12545E-004	1.72878E-002	2.04484E-002	-9.32065E-004	-1.21291E-003	1.96710E-002	-1.33345E-003
	37	37	1.10093E+000	3.07633E-002	0.00000E+000	3.38683E-002	3.06969E-001	3.56141E-002	3.84409E+001	11	...........	5.94161E-002	-3.55153E-003	5.59811E-001	6.62004E-001	-3.01722E-002	-3.92789E-002	6.36769E-001	-4.31121E-002	1.82783E-003	-1.09257E-004	1.72216E-002	2.03654E-002	-9.28196E-004	-1.20835E-003	1.95891E-002	-1.32627E-003
	38	38	1.10087E+000	3.04910E-002	0.00000E+000	3.35668E-002	3.04263E-001	3.58853E-002	3.87023E+001	11	...........	5.98390E-002	-3.50972E-003	5.59893E-001	6.61988E-001	-3.01799E-002	-3.92760E-002	6.36795E-001	-4.30487E-002	1.82455E-003	-1.07015E-004	1.70717E-002	2.01847E-002	-9.20215E-004	-1.19756E-003	1.94165E-002	-1.31260E-003
	39	39	1.10086E+000	3.06011E-002	0.00000E+000	3.36875E-002	3.05357E-001	3.59625E-002	3.79605E+001	11	...........	5.99722E-002	-3.68792E-003	5.59828E-001	6.61941E-001	-3.01704E-002	-3.92226E-002	6.36809E-001	-4.29369E-002	1.83522E-003	-1.12854E-004	1.71314E-002	2.02561E-002	-9.23248E-004	-1.20026E-003	1.94871E-002	-1.31392E-003
	40	40	1.10093E+000	3.05514E-002	0.00000E+000	3.36350E-002	3.04862E-001	3.54353E-002	3.77865E+001	11	...........	5.91179E-002	-3.59653E-003	5.59747E-001	6.61885E-001	-3.01367E-002	-3.92129E-002	6.36711E-001	-4.29643E-002	1.80613E-003	-1.09879E-004	1.71010E-002	2.02215E-002	-9.20716E-004	-1.19801E-003	1.94524E-002	-1.31262E-003
	41	41	1.10087E+000	3.02254E-002	0.00000E+000	3.32744E-002	3.01623E-001	3.55061E-002	3.91811E+001	11	...........	5.92064E-002	-3.53458E-003	5.59740E-001	6.61906E-001	-3.01283E-002	-3.92142E-002	6.36701E-001	-4.30382E-002	1.78954E-003	-1.06834E-004	1.69184E-002	2.00064E-002	-9.10642E-004	-1.18527E-003	1.92446E-002	-1.30085E-003
	42	42	1.10086E+000	3.03754E-002	0.00000E+000	3.34390E-002	3.03113E-001	3.60078E-002	3.81254E+001	11	...........	6.00621E-002	-3.66250E-003	5.59666E-001	6.61761E-001	-3.01407E-002	-3.92112E-002	6.36777E-001	-4.30036E-002	1.82441E-003	-1.11250E-004	1.70001E-002	2.01012E-002	-9.15535E-004	-1.19106E-003	1.93424E-002	-1.30625E-003
	43	43	1.10093E+000	3.02851E-002	0.00000E+000	3.33417E-002	3.02214E-001	3.52516E-002	3.80955E+001	11	...........	5.88083E-002	-3.76750E-003	5.59558E-001	6.61729E-001	-3.01306E-002	-3.92072E-002	6.36859E-001	-4.30358E-002	1.78101E-003	-1.14099E-004	1.69462E-002	2.00405E-002	-9.12506E-004	-1.18739E-003	1.92873E-002	-1.30334E-003
	44	44	1.10088E+000	2.99840E-002	0.00000E+000	3.30088E-002	2.99219E-001	3.58537E-002	3.85101E+001	11	...........	5.97994E-002	-3.76347E-003	5.59597E-001	6.61579E-001	-3.01193E-002	-3.92124E-002	6.36825E-001	-4.29394E-002	1.79303E-003	-1.12844E-004	1.67790E-002	1.98368E-002	-9.03097E-004	-1.17574E-003	1.90946E-002	-1.28750E-003
	45	45	1.10086E+000	3.01301E-002	0.00000E+000	3.31689E-002	3.00671E-001	3.57972E-002	3.82494E+001	11	...........	5.97046E-002	-3.68458E-003	5.59506E-001	6.61483E-001	-3.01165E-002	-3.91864E-002	6.36821E-001	-4.28854E-002	1.79890E-003	-1.11017E-004	1.68580E-002	1.99305E-002	-9.07413E-004	-1.18069E-003	1.91875E-002	-1.29214E-003
	46	46	1.10093E+000	3.00419E-002	0.00000E+000	3.30739E-002	2.99794E-001	3.52495E-002	3.87195E+001	11	...........	5.88039E-002	-3.74792E-003	5.59690E-001	6.61484E-001	-3.01026E-002	-3.92000E-002	6.36713E-001	-4.29219E-002	1.76658E-003	-1.12594E-004	1.68141E-002	1.98722E-002	-9.04340E-004	-1.17764E-003	1.91280E-002	-1.28946E-003
	47	47	1.10088E+000	2.97495E-002	0.00000E+000	3.27508E-002	2.96891E-001	3.57770E-002	3.85499E+001	11	...........	5.96936E-002	-3.81472E-003	5.59920E-001	6.61238E-001	-3.01276E-002	-3.92200E-002	6.36649E-001	-4.29331E-002	1.77586E-003	-1.13486E-004	1.66574E-002	1.96715E-002	-8.96283E-004	-1.16678E-003	1.89400E-002	-1.27724E-003
	48	48	1.10085E+000	2.98786E-002	0.00000E+000	3.28920E-002	2.98167E-001	3.58112E-002	3.78573E+001	11	...........	5.97131E-002	-3.80736E-003	5.59866E-001	6.61187E-001	-3.00993E-002	-3.92065E-002	6.36588E-001	-4.29958E-002	1.78414E-003	-1.13759E-004	1.67280E-002	1.97554E-002	-8.99325E-004	-1.17144E-003	1.90204E-002	-1.28466E-003
	49	49	1.10093E+000	2.98057E-002	0.00000E+000	3.28139E-002	2.97445E-001	3.53700E-002	3.83117E+001	11	...........	5.90221E-002	-3.59500E-003	5.59766E-001	6.61402E-001	-3.00635E-002	-3.92108E-002	6.36574E-001	-4.29083E-002	1.75920E-003	-1.07152E-004	1.66842E-002	1.97136E-002	-8.96064E-004	-1.16871E-003	1.89735E-002	-1.27891E-003
	50	50	1.10088E+000	2.94695E-002	0.00000E+000	3.24425E-002	2.94102E-001	3.57149E-002	3.87082E+001	11	...........	5.95746E-002	-3.66625E-003	5.59664E-001	6.61590E-001	-3.00694E-002	-3.91915E-002	6.36639E-001	-4.28572E-002	1.75564E-003	-1.08043E-004	1.64930E-002	1.94967E-002	-8.86133E-004	-1.15496E-003	1.87615E-002	-1.26298E-003
	51	51	1.10086E+000	2.96232E-002	0.00000E+000	3.26109E-002	2.95636E-001	3.56207E-002	3.79633E+001	11	...........	5.93949E-002	-3.63917E-003	5.59399E-001	6.61633E-001	-3.00726E-002	-3.92144E-002	6.36673E-001	-4.28528E-002	1.75947E-003	-1.07804E-004	1.65712E-002	1.95997E-002	-8.90848E-004	-1.16166E-003	1.88603E-002	-1.26944E-003
	52	52	1.10092E+000	2.95584E-002	0.00000E+000	3.25415E-002	2.94991E-001	3.54672E-002	3.73471E+001	11	...........	5.91544E-002	-3.39597E-003	5.59381E-001	6.61683E-001	-3.00922E-002	-3.92158E-002	6.36568E-001	-4.29740E-002	1.74851E-003	-1.00379E-004	1.65344E-002	1.95583E-002	-8.89477E-004	-1.15916E-003	1.88159E-002	-1.27024E-003
	53	53	1.10088E+000	2.92860E-002	0.00000E+000	3.22405E-002	2.92278E-001	3.55867E-002	3.81935E+001	11	...........	5.93549E-002	-3.46861E-003	5.59440E-001	6.61906E-001	-3.00981E-002	-3.92443E-002	6.36737E-001	-4.29262E-002	1.73827E-003	-1.01582E-004	1.63838E-002	1.93846E-002	-8.81453E-004	-1.14931E-003	1.86475E-002	-1.25714E-003
	54	54	1.10086E+000	2.93876E-002	0.00000E+000	3.23516E-002	2.93292E-001	3.55118E-002	3.81583E+001	11	...........	5.92410E-002	-3.49014E-003	5.59406E-001	6.62099E-001	-3.00946E-002	-3.92349E-002	6.36633E-001	-4.30028E-002	1.74095E-003	-1.02567E-004	1.64396E-002	1.94575E-002	-8.84408E-004	-1.15302E-003	1.87091E-002	-1.26375E-003
	55	55	1.10092E+000	2.93764E-002	0.00000E+000	3.23411E-002	2.93181E-001	3.54571E-002	3.77746E+001	11	...........	5.91558E-002	-3.55694E-003	5.59436E-001	6.62055E-001	-3.01029E-002	-3.92299E-002	6.36594E-001	-4.30564E-002	1.73779E-003	-1.04490E-004	1.64342E-002	1.94488E-002	-8.84315E-004	-1.15243E-003	1.87008E-002	-1.26484E-003
	56	56	1.10089E+000	2.90250E-002	0.00000E+000	3.19533E-002	2.89689E-001	3.57020E-002	3.84275E+001	11	...........	5.95672E-002	-3.67444E-003	5.59547E-001	6.62077E-001	-3.00565E-002	-3.92228E-002	6.36688E-001	-4.30321E-002	1.72894E-003	-1.06651E-004	1.62409E-002	1.92168E-002	-8.72392E-004	-1.13844E-003	1.84799E-002	-1.24901E-003
	57	57	1.10085E+000	2.91903E-002	0.00000E+000	3.21343E-002	2.91334E-001	3.54927E-002	3.81012E+001	11	...........	5.91962E-002	-3.53042E-003	5.59656E-001	6.62084E-001	-3.00653E-002	-3.92407E-002	6.36779E-001	-4.28792E-002	1.72796E-003	-1.03054E-004	1.63365E-002	1.93264E-002	-8.77615E-004	-1.14545E-003	1.85878E-002	-1.25166E-003
	58	58	1.10092E+000	2.91066E-002	0.00000E+000	3.20440E-002	2.90506E-001	3.52182E-002	3.80387E+001	11	...........	5.87607E-002	-3.54917E-003	5.59597E-001	6.62199E-001	-3.00447E-002	-3.92153E-002	6.36725E-001	-4.27407E-002	1.71032E-003	-1.03304E-004	1.62880E-002	1.92744E-002	-8.74499E-004	-1.14142E-003	1.85329E-002	-1.24404E-003
	59	59	1.10089E+000	2.87561E-002	0.00000E+000	3.16574E-002	2.87021E-001	3.56777E-002	3.68091E+001	11	...........	5.94961E-002	-3.65458E-003	5.59592E-001	6.62231E-001	-3.00258E-002	-3.92071E-002	6.36773E-001	-4.28644E-002	1.71088E-003	-1.05092E-004	1.60917E-002	1.90432E-002	-8.63427E-004	-1.12744E-003	1.83112E-002	-1.23262E-003
	60	60	1.10085E+000	2.89264E-002	0.00000E+000	3.18437E-002	2.88711E-001	3.55902E-002	3.77787E+001	11	...........	5.93686E-002	-3.69736E-003	5.59483E-001	6.62238E-001	-3.00304E-002	-3.92099E-002	6.36758E-001	-4.29444E-002	1.71732E-003	-1.06951E-004	1.61838E-002	1.91562E-002	-8.68673E-004	-1.13420E-003	1.84191E-002	-1.24223E-003
	61	60.6567	1.10098E+000	2.87688E-002	0.00000E+000	3.16738E-002	2.87139E-001	3.53612E-002	3.76267E+001	11	...........	5.89638E-002	-3.76417E-003	5.59621E-001	6.62058E-001	-3.00144E-002	-3.92373E-002	6.36781E-001	-4.29522E-002	1.69632E-003	-1.08291E-004	1.60996E-002	1.90466E-002	-8.63477E-004	-1.12881E-003	1.83194E-002	-1.23568E-003
STARTTIMEOFFSET	QUANT	503794.4	Start Time Offset (s)
