EXPLAIN
TAG	PWR800_DISCHARGE
TITLE	LABEL	PWR Discharge	Test Identifier
DATE	LABEL	10/16/2022	Date
TIME	LABEL	3:16:10	Time
NOTES	NOTES	1	Notes...
	
PSTAT	PSTAT	REF3000-21114	Potentiostat
CAPACITY	QUANT	5.30000E-002	Capacity (A-hr)
CELLTYPE	SELECTOR	1	Cell Type
WORKINGCONNECTION	SELECTOR	0	Working Connection
MAXDISCHARGETIME	VARIABLEANDUNITS	7.20000E+003	s	2.00000E+000	hour(s)	Max Discharge Time
DISCHARGEMODE	MULTIPARAM	0	1.00000E-001	Discharge Mode	Constant Current	Amp(s)
VOLTAGEFINISH	TWOPARAM	T	5.00000E-003	7.20000E+003	Voltage Finish	I (A) <	Max Time(s)
SAMPLETIME	QUANT	1.00000E+000	Sample Period (s)
DISCHARGESTOPAT1	MULTIPARAM	1	5.00000E-002	Stop At 1	|Voltage| < Limit	V
DISCHARGESTOPAT2	MULTIPARAM	0	0.00000E+000	Stop At 2	None	N/A
AESELECTOR	AESELECTOR	0x1	T	Set Limits	AE Channels
AESBHCSELECTOR	TOGGLE	F	Save Both Half Cells
IRCOMP	TOGGLE	F	IR Measure
EOC	QUANT	0.544539	Open Circuit (V)
SEQUENCER	TOGGLE	TRUE	Run as Sequence
PSTATMODEL	IQUANT	5	Pstat Model
PSTATSECTION	LABEL	REF3000-21114	Pstat Section
PSTATSERIALNO	LABEL	21114	Pstat Serial Number
CTRLMODE	IQUANT	0	Control Mode
ELECTROMETER	IQUANT	0	RE=0 or CS=1
IESTAB	IQUANT	0	I/E Stability
CASPEED	IQUANT	4	Control Amp Speed
CONVENTION	IQUANT	1	Current Convention
ICHRANGE	IQUANT	2	Ich Range
ICHRANGEMODE	TOGGLE	T	Ich Auto Range
ICHOFFSETENABLE	TOGGLE	F	Ich Offset Enable
ICHOFFSET	QUANT	0	Ich Offset (V)
ICHFILTER	IQUANT	1	Ich Filter
VCHRANGE	IQUANT	3	Vch Range
VCHRANGEMODE	TOGGLE	T	Vch Auto Range
VCHOFFSETENABLE	TOGGLE	F	Vch Offset Enable
VCHOFFSET	QUANT	0	Vch Offset (V)
VCHFILTER	IQUANT	1	Vch Filter
ACHRANGE	IQUANT	2	Ach Range
ACHOFFSETENABLE	TOGGLE	F	Ach Offset Enable
ACHOFFSET	QUANT	0	Ach Offset (V)
ACHFILTER	IQUANT	1	Ach Filter
IERANGELOWERLIMIT	IQUANT	9	I/E Range Lower Limit
IERANGEMODE	TOGGLE	F	I/E AutoRange
IERANGE	IQUANT	9	I/E Range
POSFEEDENABLE	TOGGLE	F	Positive Feedback IR Comp
POSFEEDRESISTANCE	QUANT	0	Positive Feedback Resistance (ohm)
ACHSELECT	IQUANT	1	Ach Select
SENSECABLEID	IQUANT	13	Sense Cable ID
PWRCABLEID	IQUANT	13	Power Cable ID
DCCALDATE	LABEL		DC Calibration Date
ACCALDATE	LABEL		AC Calibration Date
THERMOSELECT	IQUANT	1	Thermo Select
FRAMEWORKVERSION	LABEL	7.8.6	Framework Version
INSTRUMENTVERSION	LABEL	4.50	Instrument Version
COMPLIANCEVOLTAGE	IQUANT	0	Compliance Voltage
CURVE	TABLE	112
	Pt	T	Vf	Im	Vu	Pwr	Sig	Ach	Temp	IERange	Over	Vf1	Vf2	Vf3	Vf4	Vf5	Vf6	Vf7	Vf8	Pwr1	Pwr2	Pwr3	Pwr4	Pwr5	Pwr6	Pwr7	Pwr8
	#	s	V	A	V	W	V	V	deg C	#	bits	V	V	V	V	V	V	V	V	W	W	W	W	W	W	W	W
	0	1	3.03204E-001	-1.00106E-001	0.00000E+000	-3.03525E-002	-9.94000E-001	3.56035E-002	2.94611E+001	11	...........	5.91165E-002	-4.09667E-003	5.75671E-001	6.17079E-001	-2.91067E-002	-3.89471E-002	6.63943E-001	-4.35210E-002	-5.91792E-003	4.10101E-004	-5.76282E-002	-6.17733E-002	2.91375E-003	3.89884E-003	-6.64647E-002	4.35671E-003
	1	2	2.07907E-001	-1.00107E-001	0.00000E+000	-2.08129E-002	-9.94000E-001	3.57427E-002	2.87502E+001	11	...........	5.93440E-002	-4.12375E-003	5.75502E-001	6.17051E-001	-2.90986E-002	-3.89536E-002	6.63991E-001	-4.33846E-002	-5.94075E-003	4.12816E-004	-5.76118E-002	-6.17710E-002	2.91297E-003	3.89952E-003	-6.64700E-002	4.34310E-003
	2	3	1.25500E-001	-1.00107E-001	0.00000E+000	-1.25634E-002	-9.94000E-001	3.56358E-002	2.77147E+001	11	...........	5.91862E-002	-4.15847E-003	5.75308E-001	6.16976E-001	-2.91081E-002	-3.89569E-002	6.64128E-001	-4.33383E-002	-5.92495E-003	4.16292E-004	-5.75924E-002	-6.17636E-002	2.91392E-003	3.89986E-003	-6.64838E-002	4.33847E-003
	3	3.51	6.73565E-002	-1.00107E-001	0.00000E+000	-6.74283E-003	-9.94000E-001	3.55232E-002	2.72397E+001	11	...........	5.90014E-002	-4.17919E-003	5.75366E-001	6.17042E-001	-2.91544E-002	-3.89567E-002	6.64106E-001	-4.33638E-002	-5.90643E-003	4.18365E-004	-5.75980E-002	-6.17700E-002	2.91855E-003	3.89983E-003	-6.64814E-002	4.34101E-003
	4	4	4.93741E-002	-8.81353E-002	0.00000E+000	-4.35161E-003	-8.74969E-001	3.58124E-002	2.69641E+001	11	...........	5.94847E-002	-4.30045E-003	5.75426E-001	6.17018E-001	-2.90692E-002	-3.89708E-002	6.64143E-001	-4.33826E-002	-5.24270E-003	3.79022E-004	-5.07154E-002	-5.43810E-002	2.56202E-003	3.43470E-003	-5.85345E-002	3.82354E-003
	5	5	4.96520E-002	-6.44264E-002	0.00000E+000	-3.19890E-003	-6.39269E-001	3.57630E-002	2.79788E+001	11	...........	5.94281E-002	-4.37472E-003	5.75520E-001	6.16928E-001	-2.90976E-002	-3.89350E-002	6.64224E-001	-4.33950E-002	-3.82873E-003	2.81847E-004	-3.70787E-002	-3.97464E-002	1.87466E-003	2.50844E-003	-4.27935E-002	2.79578E-003
	6	6	4.97942E-002	-4.73644E-002	0.00000E+000	-2.35848E-003	-4.69647E-001	3.59453E-002	2.89929E+001	11	...........	5.97069E-002	-4.37861E-003	5.75501E-001	6.16818E-001	-2.91010E-002	-3.89571E-002	6.64216E-001	-4.33479E-002	-2.82799E-003	2.07390E-004	-2.72583E-002	-2.92152E-002	1.37835E-003	1.84518E-003	-3.14602E-002	2.05315E-003
	7	7	4.98732E-002	-3.74910E-002	0.00000E+000	-1.86979E-003	-3.71490E-001	3.59212E-002	3.00499E+001	11	...........	5.96594E-002	-4.11167E-003	5.75552E-001	6.16841E-001	-2.90786E-002	-3.89336E-002	6.64156E-001	-4.33175E-002	-2.23669E-003	1.54150E-004	-2.15780E-002	-2.31260E-002	1.09019E-003	1.45966E-003	-2.48998E-002	1.62401E-003
	8	8	4.99017E-002	-3.16547E-002	0.00000E+000	-1.57962E-003	-3.13467E-001	3.60352E-002	3.05610E+001	11	...........	5.98300E-002	-4.12764E-003	5.75578E-001	6.16741E-001	-2.90524E-002	-3.89425E-002	6.64169E-001	-4.31890E-002	-1.89390E-003	1.30659E-004	-1.82197E-002	-1.95227E-002	9.19643E-004	1.23271E-003	-2.10241E-002	1.36713E-003
	9	9	4.99227E-002	-2.76143E-002	0.00000E+000	-1.37858E-003	-2.73300E-001	3.60807E-002	3.12819E+001	11	...........	5.99240E-002	-4.09333E-003	5.75538E-001	6.16768E-001	-2.90451E-002	-3.89221E-002	6.64227E-001	-4.32144E-002	-1.65476E-003	1.13034E-004	-1.58931E-002	-1.70316E-002	8.02060E-004	1.07481E-003	-1.83422E-002	1.19334E-003
	10	10	4.99293E-002	-2.47961E-002	0.00000E+000	-1.23805E-003	-2.45268E-001	3.60924E-002	3.12137E+001	11	...........	5.99579E-002	-4.13986E-003	5.75598E-001	6.16873E-001	-2.90550E-002	-3.89251E-002	6.64248E-001	-4.33725E-002	-1.48672E-003	1.02652E-004	-1.42726E-002	-1.52960E-002	7.20451E-004	9.65192E-004	-1.64708E-002	1.07547E-003
	11	11	4.99498E-002	-2.26444E-002	0.00000E+000	-1.13108E-003	-2.23873E-001	3.60992E-002	3.17603E+001	11	...........	5.99375E-002	-4.13236E-003	5.75598E-001	6.16938E-001	-2.90642E-002	-3.89342E-002	6.64257E-001	-4.34300E-002	-1.35725E-003	9.35749E-005	-1.30341E-002	-1.39702E-002	6.58141E-004	8.81641E-004	-1.50417E-002	9.83447E-004
	12	12	4.99455E-002	-2.10869E-002	0.00000E+000	-1.05319E-003	-2.08394E-001	3.60963E-002	3.11700E+001	11	...........	5.99383E-002	-4.17889E-003	5.75728E-001	6.16989E-001	-2.90719E-002	-3.89524E-002	6.64249E-001	-4.35167E-002	-1.26391E-003	8.81197E-005	-1.21403E-002	-1.30104E-002	6.13036E-004	8.21383E-004	-1.40069E-002	9.17630E-004
	13	13	4.99587E-002	-1.99623E-002	0.00000E+000	-9.97288E-004	-1.97201E-001	3.61567E-002	3.14729E+001	11	...........	6.00606E-002	-4.15611E-003	5.75778E-001	6.17049E-001	-2.90817E-002	-3.89615E-002	6.64323E-001	-4.33192E-002	-1.19894E-003	8.29653E-005	-1.14938E-002	-1.23177E-002	5.80536E-004	7.77760E-004	-1.32614E-002	8.64748E-004
	14	14	4.99548E-002	-1.90560E-002	0.00000E+000	-9.51939E-004	-1.88201E-001	3.61992E-002	3.21315E+001	11	...........	6.01192E-002	-4.08042E-003	5.75759E-001	6.17007E-001	-2.90864E-002	-3.89590E-002	6.64263E-001	-4.31982E-002	-1.14563E-003	7.77564E-005	-1.09717E-002	-1.17577E-002	5.54270E-004	7.42403E-004	-1.26582E-002	8.23185E-004
	15	15	4.99573E-002	-1.82374E-002	0.00000E+000	-9.11091E-004	-1.80057E-001	3.61825E-002	3.22018E+001	11	...........	6.00944E-002	-4.12403E-003	5.75916E-001	6.16839E-001	-2.90776E-002	-3.89579E-002	6.64196E-001	-4.32200E-002	-1.09597E-003	7.52115E-005	-1.05032E-002	-1.12495E-002	5.30300E-004	7.10490E-004	-1.21132E-002	7.88220E-004
	16	16	4.99582E-002	-1.75314E-002	0.00000E+000	-8.75837E-004	-1.73027E-001	3.61930E-002	3.18594E+001	11	...........	6.01085E-002	-4.00875E-003	5.76003E-001	6.16820E-001	-2.90547E-002	-3.89506E-002	6.64204E-001	-4.32306E-002	-1.05378E-003	7.02790E-005	-1.00981E-002	-1.08137E-002	5.09370E-004	6.82857E-004	-1.16444E-002	7.57892E-004
	17	17	4.99611E-002	-1.69739E-002	0.00000E+000	-8.48033E-004	-1.67477E-001	3.62465E-002	3.16699E+001	11	...........	6.01993E-002	-4.02889E-003	5.75862E-001	6.16718E-001	-2.90581E-002	-3.89754E-002	6.64126E-001	-4.32599E-002	-1.02181E-003	6.83858E-005	-9.77460E-003	-1.04681E-002	4.93227E-004	6.61563E-004	-1.12728E-002	7.34287E-004
	18	18	4.99622E-002	-1.64997E-002	0.00000E+000	-8.24359E-004	-1.62785E-001	3.61891E-002	3.20325E+001	11	...........	6.01235E-002	-4.13708E-003	5.75836E-001	6.16667E-001	-2.90400E-002	-3.89593E-002	6.64101E-001	-4.33206E-002	-9.92018E-004	6.82605E-005	-9.50110E-003	-1.01748E-002	4.79151E-004	6.42816E-004	-1.09574E-002	7.14775E-004
	19	19	4.99627E-002	-1.61137E-002	0.00000E+000	-8.05083E-004	-1.58940E-001	3.63441E-002	3.22713E+001	11	...........	6.03582E-002	-4.14319E-003	5.75911E-001	6.16783E-001	-2.90289E-002	-3.89869E-002	6.64031E-001	-4.32287E-002	-9.72593E-004	6.67621E-005	-9.28004E-003	-9.93864E-003	4.67762E-004	6.28223E-004	-1.07000E-002	6.96574E-004
	20	20	4.99624E-002	-1.57195E-002	0.00000E+000	-7.85385E-004	-1.55007E-001	3.62072E-002	3.26639E+001	11	...........	6.02924E-002	-4.20292E-003	5.76123E-001	6.16897E-001	-2.90685E-002	-3.90072E-002	6.64111E-001	-4.32657E-002	-9.47766E-004	6.60678E-005	-9.05637E-003	-9.69732E-003	4.56942E-004	6.13174E-004	-1.04395E-002	6.80115E-004
	21	21	4.99633E-002	-1.53620E-002	0.00000E+000	-7.67536E-004	-1.51453E-001	3.61666E-002	3.22641E+001	11	...........	6.03264E-002	-4.15708E-003	5.76139E-001	6.16778E-001	-2.90675E-002	-3.89829E-002	6.64224E-001	-4.32687E-002	-9.26734E-004	6.38611E-005	-8.85064E-003	-9.47495E-003	4.46535E-004	5.98856E-004	-1.02038E-002	6.64695E-004
	22	22	4.99620E-002	-1.49241E-002	0.00000E+000	-7.45640E-004	-1.47091E-001	3.60470E-002	3.18115E+001	11	...........	6.01414E-002	-4.28028E-003	5.76061E-001	6.16676E-001	-2.90539E-002	-3.89708E-002	6.64209E-001	-4.32465E-002	-8.97558E-004	6.38795E-005	-8.59721E-003	-9.20336E-003	4.33604E-004	5.81606E-004	-9.91275E-003	6.45417E-004
	23	23	4.99650E-002	-1.46958E-002	0.00000E+000	-7.34277E-004	-1.44817E-001	3.62207E-002	3.21205E+001	11	...........	6.04324E-002	-4.29000E-003	5.76038E-001	6.16697E-001	-2.90737E-002	-3.89721E-002	6.64172E-001	-4.32435E-002	-8.88104E-004	6.30451E-005	-8.46535E-003	-9.06287E-003	4.27263E-004	5.72727E-004	-9.76055E-003	6.35499E-004
	24	24	4.99630E-002	-1.44488E-002	0.00000E+000	-7.21903E-004	-1.42350E-001	3.61652E-002	3.24220E+001	11	...........	6.03432E-002	-4.28417E-003	5.76211E-001	6.16677E-001	-2.90575E-002	-3.89554E-002	6.64010E-001	-4.34650E-002	-8.71884E-004	6.19009E-005	-8.32553E-003	-8.91021E-003	4.19845E-004	5.62857E-004	-9.59412E-003	6.28015E-004
	25	25	4.99648E-002	-1.41739E-002	0.00000E+000	-7.08198E-004	-1.39641E-001	3.62078E-002	3.28686E+001	11	...........	6.04131E-002	-4.44306E-003	5.76314E-001	6.16530E-001	-2.90396E-002	-3.89319E-002	6.64015E-001	-4.35467E-002	-8.56291E-004	6.29756E-005	-8.16864E-003	-8.73866E-003	4.11605E-004	5.51819E-004	-9.41171E-003	6.17228E-004
	26	26	4.99614E-002	-1.39494E-002	0.00000E+000	-6.96932E-004	-1.37415E-001	3.62152E-002	3.23309E+001	11	...........	6.04308E-002	-4.54778E-003	5.76303E-001	6.16673E-001	-2.90621E-002	-3.89254E-002	6.64072E-001	-4.34985E-002	-8.42975E-004	6.34389E-005	-8.03909E-003	-8.60223E-003	4.05399E-004	5.42987E-004	-9.26343E-003	6.06779E-004
	27	27	4.99676E-002	-1.36746E-002	0.00000E+000	-6.83286E-004	-1.34676E-001	3.62674E-002	3.29245E+001	11	...........	6.04947E-002	-4.50889E-003	5.76273E-001	6.16774E-001	-2.90400E-002	-3.89258E-002	6.63963E-001	-4.35360E-002	-8.27240E-004	6.16572E-005	-7.88029E-003	-8.43413E-003	3.97110E-004	5.32295E-004	-9.07941E-003	5.95336E-004
	28	28	4.99626E-002	-1.33981E-002	0.00000E+000	-6.69401E-004	-1.31921E-001	3.61763E-002	3.21515E+001	11	...........	6.03425E-002	-4.39042E-003	5.76411E-001	6.16863E-001	-2.90228E-002	-3.89207E-002	6.64064E-001	-4.33935E-002	-8.08472E-004	5.88231E-005	-7.72279E-003	-8.26477E-003	3.88849E-004	5.21462E-004	-8.89717E-003	5.81388E-004
	29	29	4.99663E-002	-1.31714E-002	0.00000E+000	-6.58129E-004	-1.29664E-001	3.62568E-002	3.21964E+001	11	...........	6.04899E-002	-4.28542E-003	5.76289E-001	6.16903E-001	-2.90443E-002	-3.89046E-002	6.64150E-001	-4.33872E-002	-7.96739E-004	5.64451E-005	-7.59056E-003	-8.12551E-003	3.82556E-004	5.12430E-004	-8.74782E-003	5.71472E-004
	30	30	4.99652E-002	-1.30324E-002	0.00000E+000	-6.51164E-004	-1.28285E-001	3.63118E-002	3.26723E+001	11	...........	6.05768E-002	-4.23847E-003	5.76233E-001	6.16771E-001	-2.90287E-002	-3.88908E-002	6.64130E-001	-4.33996E-002	-7.89458E-004	5.52373E-005	-7.50967E-003	-8.03797E-003	3.78313E-004	5.06839E-004	-8.65518E-003	5.65599E-004
	31	31	4.99638E-002	-1.27769E-002	0.00000E+000	-6.38384E-004	-1.25753E-001	3.62614E-002	3.29078E+001	11	...........	6.05050E-002	-4.26208E-003	5.76394E-001	6.16706E-001	-2.90460E-002	-3.89106E-002	6.64040E-001	-4.35474E-002	-7.73069E-004	5.44564E-005	-7.36456E-003	-7.87961E-003	3.71119E-004	4.97158E-004	-8.48440E-003	5.56402E-004
	32	32	4.99641E-002	-1.25790E-002	0.00000E+000	-6.28499E-004	-1.23781E-001	3.62761E-002	3.29108E+001	11	...........	6.05318E-002	-4.34333E-003	5.76393E-001	6.16701E-001	-2.90460E-002	-3.89074E-002	6.64039E-001	-4.34735E-002	-7.61431E-004	5.46349E-005	-7.25046E-003	-7.75751E-003	3.65370E-004	4.89417E-004	-8.35296E-003	5.46854E-004
	33	33	4.99646E-002	-1.23800E-002	0.00000E+000	-6.18563E-004	-1.21791E-001	3.63594E-002	3.27148E+001	11	...........	6.06689E-002	-4.26625E-003	5.76340E-001	6.16603E-001	-2.90537E-002	-3.89022E-002	6.64172E-001	-4.34601E-002	-7.51083E-004	5.28163E-005	-7.13511E-003	-7.63356E-003	3.59686E-004	4.81611E-004	-8.22246E-003	5.38038E-004
	34	34	4.99653E-002	-1.21716E-002	0.00000E+000	-6.08157E-004	-1.19717E-001	3.63190E-002	3.31113E+001	11	...........	6.05985E-002	-4.31389E-003	5.76384E-001	6.16682E-001	-2.90572E-002	-3.88849E-002	6.64140E-001	-4.33635E-002	-7.37581E-004	5.25069E-005	-7.01552E-003	-7.50601E-003	3.53673E-004	4.73291E-004	-8.08364E-003	5.27803E-004
	35	35	4.99658E-002	-1.19945E-002	0.00000E+000	-5.99312E-004	-1.17951E-001	3.63100E-002	3.29453E+001	11	...........	6.05640E-002	-4.40319E-003	5.76421E-001	6.16704E-001	-2.90583E-002	-3.88653E-002	6.64185E-001	-4.31992E-002	-7.26432E-004	5.28139E-005	-6.91385E-003	-7.39702E-003	3.48539E-004	4.66168E-004	-7.96653E-003	5.18150E-004
	36	36	4.99611E-002	-1.17930E-002	0.00000E+000	-5.89189E-004	-1.15945E-001	3.64379E-002	3.24100E+001	11	...........	6.08026E-002	-4.46139E-003	5.76533E-001	6.16677E-001	-2.90408E-002	-3.88675E-002	6.64238E-001	-4.32304E-002	-7.17043E-004	5.26129E-005	-6.79903E-003	-7.27244E-003	3.42477E-004	4.58363E-004	-7.83333E-003	5.09814E-004
	37	37	4.99691E-002	-1.15657E-002	0.00000E+000	-5.77928E-004	-1.13716E-001	3.62554E-002	3.27551E+001	11	...........	6.04937E-002	-4.37528E-003	5.76328E-001	6.16618E-001	-2.90712E-002	-3.88571E-002	6.64267E-001	-4.33676E-002	-6.99653E-004	5.06032E-005	-6.66564E-003	-7.13162E-003	3.36230E-004	4.49410E-004	-7.68271E-003	5.01577E-004
	38	38	4.99650E-002	-1.14743E-002	0.00000E+000	-5.73313E-004	-1.12810E-001	3.63452E-002	3.31653E+001	11	...........	6.06317E-002	-4.24625E-003	5.76089E-001	6.16689E-001	-2.90576E-002	-3.88665E-002	6.64398E-001	-4.34178E-002	-6.95706E-004	4.87227E-005	-6.61021E-003	-7.07607E-003	3.33416E-004	4.45966E-004	-7.62350E-003	4.98188E-004
	39	39	4.99655E-002	-1.13365E-002	0.00000E+000	-5.66432E-004	-1.11434E-001	3.64373E-002	3.32962E+001	11	...........	6.07933E-002	-4.32042E-003	5.76079E-001	6.16728E-001	-2.90567E-002	-3.88985E-002	6.64358E-001	-4.33312E-002	-6.89182E-004	4.89783E-005	-6.53070E-003	-6.99152E-003	3.29400E-004	4.40971E-004	-7.53147E-003	4.91224E-004
	40	40	4.99649E-002	-1.11294E-002	0.00000E+000	-5.56080E-004	-1.09373E-001	3.63832E-002	3.30542E+001	11	...........	6.07111E-002	-4.45667E-003	5.76001E-001	6.16642E-001	-2.90471E-002	-3.89139E-002	6.64302E-001	-4.31690E-002	-6.75679E-004	4.96001E-005	-6.41055E-003	-6.86286E-003	3.23277E-004	4.33089E-004	-7.39329E-003	4.80446E-004
	41	41	4.99631E-002	-1.08884E-002	0.00000E+000	-5.44016E-004	-1.06967E-001	3.64651E-002	3.24398E+001	11	...........	6.08424E-002	-4.47611E-003	5.75977E-001	6.16558E-001	-2.90575E-002	-3.89222E-002	6.64312E-001	-4.33056E-002	-6.62473E-004	4.87375E-005	-6.27144E-003	-6.71331E-003	3.16388E-004	4.23799E-004	-7.23327E-003	4.71526E-004
	42	42	4.99660E-002	-1.06466E-002	0.00000E+000	-5.31967E-004	-1.04554E-001	3.62680E-002	3.22577E+001	11	...........	6.05296E-002	-4.42333E-003	5.75990E-001	6.16583E-001	-2.90557E-002	-3.89021E-002	6.64352E-001	-4.34365E-002	-6.44432E-004	4.70933E-005	-6.13231E-003	-6.56449E-003	3.09343E-004	4.14173E-004	-7.07306E-003	4.62450E-004
	43	43	4.99667E-002	-1.06140E-002	0.00000E+000	-5.30347E-004	-1.04232E-001	3.65032E-002	3.27592E+001	11	...........	6.08997E-002	-4.39931E-003	5.75968E-001	6.16762E-001	-2.90381E-002	-3.89201E-002	6.64351E-001	-4.33429E-002	-6.46390E-004	4.66942E-005	-6.11333E-003	-6.54631E-003	3.08210E-004	4.13099E-004	-7.05142E-003	4.60042E-004
	44	44	4.99647E-002	-1.05256E-002	0.00000E+000	-5.25910E-004	-1.03353E-001	3.65408E-002	3.28379E+001	11	...........	6.09672E-002	-4.47750E-003	5.75860E-001	6.16890E-001	-2.90307E-002	-3.89412E-002	6.64350E-001	-4.32522E-002	-6.41718E-004	4.71285E-005	-6.06129E-003	-6.49315E-003	3.05566E-004	4.09881E-004	-6.99270E-003	4.55257E-004
	45	45	4.99669E-002	-1.03413E-002	0.00000E+000	-5.16722E-004	-1.01567E-001	3.64426E-002	3.27625E+001	11	...........	6.07971E-002	-4.47389E-003	5.75785E-001	6.17029E-001	-2.90162E-002	-3.89783E-002	6.64179E-001	-4.33225E-002	-6.28719E-004	4.62657E-005	-5.95435E-003	-6.38087E-003	3.00065E-004	4.03086E-004	-6.86846E-003	4.48010E-004
	46	46	4.99651E-002	-1.02148E-002	0.00000E+000	-5.10384E-004	-1.00301E-001	3.64377E-002	3.32845E+001	11	...........	6.07797E-002	-4.40125E-003	5.75752E-001	6.17069E-001	-2.90189E-002	-3.89743E-002	6.64176E-001	-4.33042E-002	-6.20853E-004	4.49579E-005	-5.88120E-003	-6.30324E-003	2.96422E-004	3.98115E-004	-6.78443E-003	4.42344E-004
	47	47	4.99663E-002	-1.01281E-002	0.00000E+000	-5.06064E-004	-9.94380E-002	3.65548E-002	3.34433E+001	11	...........	6.09917E-002	-4.38931E-003	5.75849E-001	6.17271E-001	-2.90668E-002	-3.89542E-002	6.64196E-001	-4.32276E-002	-6.17729E-004	4.44553E-005	-5.83225E-003	-6.25178E-003	2.94391E-004	3.94531E-004	-6.72704E-003	4.37813E-004
	48	48	4.99654E-002	-9.93929E-003	0.00000E+000	-4.96621E-004	-9.75553E-002	3.64266E-002	3.31842E+001	11	...........	6.07700E-002	-4.39042E-003	5.75889E-001	6.17342E-001	-2.90567E-002	-3.89579E-002	6.64221E-001	-4.32629E-002	-6.04011E-004	4.36376E-005	-5.72393E-003	-6.13594E-003	2.88803E-004	3.87214E-004	-6.60189E-003	4.30003E-004
	49	49	4.99651E-002	-9.78023E-003	0.00000E+000	-4.88670E-004	-9.59667E-002	3.64888E-002	3.29978E+001	11	...........	6.08999E-002	-4.38972E-003	5.76018E-001	6.17221E-001	-2.90387E-002	-3.89797E-002	6.64178E-001	-4.32661E-002	-5.95615E-004	4.29325E-005	-5.63359E-003	-6.03656E-003	2.84006E-004	3.81231E-004	-6.49582E-003	4.23153E-004
	50	50	4.99668E-002	-9.66232E-003	0.00000E+000	-4.82795E-004	-9.47953E-002	3.64354E-002	3.26766E+001	11	...........	6.08089E-002	-4.39986E-003	5.76044E-001	6.17227E-001	-2.90626E-002	-3.89817E-002	6.64315E-001	-4.33575E-002	-5.87555E-004	4.25129E-005	-5.56592E-003	-5.96385E-003	2.80812E-004	3.76653E-004	-6.41883E-003	4.18934E-004
	51	51	4.99659E-002	-9.61408E-003	0.00000E+000	-4.80376E-004	-9.43160E-002	3.66181E-002	3.30663E+001	11	...........	6.11008E-002	-4.44806E-003	5.76084E-001	6.17282E-001	-2.90710E-002	-3.89915E-002	6.64315E-001	-4.33358E-002	-5.87428E-004	4.27640E-005	-5.53852E-003	-5.93460E-003	2.79491E-004	3.74868E-004	-6.38678E-003	4.16634E-004
	52	52	4.99666E-002	-9.44811E-003	0.00000E+000	-4.72090E-004	-9.26593E-002	3.65225E-002	3.31646E+001	11	...........	6.09214E-002	-4.33625E-003	5.76036E-001	6.17260E-001	-2.90583E-002	-3.89769E-002	6.64196E-001	-4.32835E-002	-5.75592E-004	4.09694E-005	-5.44245E-003	-5.83194E-003	2.74546E-004	3.68258E-004	-6.27540E-003	4.08947E-004
	53	53	4.99647E-002	-9.31247E-003	0.00000E+000	-4.65294E-004	-9.13080E-002	3.65024E-002	3.31036E+001	11	...........	6.08946E-002	-4.31208E-003	5.75980E-001	6.17332E-001	-2.90494E-002	-3.89876E-002	6.64370E-001	-4.33442E-002	-5.67079E-004	4.01562E-005	-5.36380E-003	-5.74888E-003	2.70522E-004	3.63071E-004	-6.18693E-003	4.03641E-004
	54	54	4.99663E-002	-9.14936E-003	0.00000E+000	-4.57160E-004	-8.96780E-002	3.65323E-002	3.26407E+001	11	...........	6.09462E-002	-4.31486E-003	5.76007E-001	6.17416E-001	-2.90189E-002	-3.90036E-002	6.64291E-001	-4.33694E-002	-5.57619E-004	3.94782E-005	-5.27009E-003	-5.64896E-003	2.65504E-004	3.56858E-004	-6.07784E-003	3.96803E-004
	55	55	4.99655E-002	-9.06740E-003	0.00000E+000	-4.53057E-004	-8.88727E-002	3.64738E-002	3.28767E+001	11	...........	6.08456E-002	-4.40083E-003	5.76229E-001	6.17401E-001	-2.89900E-002	-3.90085E-002	6.64254E-001	-4.33018E-002	-5.51711E-004	3.99041E-005	-5.22490E-003	-5.59822E-003	2.62864E-004	3.53706E-004	-6.02306E-003	3.92635E-004
	56	56	4.99666E-002	-8.99739E-003	0.00000E+000	-4.49568E-004	-8.81927E-002	3.66143E-002	3.33759E+001	11	...........	6.10943E-002	-4.39472E-003	5.76393E-001	6.17291E-001	-2.90018E-002	-3.90044E-002	6.64191E-001	-4.33619E-002	-5.49689E-004	3.95410E-005	-5.18603E-003	-5.55401E-003	2.60941E-004	3.50938E-004	-5.97598E-003	3.90144E-004
	57	57	4.99661E-002	-8.87304E-003	0.00000E+000	-4.43352E-004	-8.69600E-002	3.65209E-002	3.28289E+001	11	...........	6.09489E-002	-4.34750E-003	5.76378E-001	6.17182E-001	-2.89974E-002	-3.90000E-002	6.64214E-001	-4.33246E-002	-5.40802E-004	3.85755E-005	-5.11423E-003	-5.47628E-003	2.57295E-004	3.46049E-004	-5.89360E-003	3.84421E-004
	58	58	4.99648E-002	-8.74106E-003	0.00000E+000	-4.36745E-004	-8.56453E-002	3.66130E-002	3.30159E+001	11	...........	6.10907E-002	-4.43431E-003	5.76398E-001	6.17424E-001	-2.89839E-002	-3.90058E-002	6.64230E-001	-4.32774E-002	-5.33998E-004	3.87606E-005	-5.03833E-003	-5.39694E-003	2.53350E-004	3.40953E-004	-5.80608E-003	3.78290E-004
	59	59	4.99660E-002	-8.59993E-003	0.00000E+000	-4.29704E-004	-8.42420E-002	3.64447E-002	3.26106E+001	11	...........	6.08033E-002	-4.42500E-003	5.76378E-001	6.17374E-001	-2.89781E-002	-3.89957E-002	6.64280E-001	-4.33121E-002	-5.22904E-004	3.80547E-005	-4.95681E-003	-5.30937E-003	2.49209E-004	3.35360E-004	-5.71276E-003	3.72481E-004
	60	60	4.99681E-002	-8.56415E-003	0.00000E+000	-4.27935E-004	-8.38840E-002	3.66389E-002	3.30350E+001	11	...........	6.11406E-002	-4.39528E-003	5.76489E-001	6.17391E-001	-2.90187E-002	-3.89678E-002	6.64347E-001	-4.33899E-002	-5.23617E-004	3.76418E-005	-4.93714E-003	-5.28743E-003	2.48521E-004	3.33726E-004	-5.68957E-003	3.71597E-004
	61	61	4.99656E-002	-8.46015E-003	0.00000E+000	-4.22716E-004	-8.28513E-002	3.65526E-002	3.35289E+001	11	...........	6.09793E-002	-4.33333E-003	5.76568E-001	6.17419E-001	-2.90272E-002	-3.89576E-002	6.64338E-001	-4.32782E-002	-5.15894E-004	3.66606E-005	-4.87785E-003	-5.22346E-003	2.45575E-004	3.29587E-004	-5.62040E-003	3.66140E-004
	62	62	4.99664E-002	-8.39084E-003	0.00000E+000	-4.19260E-004	-8.21547E-002	3.66042E-002	3.38603E+001	11	...........	6.10758E-002	-4.40764E-003	5.76616E-001	6.17430E-001	-2.90426E-002	-3.89718E-002	6.64286E-001	-4.33247E-002	-5.12477E-004	3.69838E-005	-4.83829E-003	-5.18075E-003	2.43692E-004	3.27006E-004	-5.57392E-003	3.63531E-004
	63	63	4.99647E-002	-8.23791E-003	0.00000E+000	-4.11605E-004	-8.06360E-002	3.66042E-002	3.31687E+001	11	...........	6.10751E-002	-4.40708E-003	5.76723E-001	6.17538E-001	-2.90550E-002	-3.89786E-002	6.64256E-001	-4.34294E-002	-5.03132E-004	3.63052E-005	-4.75100E-003	-5.08722E-003	2.39353E-004	3.21102E-004	-5.47208E-003	3.57768E-004
	64	64	4.99660E-002	-8.11578E-003	0.00000E+000	-4.05513E-004	-7.94147E-002	3.65368E-002	3.22967E+001	11	...........	6.09460E-002	-4.31736E-003	5.76517E-001	6.17508E-001	-2.90539E-002	-3.89950E-002	6.64236E-001	-4.34772E-002	-4.94624E-004	3.50387E-005	-4.67888E-003	-5.01156E-003	2.35795E-004	3.16475E-004	-5.39079E-003	3.52851E-004
	65	65	4.99684E-002	-8.09438E-003	0.00000E+000	-4.04463E-004	-7.92027E-002	3.66612E-002	3.35242E+001	11	...........	6.11789E-002	-4.30236E-003	5.76585E-001	6.17507E-001	-2.90457E-002	-3.90093E-002	6.64209E-001	-4.34150E-002	-4.95205E-004	3.48249E-005	-4.66710E-003	-4.99834E-003	2.35107E-004	3.15756E-004	-5.37636E-003	3.51417E-004
	66	66	4.99657E-002	-7.97769E-003	0.00000E+000	-3.98611E-004	-7.80400E-002	3.65439E-002	3.36283E+001	11	...........	6.09689E-002	-4.23000E-003	5.76444E-001	6.17489E-001	-2.90358E-002	-3.89914E-002	6.64298E-001	-4.33297E-002	-4.86391E-004	3.37456E-005	-4.59870E-003	-4.92613E-003	2.31639E-004	3.11061E-004	-5.29957E-003	3.45671E-004
	67	67	4.99659E-002	-7.87500E-003	0.00000E+000	-3.93482E-004	-7.70213E-002	3.66136E-002	3.30773E+001	11	...........	6.10978E-002	-4.40347E-003	5.76312E-001	6.17402E-001	-2.90290E-002	-3.89800E-002	6.64270E-001	-4.32099E-002	-4.81145E-004	3.46773E-005	-4.53845E-003	-4.86204E-003	2.28604E-004	3.06967E-004	-5.23113E-003	3.40278E-004
	68	68	4.99674E-002	-7.80398E-003	0.00000E+000	-3.89945E-004	-7.63347E-002	3.66738E-002	3.32563E+001	11	...........	6.11908E-002	-4.44694E-003	5.76344E-001	6.17363E-001	-2.90296E-002	-3.89935E-002	6.64209E-001	-4.31701E-002	-4.77532E-004	3.47039E-005	-4.49778E-003	-4.81789E-003	2.26546E-004	3.04304E-004	-5.18347E-003	3.36899E-004
	69	69	4.99659E-002	-7.75077E-003	0.00000E+000	-3.87274E-004	-7.58027E-002	3.66566E-002	3.35695E+001	11	...........	6.11669E-002	-4.47764E-003	5.76423E-001	6.17431E-001	-2.90539E-002	-3.89839E-002	6.64015E-001	-4.33343E-002	-4.74091E-004	3.47052E-005	-4.46773E-003	-4.78557E-003	2.25190E-004	3.02155E-004	-5.14663E-003	3.35874E-004
	70	70	4.99660E-002	-7.63330E-003	0.00000E+000	-3.81405E-004	-7.46273E-002	3.65900E-002	3.35365E+001	11	...........	6.10471E-002	-4.34208E-003	5.76310E-001	6.17419E-001	-2.90526E-002	-3.89812E-002	6.64076E-001	-4.32267E-002	-4.65991E-004	3.31444E-005	-4.39915E-003	-4.71295E-003	2.21767E-004	2.97556E-004	-5.06909E-003	3.29962E-004
	71	71	4.99659E-002	-7.55103E-003	0.00000E+000	-3.77294E-004	-7.38060E-002	3.66937E-002	3.34892E+001	11	...........	6.12325E-002	-4.30611E-003	5.76377E-001	6.17400E-001	-2.90506E-002	-3.89744E-002	6.64109E-001	-4.31722E-002	-4.62368E-004	3.25156E-005	-4.35224E-003	-4.66200E-003	2.19361E-004	2.94297E-004	-5.01471E-003	3.25995E-004
	72	72	4.99669E-002	-7.45921E-003	0.00000E+000	-3.72714E-004	-7.28887E-002	3.66129E-002	3.36099E+001	11	...........	6.10868E-002	-4.37083E-003	5.76331E-001	6.17431E-001	-2.90864E-002	-3.89676E-002	6.64127E-001	-4.31578E-002	-4.55659E-004	3.26029E-005	-4.29897E-003	-4.60554E-003	2.16961E-004	2.90668E-004	-4.95386E-003	3.21923E-004
	73	73	4.99666E-002	-7.39220E-003	0.00000E+000	-3.69363E-004	-7.22220E-002	3.66232E-002	3.33524E+001	11	...........	6.11147E-002	-4.38931E-003	5.76273E-001	6.17399E-001	-2.90789E-002	-3.89337E-002	6.64034E-001	-4.32156E-002	-4.51772E-004	3.24466E-005	-4.25993E-003	-4.56394E-003	2.14957E-004	2.87806E-004	-4.90867E-003	3.19458E-004
	74	74	4.99667E-002	-7.32421E-003	0.00000E+000	-3.65966E-004	-7.15467E-002	3.66945E-002	3.36569E+001	11	...........	6.12243E-002	-4.26028E-003	5.76230E-001	6.17423E-001	-2.91114E-002	-3.89268E-002	6.63980E-001	-4.32412E-002	-4.48420E-004	3.12032E-005	-4.22043E-003	-4.52213E-003	2.13218E-004	2.85108E-004	-4.86313E-003	3.16708E-004
	75	75	4.99661E-002	-7.23261E-003	0.00000E+000	-3.61385E-004	-7.06340E-002	3.66671E-002	3.35678E+001	11	...........	6.11794E-002	-4.21667E-003	5.76000E-001	6.17379E-001	-2.91114E-002	-3.89499E-002	6.64079E-001	-4.32879E-002	-4.42487E-004	3.04975E-005	-4.16598E-003	-4.46526E-003	2.10551E-004	2.81709E-004	-4.80302E-003	3.13085E-004
	76	76	4.99660E-002	-7.13046E-003	0.00000E+000	-3.56281E-004	-6.96133E-002	3.66200E-002	3.35036E+001	11	...........	6.11001E-002	-4.25750E-003	5.75818E-001	6.17349E-001	-2.91178E-002	-3.89769E-002	6.64281E-001	-4.32660E-002	-4.35672E-004	3.03579E-005	-4.10585E-003	-4.40198E-003	2.07623E-004	2.77924E-004	-4.73663E-003	3.08506E-004
	77	77	4.99672E-002	-7.05801E-003	0.00000E+000	-3.52669E-004	-6.88980E-002	3.66453E-002	3.35675E+001	11	...........	6.11542E-002	-4.27778E-003	5.75738E-001	6.17383E-001	-2.91474E-002	-3.89590E-002	6.64208E-001	-4.34153E-002	-4.31627E-004	3.01926E-005	-4.06357E-003	-4.35750E-003	2.05722E-004	2.74973E-004	-4.68799E-003	3.06426E-004
	78	78	4.99666E-002	-7.00770E-003	0.00000E+000	-3.50151E-004	-6.83947E-002	3.66801E-002	3.32170E+001	11	...........	6.11947E-002	-4.32042E-003	5.75748E-001	6.17419E-001	-2.91304E-002	-3.89497E-002	6.64248E-001	-4.34610E-002	-4.28834E-004	3.02762E-005	-4.03467E-003	-4.32668E-003	2.04137E-004	2.72948E-004	-4.65485E-003	3.04561E-004
	79	79	4.99663E-002	-6.92852E-003	0.00000E+000	-3.46193E-004	-6.76020E-002	3.67275E-002	3.38579E+001	11	...........	6.12854E-002	-4.27431E-003	5.75723E-001	6.17416E-001	-2.91575E-002	-3.89517E-002	6.64230E-001	-4.35232E-002	-4.24617E-004	2.96146E-005	-3.98891E-003	-4.27778E-003	2.02018E-004	2.69877E-004	-4.60213E-003	3.01551E-004
	80	80	4.99668E-002	-6.87381E-003	0.00000E+000	-3.43462E-004	-6.70593E-002	3.67122E-002	3.40018E+001	11	...........	6.12632E-002	-4.32667E-003	5.75713E-001	6.17439E-001	-2.91483E-002	-3.89532E-002	6.64158E-001	-4.34222E-002	-4.21111E-004	2.97407E-005	-3.95734E-003	-4.24416E-003	2.00360E-004	2.67757E-004	-4.56529E-003	2.98476E-004
	81	81	4.99658E-002	-6.79047E-003	0.00000E+000	-3.39292E-004	-6.62307E-002	3.63737E-002	3.35553E+001	11	...........	6.12132E-002	-4.39236E-003	5.75613E-001	6.17451E-001	-2.91487E-002	-3.89486E-002	6.64172E-001	-4.35378E-002	-4.15667E-004	2.98262E-005	-3.90868E-003	-4.19278E-003	1.97934E-004	2.64480E-004	-4.51005E-003	2.95642E-004
	82	82	4.99672E-002	-6.69850E-003	0.00000E+000	-3.34705E-004	-6.53140E-002	3.67252E-002	3.31468E+001	11	...........	6.12746E-002	-4.40292E-003	5.75385E-001	6.17439E-001	-2.91403E-002	-3.89531E-002	6.64313E-001	-4.35135E-002	-4.10448E-004	2.94929E-005	-3.85422E-003	-4.13591E-003	1.95196E-004	2.60927E-004	-4.44990E-003	2.91475E-004
	83	83	4.99668E-002	-6.62594E-003	0.00000E+000	-3.31077E-004	-6.45860E-002	3.66587E-002	3.37430E+001	11	...........	6.11622E-002	-4.46361E-003	5.75254E-001	6.17331E-001	-2.91382E-002	-3.89514E-002	6.64254E-001	-4.33344E-002	-4.05257E-004	2.95756E-005	-3.81160E-003	-4.09039E-003	1.93068E-004	2.58089E-004	-4.40131E-003	2.87131E-004
	84	84	4.99659E-002	-6.58675E-003	0.00000E+000	-3.29113E-004	-6.41920E-002	3.67420E-002	3.42133E+001	11	...........	6.13275E-002	-4.45181E-003	5.75302E-001	6.17350E-001	-2.91346E-002	-3.89533E-002	6.64172E-001	-4.33675E-002	-4.03949E-004	2.93229E-005	-3.78937E-003	-4.06633E-003	1.91902E-004	2.56576E-004	-4.37474E-003	2.85651E-004
	85	85	4.99656E-002	-6.50355E-003	0.00000E+000	-3.24953E-004	-6.33753E-002	3.67673E-002	3.36430E+001	11	...........	6.13599E-002	-4.47236E-003	5.75385E-001	6.17419E-001	-2.91210E-002	-3.89486E-002	6.64226E-001	-4.32615E-002	-3.99057E-004	2.90862E-005	-3.74204E-003	-4.01542E-003	1.89390E-004	2.53304E-004	-4.31982E-003	2.81353E-004
	86	86	4.99677E-002	-6.39772E-003	0.00000E+000	-3.19680E-004	-6.23507E-002	3.67098E-002	3.29407E+001	11	...........	6.12367E-002	-4.54139E-003	5.75349E-001	6.17510E-001	-2.91306E-002	-3.89349E-002	6.64229E-001	-4.32597E-002	-3.91775E-004	2.90545E-005	-3.68092E-003	-3.95066E-003	1.86369E-004	2.49094E-004	-4.24955E-003	2.76764E-004
	87	87	4.99669E-002	-6.33440E-003	0.00000E+000	-3.16510E-004	-6.17173E-002	3.66827E-002	3.39494E+001	11	...........	6.11961E-002	-4.41875E-003	5.75232E-001	6.17462E-001	-2.91533E-002	-3.89315E-002	6.64212E-001	-4.33324E-002	-3.87640E-004	2.79901E-005	-3.64375E-003	-3.91125E-003	1.84669E-004	2.46608E-004	-4.20739E-003	2.74484E-004
	88	88	4.99668E-002	-6.33365E-003	0.00000E+000	-3.16472E-004	-6.17073E-002	3.68014E-002	3.37103E+001	11	...........	6.14001E-002	-4.45042E-003	5.75253E-001	6.17287E-001	-2.91390E-002	-3.89199E-002	6.64230E-001	-4.32553E-002	-3.88887E-004	2.81874E-005	-3.64345E-003	-3.90968E-003	1.84556E-004	2.46505E-004	-4.20700E-003	2.73964E-004
	89	89	4.99656E-002	-6.20901E-003	0.00000E+000	-3.10237E-004	-6.04633E-002	3.66825E-002	3.38318E+001	11	...........	6.12165E-002	-4.44889E-003	5.75317E-001	6.17147E-001	-2.91382E-002	-3.89231E-002	6.64198E-001	-4.32776E-002	-3.80094E-004	2.76232E-005	-3.57215E-003	-3.83187E-003	1.80919E-004	2.41674E-004	-4.12402E-003	2.68711E-004
	90	90	4.99657E-002	-6.13237E-003	0.00000E+000	-3.06408E-004	-5.96980E-002	3.67645E-002	3.30301E+001	11	...........	6.13443E-002	-4.43750E-003	5.75300E-001	6.17160E-001	-2.91156E-002	-3.89211E-002	6.64210E-001	-4.33571E-002	-3.76186E-004	2.72124E-005	-3.52795E-003	-3.78466E-003	1.78547E-004	2.38679E-004	-4.07318E-003	2.65882E-004
	91	91	4.99684E-002	-6.10058E-003	0.00000E+000	-3.04836E-004	-5.93867E-002	3.68015E-002	3.40152E+001	11	...........	6.13908E-002	-4.33722E-003	5.75406E-001	6.17258E-001	-2.90918E-002	-3.89833E-002	6.64230E-001	-4.33829E-002	-3.74519E-004	2.64596E-005	-3.51031E-003	-3.76563E-003	1.77477E-004	2.37821E-004	-4.05219E-003	2.64661E-004
	92	92	4.99669E-002	-6.06502E-003	0.00000E+000	-3.03050E-004	-5.90333E-002	3.67300E-002	3.41075E+001	11	...........	6.12904E-002	-4.38764E-003	5.75440E-001	6.17358E-001	-2.90728E-002	-3.89914E-002	6.64272E-001	-4.34829E-002	-3.71727E-004	2.66111E-005	-3.49006E-003	-3.74429E-003	1.76327E-004	2.36483E-004	-4.02882E-003	2.63725E-004
	93	93	4.99663E-002	-5.98066E-003	0.00000E+000	-2.98831E-004	-5.81900E-002	3.67049E-002	3.39257E+001	11	...........	6.12482E-002	-4.44861E-003	5.75532E-001	6.17484E-001	-2.90858E-002	-3.89882E-002	6.64203E-001	-4.35160E-002	-3.66305E-004	2.66056E-005	-3.44206E-003	-3.69296E-003	1.73952E-004	2.33175E-004	-3.97237E-003	2.60254E-004
	94	94	4.99660E-002	-5.91406E-003	0.00000E+000	-2.95501E-004	-5.75233E-002	3.68068E-002	3.35505E+001	11	...........	6.14092E-002	-4.50375E-003	5.75543E-001	6.17578E-001	-2.90439E-002	-3.90217E-002	6.64314E-001	-4.34800E-002	-3.63177E-004	2.66354E-005	-3.40379E-003	-3.65239E-003	1.71767E-004	2.30776E-004	-3.92879E-003	2.57143E-004
	95	95	4.99663E-002	-5.81140E-003	0.00000E+000	-2.90374E-004	-5.65020E-002	3.67297E-002	3.23860E+001	11	...........	6.12919E-002	-4.44778E-003	5.75477E-001	6.17571E-001	-2.90435E-002	-3.90378E-002	6.64241E-001	-4.33107E-002	-3.56192E-004	2.58478E-005	-3.34433E-003	-3.58895E-003	1.68783E-004	2.26864E-004	-3.86017E-003	2.51696E-004
	96	96	4.99677E-002	-5.78536E-003	0.00000E+000	-2.89081E-004	-5.62460E-002	3.67646E-002	3.33336E+001	11	...........	6.13268E-002	-4.43431E-003	5.75406E-001	6.17826E-001	-2.90247E-002	-3.90300E-002	6.64195E-001	-4.32482E-002	-3.54797E-004	2.56540E-005	-3.32893E-003	-3.57434E-003	1.67918E-004	2.25802E-004	-3.84260E-003	2.50206E-004
	97	97	4.99674E-002	-5.76018E-003	0.00000E+000	-2.87821E-004	-5.59967E-002	3.68429E-002	3.41110E+001	11	...........	6.14615E-002	-4.47458E-003	5.75522E-001	6.17970E-001	-2.90067E-002	-3.90354E-002	6.64269E-001	-4.33789E-002	-3.54029E-004	2.57744E-005	-3.31511E-003	-3.55962E-003	1.67084E-004	2.24851E-004	-3.82631E-003	2.49870E-004
	98	98	4.99659E-002	-5.68921E-003	0.00000E+000	-2.84266E-004	-5.52887E-002	3.68116E-002	3.33670E+001	11	...........	6.14336E-002	-4.46889E-003	5.75660E-001	6.18064E-001	-2.90232E-002	-3.90426E-002	6.64252E-001	-4.33990E-002	-3.49509E-004	2.54244E-005	-3.27505E-003	-3.51630E-003	1.65119E-004	2.22122E-004	-3.77907E-003	2.46906E-004
	99	99	4.99662E-002	-5.60997E-003	0.00000E+000	-2.80309E-004	-5.45000E-002	3.68556E-002	3.31075E+001	11	...........	6.15089E-002	-4.41514E-003	5.75574E-001	6.18064E-001	-2.90296E-002	-3.90104E-002	6.64171E-001	-4.33783E-002	-3.45063E-004	2.47688E-005	-3.22895E-003	-3.46732E-003	1.62855E-004	2.18847E-004	-3.72598E-003	2.43351E-004
	100	100	4.99682E-002	-5.57424E-003	0.00000E+000	-2.78535E-004	-5.41433E-002	3.67982E-002	3.39714E+001	11	...........	6.13969E-002	-4.35000E-003	5.75662E-001	6.17954E-001	-2.90429E-002	-3.89903E-002	6.64289E-001	-4.33746E-002	-3.42241E-004	2.42479E-005	-3.20888E-003	-3.44462E-003	1.61892E-004	2.17341E-004	-3.70291E-003	2.41780E-004
	101	101	4.99668E-002	-5.55631E-003	0.00000E+000	-2.77631E-004	-5.39620E-002	3.68237E-002	3.36958E+001	11	...........	6.14518E-002	-4.31931E-003	5.75925E-001	6.17827E-001	-2.90264E-002	-3.90154E-002	6.64344E-001	-4.32971E-002	-3.41445E-004	2.39994E-005	-3.20002E-003	-3.43284E-003	1.61280E-004	2.16782E-004	-3.69130E-003	2.40572E-004
	102	102	4.99667E-002	-5.48734E-003	0.00000E+000	-2.74184E-004	-5.32700E-002	3.67768E-002	3.35294E+001	11	...........	6.13611E-002	-4.44069E-003	5.75947E-001	6.17779E-001	-2.90186E-002	-3.90003E-002	6.64397E-001	-4.33025E-002	-3.36709E-004	2.43676E-005	-3.16041E-003	-3.38996E-003	1.59235E-004	2.14008E-004	-3.64577E-003	2.37615E-004
	103	103	4.99661E-002	-5.43554E-003	0.00000E+000	-2.71593E-004	-5.27560E-002	3.68434E-002	3.34696E+001	11	...........	6.14740E-002	-4.47194E-003	5.75762E-001	6.17709E-001	-2.90137E-002	-3.89850E-002	6.64258E-001	-4.33636E-002	-3.34145E-004	2.43074E-005	-3.12958E-003	-3.35758E-003	1.57705E-004	2.11905E-004	-3.61060E-003	2.35705E-004
	104	104	4.99677E-002	-5.38714E-003	0.00000E+000	-2.69183E-004	-5.22773E-002	3.68889E-002	3.38220E+001	11	...........	6.15435E-002	-4.42583E-003	5.75675E-001	6.17907E-001	-2.90082E-002	-3.89472E-002	6.64401E-001	-4.33239E-002	-3.31543E-004	2.38426E-005	-3.10124E-003	-3.32875E-003	1.56271E-004	2.09814E-004	-3.57922E-003	2.33392E-004
	105	105	4.99661E-002	-5.33666E-003	0.00000E+000	-2.66652E-004	-5.17747E-002	3.68251E-002	3.36639E+001	11	...........	6.14514E-002	-4.32792E-003	5.75668E-001	6.17921E-001	-2.90090E-002	-3.89325E-002	6.64265E-001	-4.33422E-002	-3.27945E-004	2.30966E-005	-3.07214E-003	-3.29764E-003	1.54811E-004	2.07770E-004	-3.54496E-003	2.31303E-004
	106	106	4.99675E-002	-5.29376E-003	0.00000E+000	-2.64516E-004	-5.13500E-002	3.68160E-002	3.35931E+001	11	...........	6.14414E-002	-4.21069E-003	5.75660E-001	6.17882E-001	-2.90278E-002	-3.89382E-002	6.64266E-001	-4.34603E-002	-3.25256E-004	2.22904E-005	-3.04740E-003	-3.27092E-003	1.53666E-004	2.06129E-004	-3.51647E-003	2.30068E-004
	107	107	4.99665E-002	-5.22228E-003	0.00000E+000	-2.60939E-004	-5.06560E-002	3.68037E-002	3.35980E+001	11	...........	6.14057E-002	-4.31181E-003	5.75833E-001	6.18000E-001	-2.90417E-002	-3.89168E-002	6.64433E-001	-4.32969E-002	-3.20678E-004	2.25175E-005	-3.00716E-003	-3.22737E-003	1.51664E-004	2.03234E-004	-3.46985E-003	2.26109E-004
	108	108	4.99669E-002	-5.17766E-003	0.00000E+000	-2.58712E-004	-5.02107E-002	3.68397E-002	3.36019E+001	11	...........	6.14739E-002	-4.28653E-003	5.75660E-001	6.17927E-001	-2.90381E-002	-3.89254E-002	6.64429E-001	-4.34079E-002	-3.18291E-004	2.21942E-005	-2.98057E-003	-3.19942E-003	1.50349E-004	2.01543E-004	-3.44019E-003	2.24751E-004
	109	109	4.99671E-002	-5.15733E-003	0.00000E+000	-2.57697E-004	-5.00100E-002	3.68337E-002	3.37737E+001	11	...........	6.14815E-002	-4.29111E-003	5.75621E-001	6.17830E-001	-2.90332E-002	-3.89169E-002	6.64358E-001	-4.34560E-002	-3.17080E-004	2.21307E-005	-2.96867E-003	-3.18635E-003	1.49734E-004	2.00707E-004	-3.42631E-003	2.24117E-004
	110	110	4.99666E-002	-5.08767E-003	0.00000E+000	-2.54213E-004	-4.93167E-002	3.68731E-002	3.35871E+001	11	...........	6.15175E-002	-4.23681E-003	5.75593E-001	6.17851E-001	-2.90350E-002	-3.89194E-002	6.64382E-001	-4.35899E-002	-3.12981E-004	2.15555E-005	-2.92843E-003	-3.14342E-003	1.47720E-004	1.98009E-004	-3.38016E-003	2.21771E-004
	111	110.268	4.99652E-002	-5.05058E-003	0.00000E+000	-2.52353E-004	-4.89491E-002	3.68913E-002	3.26222E+001	11	...........	6.15367E-002	-4.20704E-003	5.75743E-001	6.17925E-001	-2.89995E-002	-3.89363E-002	6.64358E-001	-4.33789E-002	-3.10796E-004	2.12480E-005	-2.90784E-003	-3.12088E-003	1.46464E-004	1.96651E-004	-3.35539E-003	2.19089E-004
STARTTIMEOFFSET	QUANT	803099.8	Start Time Offset (s)
