EXPLAIN
TAG	PWR800_DISCHARGE
TITLE	LABEL	PWR Discharge	Test Identifier
DATE	LABEL	10/14/2022	Date
TIME	LABEL	18:33:12	Time
NOTES	NOTES	1	Notes...
	
PSTAT	PSTAT	REF3000-21114	Potentiostat
CAPACITY	QUANT	5.30000E-002	Capacity (A-hr)
CELLTYPE	SELECTOR	1	Cell Type
WORKINGCONNECTION	SELECTOR	0	Working Connection
MAXDISCHARGETIME	VARIABLEANDUNITS	7.20000E+003	s	2.00000E+000	hour(s)	Max Discharge Time
DISCHARGEMODE	MULTIPARAM	0	1.00000E-001	Discharge Mode	Constant Current	Amp(s)
VOLTAGEFINISH	TWOPARAM	T	5.00000E-003	7.20000E+003	Voltage Finish	I (A) <	Max Time(s)
SAMPLETIME	QUANT	1.00000E+000	Sample Period (s)
DISCHARGESTOPAT1	MULTIPARAM	1	5.00000E-002	Stop At 1	|Voltage| < Limit	V
DISCHARGESTOPAT2	MULTIPARAM	0	0.00000E+000	Stop At 2	None	N/A
AESELECTOR	AESELECTOR	0x1	T	Set Limits	AE Channels
AESBHCSELECTOR	TOGGLE	F	Save Both Half Cells
IRCOMP	TOGGLE	F	IR Measure
EOC	QUANT	0.5729334	Open Circuit (V)
SEQUENCER	TOGGLE	TRUE	Run as Sequence
PSTATMODEL	IQUANT	5	Pstat Model
PSTATSECTION	LABEL	REF3000-21114	Pstat Section
PSTATSERIALNO	LABEL	21114	Pstat Serial Number
CTRLMODE	IQUANT	0	Control Mode
ELECTROMETER	IQUANT	0	RE=0 or CS=1
IESTAB	IQUANT	0	I/E Stability
CASPEED	IQUANT	4	Control Amp Speed
CONVENTION	IQUANT	1	Current Convention
ICHRANGE	IQUANT	2	Ich Range
ICHRANGEMODE	TOGGLE	T	Ich Auto Range
ICHOFFSETENABLE	TOGGLE	F	Ich Offset Enable
ICHOFFSET	QUANT	0	Ich Offset (V)
ICHFILTER	IQUANT	1	Ich Filter
VCHRANGE	IQUANT	3	Vch Range
VCHRANGEMODE	TOGGLE	T	Vch Auto Range
VCHOFFSETENABLE	TOGGLE	F	Vch Offset Enable
VCHOFFSET	QUANT	0	Vch Offset (V)
VCHFILTER	IQUANT	1	Vch Filter
ACHRANGE	IQUANT	2	Ach Range
ACHOFFSETENABLE	TOGGLE	F	Ach Offset Enable
ACHOFFSET	QUANT	0	Ach Offset (V)
ACHFILTER	IQUANT	1	Ach Filter
IERANGELOWERLIMIT	IQUANT	9	I/E Range Lower Limit
IERANGEMODE	TOGGLE	F	I/E AutoRange
IERANGE	IQUANT	9	I/E Range
POSFEEDENABLE	TOGGLE	F	Positive Feedback IR Comp
POSFEEDRESISTANCE	QUANT	0	Positive Feedback Resistance (ohm)
ACHSELECT	IQUANT	1	Ach Select
SENSECABLEID	IQUANT	13	Sense Cable ID
PWRCABLEID	IQUANT	13	Power Cable ID
DCCALDATE	LABEL		DC Calibration Date
ACCALDATE	LABEL		AC Calibration Date
THERMOSELECT	IQUANT	1	Thermo Select
FRAMEWORKVERSION	LABEL	7.8.6	Framework Version
INSTRUMENTVERSION	LABEL	4.50	Instrument Version
COMPLIANCEVOLTAGE	IQUANT	0	Compliance Voltage
CURVE	TABLE	237
	Pt	T	Vf	Im	Vu	Pwr	Sig	Ach	Temp	IERange	Over	Vf1	Vf2	Vf3	Vf4	Vf5	Vf6	Vf7	Vf8	Pwr1	Pwr2	Pwr3	Pwr4	Pwr5	Pwr6	Pwr7	Pwr8
	#	s	V	A	V	W	V	V	deg C	#	bits	V	V	V	V	V	V	V	V	W	W	W	W	W	W	W	W
	0	1	3.48079E-001	-1.00096E-001	0.00000E+000	-3.48414E-002	-9.94000E-001	3.66328E-002	3.13190E+001	11	...........	6.06500E-002	-5.25625E-003	6.09961E-001	5.28618E-001	-2.57904E-002	-3.70492E-002	7.07490E-001	-4.38221E-002	-6.07085E-003	5.26132E-004	-6.10549E-002	-5.29128E-002	2.58153E-003	3.70849E-003	-7.08172E-002	4.38643E-003
	1	2	2.60401E-001	-1.00097E-001	0.00000E+000	-2.60653E-002	-9.94000E-001	3.64774E-002	3.02646E+001	11	...........	6.03939E-002	-5.32208E-003	6.09970E-001	5.28464E-001	-2.57921E-002	-3.70379E-002	7.07550E-001	-4.37304E-002	-6.04523E-003	5.32723E-004	-6.10560E-002	-5.28975E-002	2.58170E-003	3.70737E-003	-7.08234E-002	4.37727E-003
	2	3	1.96454E-001	-1.00097E-001	0.00000E+000	-1.96644E-002	-9.94000E-001	3.65469E-002	3.02835E+001	11	...........	6.04874E-002	-5.31306E-003	6.09955E-001	5.28467E-001	-2.57960E-002	-3.70526E-002	7.07673E-001	-4.37393E-002	-6.05460E-003	5.31821E-004	-6.10547E-002	-5.28979E-002	2.58210E-003	3.70886E-003	-7.08359E-002	4.37817E-003
	3	4	1.44967E-001	-1.00097E-001	0.00000E+000	-1.45107E-002	-9.94000E-001	3.64906E-002	2.98215E+001	11	...........	6.04212E-002	-5.26806E-003	6.09770E-001	5.28572E-001	-2.58053E-002	-3.70358E-002	7.07720E-001	-4.37433E-002	-6.04798E-003	5.27316E-004	-6.10361E-002	-5.29084E-002	2.58303E-003	3.70717E-003	-7.08406E-002	4.37857E-003
	4	5	1.03128E-001	-1.00097E-001	0.00000E+000	-1.03228E-002	-9.94000E-001	3.64917E-002	2.91895E+001	11	...........	6.04396E-002	-5.25597E-003	6.09822E-001	5.28700E-001	-2.58258E-002	-3.70235E-002	7.07715E-001	-4.38406E-002	-6.04982E-003	5.26107E-004	-6.10414E-002	-5.29214E-002	2.58509E-003	3.70594E-003	-7.08402E-002	4.38831E-003
	5	6	6.89326E-002	-1.00097E-001	0.00000E+000	-6.89994E-003	-9.94000E-001	3.64287E-002	2.82352E+001	11	...........	6.03254E-002	-5.27542E-003	6.09817E-001	5.28761E-001	-2.57947E-002	-3.70104E-002	7.07781E-001	-4.35917E-002	-6.03839E-003	5.28054E-004	-6.10409E-002	-5.29274E-002	2.58197E-003	3.70463E-003	-7.08468E-002	4.36340E-003
	6	6.145	5.19024E-002	-1.00097E-001	0.00000E+000	-5.19529E-003	-9.94000E-001	3.63621E-002	2.83114E+001	11	...........	6.02193E-002	-5.23946E-003	6.09891E-001	5.28741E-001	-2.58190E-002	-3.70297E-002	7.07782E-001	-4.35450E-002	-6.02779E-003	5.24456E-004	-6.10484E-002	-5.29256E-002	2.58441E-003	3.70657E-003	-7.08470E-002	4.35874E-003
	7	7	4.98133E-002	-9.26640E-002	0.00000E+000	-4.61590E-003	-9.20076E-001	3.65865E-002	2.86400E+001	11	...........	6.06230E-002	-5.26202E-003	6.09942E-001	5.28691E-001	-2.57830E-002	-3.70341E-002	7.07712E-001	-4.36832E-002	-5.61757E-003	4.87600E-004	-5.65197E-002	-4.89906E-002	2.38915E-003	3.43173E-003	-6.55794E-002	4.04786E-003
	8	8	4.98955E-002	-8.32893E-002	0.00000E+000	-4.15576E-003	-8.26871E-001	3.67526E-002	2.96038E+001	11	...........	6.08604E-002	-5.27639E-003	6.10036E-001	5.28635E-001	-2.57883E-002	-3.70426E-002	7.07640E-001	-4.36874E-002	-5.06902E-003	4.39467E-004	-5.08094E-002	-4.40296E-002	2.14789E-003	3.08525E-003	-5.89388E-002	3.63869E-003
	9	9	4.99225E-002	-7.68175E-002	0.00000E+000	-3.83492E-003	-7.62524E-001	3.68265E-002	2.98970E+001	11	...........	6.09889E-002	-5.27014E-003	6.10059E-001	5.28625E-001	-2.58082E-002	-3.70410E-002	7.07701E-001	-4.37824E-002	-4.68501E-003	4.04839E-004	-4.68632E-002	-4.06076E-002	1.98252E-003	2.84539E-003	-5.43638E-002	3.36325E-003
	10	10	4.99396E-002	-7.19987E-002	0.00000E+000	-3.59559E-003	-7.14613E-001	3.68540E-002	2.94097E+001	11	...........	6.10561E-002	-5.24778E-003	6.10123E-001	5.28643E-001	-2.57979E-002	-3.70165E-002	7.07635E-001	-4.37879E-002	-4.39596E-003	3.77833E-004	-4.39281E-002	-3.80616E-002	1.85742E-003	2.66514E-003	-5.09488E-002	3.15267E-003
	11	11	4.99771E-002	-6.95113E-002	0.00000E+000	-3.47397E-003	-6.89896E-001	3.69298E-002	3.01058E+001	11	...........	6.12811E-002	-5.21875E-003	6.10205E-001	5.28814E-001	-2.58031E-002	-3.70101E-002	7.07530E-001	-4.38083E-002	-4.25973E-003	3.62762E-004	-4.24161E-002	-3.67585E-002	1.79360E-003	2.57262E-003	-4.91813E-002	3.04517E-003
	12	12	4.99725E-002	-6.77499E-002	0.00000E+000	-3.38564E-003	-6.72383E-001	3.70409E-002	3.07004E+001	11	...........	6.13412E-002	-5.32403E-003	6.10445E-001	5.28782E-001	-2.58371E-002	-3.69993E-002	7.07652E-001	-4.38192E-002	-4.15586E-003	3.60702E-004	-4.13576E-002	-3.58249E-002	1.75046E-003	2.50670E-003	-4.79434E-002	2.96874E-003
	13	13	4.99685E-002	-6.61143E-002	0.00000E+000	-3.30363E-003	-6.56108E-001	3.71158E-002	3.06815E+001	11	...........	6.14701E-002	-5.35167E-003	6.10605E-001	5.28723E-001	-2.58164E-002	-3.70192E-002	7.07596E-001	-4.38708E-002	-4.06405E-003	3.53822E-004	-4.03697E-002	-3.49561E-002	1.70683E-003	2.44750E-003	-4.67822E-002	2.90049E-003
	14	14	4.99761E-002	-6.42263E-002	0.00000E+000	-3.20978E-003	-6.37337E-001	3.71674E-002	3.04821E+001	11	...........	6.15343E-002	-5.41500E-003	6.10557E-001	5.28688E-001	-2.58232E-002	-3.70628E-002	7.07562E-001	-4.37942E-002	-3.95212E-003	3.47786E-004	-3.92138E-002	-3.39557E-002	1.65853E-003	2.38041E-003	-4.54441E-002	2.81274E-003
	15	15	4.99729E-002	-6.32793E-002	0.00000E+000	-3.16225E-003	-6.27920E-001	3.73025E-002	3.09432E+001	11	...........	6.17824E-002	-5.38292E-003	6.10613E-001	5.28439E-001	-2.58051E-002	-3.70296E-002	7.07577E-001	-4.37522E-002	-3.90954E-003	3.40627E-004	-3.86392E-002	-3.34393E-002	1.63293E-003	2.34321E-003	-4.47750E-002	2.76861E-003
	16	16	4.99569E-002	-6.16382E-002	0.00000E+000	-3.07925E-003	-6.11611E-001	3.72960E-002	3.01068E+001	11	...........	6.17628E-002	-5.34125E-003	6.10828E-001	5.28352E-001	-2.57871E-002	-3.70422E-002	7.07530E-001	-4.37847E-002	-3.80694E-003	3.29225E-004	-3.76503E-002	-3.25667E-002	1.58947E-003	2.28321E-003	-4.36108E-002	2.69881E-003
	17	17	5.00101E-002	-6.04467E-002	0.00000E+000	-3.02295E-003	-5.99758E-001	3.73382E-002	3.05371E+001	11	...........	6.18279E-002	-5.28444E-003	6.10855E-001	5.28234E-001	-2.57971E-002	-3.70333E-002	7.07627E-001	-4.36572E-002	-3.73729E-003	3.19427E-004	-3.69242E-002	-3.19300E-002	1.55935E-003	2.23854E-003	-4.27737E-002	2.63894E-003
	18	18	4.99791E-002	-6.03829E-002	0.00000E+000	-3.01788E-003	-5.99129E-001	3.74563E-002	3.12882E+001	11	...........	6.20426E-002	-5.39264E-003	6.10833E-001	5.28126E-001	-2.57681E-002	-3.70293E-002	7.07693E-001	-4.36110E-002	-3.74632E-003	3.25623E-004	-3.68839E-002	-3.18898E-002	1.55595E-003	2.23594E-003	-4.27326E-002	2.63336E-003
	19	19	4.99829E-002	-5.96582E-002	0.00000E+000	-2.98189E-003	-5.91925E-001	3.75402E-002	3.14148E+001	11	...........	6.21739E-002	-5.37556E-003	6.10870E-001	5.27968E-001	-2.57461E-002	-3.70400E-002	7.07816E-001	-4.37393E-002	-3.70918E-003	3.20696E-004	-3.64434E-002	-3.14976E-002	1.53597E-003	2.20974E-003	-4.22270E-002	2.60941E-003
	20	20	4.99838E-002	-5.87047E-002	0.00000E+000	-2.93429E-003	-5.82441E-001	3.74742E-002	3.09334E+001	11	...........	6.22651E-002	-5.34472E-003	6.11105E-001	5.27763E-001	-2.57506E-002	-3.70450E-002	7.07754E-001	-4.38357E-002	-3.65526E-003	3.13761E-004	-3.58748E-002	-3.09822E-002	1.51168E-003	2.17472E-003	-4.15485E-002	2.57336E-003
	21	21	4.99678E-002	-5.71797E-002	0.00000E+000	-2.85714E-003	-5.67266E-001	3.72837E-002	3.04804E+001	11	...........	6.20960E-002	-5.25917E-003	6.10976E-001	5.27914E-001	-2.57574E-002	-3.70379E-002	7.07704E-001	-4.38239E-002	-3.55063E-003	3.00718E-004	-3.49354E-002	-3.01860E-002	1.47280E-003	2.11782E-003	-4.04663E-002	2.50584E-003
	22	22	5.00041E-002	-5.75593E-002	0.00000E+000	-2.87820E-003	-5.71048E-001	3.75677E-002	3.15659E+001	11	...........	6.25653E-002	-5.27194E-003	6.10969E-001	5.27777E-001	-2.57240E-002	-3.70593E-002	7.07699E-001	-4.37651E-002	-3.60121E-003	3.03449E-004	-3.51669E-002	-3.03785E-002	1.48066E-003	2.13311E-003	-4.07346E-002	2.51909E-003
	23	23	4.99808E-002	-5.70311E-002	0.00000E+000	-2.85046E-003	-5.65795E-001	3.75578E-002	3.16320E+001	11	...........	6.25428E-002	-5.26375E-003	6.10842E-001	5.27615E-001	-2.57219E-002	-3.70350E-002	7.07711E-001	-4.37699E-002	-3.56688E-003	3.00198E-004	-3.48370E-002	-3.00905E-002	1.46695E-003	2.11215E-003	-4.03615E-002	2.49624E-003
	24	24	4.99663E-002	-5.60181E-002	0.00000E+000	-2.79902E-003	-5.55716E-001	3.75601E-002	3.11621E+001	11	...........	6.25667E-002	-5.30319E-003	6.10780E-001	5.27572E-001	-2.57349E-002	-3.70487E-002	7.07602E-001	-4.37114E-002	-3.50487E-003	2.97075E-004	-3.42148E-002	-2.95536E-002	1.44162E-003	2.07540E-003	-3.96386E-002	2.44863E-003
	25	25	4.99993E-002	-5.49849E-002	0.00000E+000	-2.74921E-003	-5.45441E-001	3.76052E-002	3.12726E+001	11	...........	6.26365E-002	-5.30472E-003	6.10708E-001	5.27465E-001	-2.57244E-002	-3.70508E-002	7.07594E-001	-4.38413E-002	-3.44406E-003	2.91680E-004	-3.35797E-002	-2.90026E-002	1.41446E-003	2.03724E-003	-3.89070E-002	2.41061E-003
	26	26	4.99861E-002	-5.46431E-002	0.00000E+000	-2.73140E-003	-5.42043E-001	3.75840E-002	3.12859E+001	11	...........	6.26000E-002	-5.43458E-003	6.10734E-001	5.27566E-001	-2.57250E-002	-3.70515E-002	7.07682E-001	-4.38294E-002	-3.42066E-003	2.96962E-004	-3.33724E-002	-2.88278E-002	1.40569E-003	2.02461E-003	-3.86699E-002	2.39498E-003
	27	27	4.99877E-002	-5.44052E-002	0.00000E+000	-2.71959E-003	-5.39672E-001	3.77698E-002	3.18729E+001	11	...........	6.29128E-002	-5.45111E-003	6.10754E-001	5.27545E-001	-2.57356E-002	-3.70718E-002	7.07744E-001	-4.38058E-002	-3.42278E-003	2.96568E-004	-3.32282E-002	-2.87011E-002	1.40015E-003	2.01690E-003	-3.85049E-002	2.38326E-003
	28	28	4.99826E-002	-5.36778E-002	0.00000E+000	-2.68296E-003	-5.32445E-001	3.77606E-002	3.16159E+001	11	...........	6.29054E-002	-5.41542E-003	6.10667E-001	5.27446E-001	-2.57569E-002	-3.70329E-002	7.07591E-001	-4.37632E-002	-3.37662E-003	2.90688E-004	-3.27793E-002	-2.83121E-002	1.38258E-003	1.98785E-003	-3.79820E-002	2.34911E-003
	29	29	4.99820E-002	-5.25069E-002	0.00000E+000	-2.62440E-003	-5.20798E-001	3.76799E-002	3.12158E+001	11	...........	6.27646E-002	-5.27417E-003	6.10692E-001	5.27420E-001	-2.57704E-002	-3.70169E-002	7.07581E-001	-4.38339E-002	-3.29557E-003	2.76930E-004	-3.20655E-002	-2.76932E-002	1.35312E-003	1.94364E-003	-3.71529E-002	2.30158E-003
	30	30	4.99940E-002	-5.24639E-002	0.00000E+000	-2.62288E-003	-5.20368E-001	3.79102E-002	3.20659E+001	11	...........	6.31411E-002	-5.30750E-003	6.10696E-001	5.27395E-001	-2.57696E-002	-3.70085E-002	7.07490E-001	-4.38543E-002	-3.31263E-003	2.78452E-004	-3.20395E-002	-2.76692E-002	1.35197E-003	1.94161E-003	-3.71177E-002	2.30077E-003
	31	31	4.99837E-002	-5.22566E-002	0.00000E+000	-2.61198E-003	-5.18304E-001	3.79302E-002	3.22015E+001	11	...........	6.31817E-002	-5.33542E-003	6.10672E-001	5.27359E-001	-2.57512E-002	-3.69910E-002	7.07537E-001	-4.38278E-002	-3.30166E-003	2.78811E-004	-3.19117E-002	-2.75580E-002	1.34567E-003	1.93302E-003	-3.69735E-002	2.29029E-003
	32	32	4.99735E-002	-5.11765E-002	0.00000E+000	-2.55747E-003	-5.07581E-001	3.78709E-002	3.08885E+001	11	...........	6.30887E-002	-5.37236E-003	6.10752E-001	5.27401E-001	-2.57428E-002	-3.70074E-002	7.07476E-001	-4.37887E-002	-3.22866E-003	2.74939E-004	-3.12561E-002	-2.69905E-002	1.31742E-003	1.89391E-003	-3.62061E-002	2.24095E-003
	33	33	4.99945E-002	-5.06553E-002	0.00000E+000	-2.53248E-003	-5.02410E-001	3.80401E-002	3.19653E+001	11	...........	6.33683E-002	-5.41806E-003	6.10807E-001	5.27347E-001	-2.57237E-002	-3.70012E-002	7.07575E-001	-4.37411E-002	-3.20994E-003	2.74453E-004	-3.09406E-002	-2.67129E-002	1.30304E-003	1.87431E-003	-3.58424E-002	2.21572E-003
	34	34	4.99834E-002	-5.02811E-002	0.00000E+000	-2.51322E-003	-4.98687E-001	3.79313E-002	3.18653E+001	11	...........	6.31887E-002	-5.31750E-003	6.10781E-001	5.27358E-001	-2.57412E-002	-3.69903E-002	7.07526E-001	-4.37986E-002	-3.17720E-003	2.67370E-004	-3.07107E-002	-2.65162E-002	1.29430E-003	1.85991E-003	-3.55752E-002	2.20224E-003
	35	35	4.99717E-002	-4.96857E-002	0.00000E+000	-2.48287E-003	-4.92775E-001	3.80446E-002	3.15229E+001	11	...........	6.33843E-002	-5.28417E-003	6.10611E-001	5.27376E-001	-2.57478E-002	-3.69867E-002	7.07551E-001	-4.37476E-002	-3.14929E-003	2.62547E-004	-3.03386E-002	-2.62030E-002	1.27930E-003	1.83771E-003	-3.51552E-002	2.17363E-003
	36	36	5.00047E-002	-4.91033E-002	0.00000E+000	-2.45540E-003	-4.86981E-001	3.81082E-002	3.21353E+001	11	...........	6.34807E-002	-5.29319E-003	6.10454E-001	5.27527E-001	-2.57621E-002	-3.70208E-002	7.07641E-001	-4.38143E-002	-3.11711E-003	2.59913E-004	-2.99753E-002	-2.59033E-002	1.26500E-003	1.81785E-003	-3.47475E-002	2.15143E-003
	37	37	4.99868E-002	-4.88136E-002	0.00000E+000	-2.44004E-003	-4.84099E-001	3.81079E-002	3.22820E+001	11	...........	6.34749E-002	-5.28972E-003	6.10358E-001	5.27571E-001	-2.57539E-002	-3.70367E-002	7.07781E-001	-4.37881E-002	-3.09844E-003	2.58210E-004	-2.97938E-002	-2.57527E-002	1.25714E-003	1.80789E-003	-3.45493E-002	2.13745E-003
	38	38	4.99832E-002	-4.81734E-002	0.00000E+000	-2.40786E-003	-4.77725E-001	3.81557E-002	3.17603E+001	11	...........	6.35456E-002	-5.32667E-003	6.10357E-001	5.27395E-001	-2.57617E-002	-3.70189E-002	7.07743E-001	-4.38047E-002	-3.06121E-003	2.56604E-004	-2.94030E-002	-2.54064E-002	1.24103E-003	1.78333E-003	-3.40944E-002	2.11022E-003
	39	39	4.99864E-002	-4.72430E-002	0.00000E+000	-2.36151E-003	-4.68475E-001	3.81298E-002	3.18484E+001	11	...........	6.35067E-002	-5.46639E-003	6.10323E-001	5.27374E-001	-2.57764E-002	-3.69996E-002	7.07623E-001	-4.38474E-002	-3.00025E-003	2.58249E-004	-2.88335E-002	-2.49147E-002	1.21775E-003	1.74797E-003	-3.34302E-002	2.07148E-003
	40	40	4.99827E-002	-4.73068E-002	0.00000E+000	-2.36452E-003	-4.69113E-001	3.82997E-002	3.17789E+001	11	...........	6.37801E-002	-5.36153E-003	6.10466E-001	5.27341E-001	-2.57717E-002	-3.69883E-002	7.07644E-001	-4.38156E-002	-3.01723E-003	2.53637E-004	-2.88792E-002	-2.49468E-002	1.21917E-003	1.74980E-003	-3.34764E-002	2.07277E-003
	41	41	4.99940E-002	-4.63869E-002	0.00000E+000	-2.31907E-003	-4.59960E-001	3.82046E-002	3.19763E+001	11	...........	6.36482E-002	-5.35000E-003	6.10347E-001	5.27345E-001	-2.57542E-002	-3.70128E-002	7.07693E-001	-4.37928E-002	-2.95244E-003	2.48170E-004	-2.83121E-002	-2.44619E-002	1.19466E-003	1.71691E-003	-3.28277E-002	2.03141E-003
	42	42	4.99825E-002	-4.63355E-002	0.00000E+000	-2.31596E-003	-4.59453E-001	3.83874E-002	3.25152E+001	11	...........	6.39496E-002	-5.38472E-003	6.10509E-001	5.27349E-001	-2.57635E-002	-3.69932E-002	7.07688E-001	-4.38740E-002	-2.96313E-003	2.49504E-004	-2.82882E-002	-2.44350E-002	1.19376E-003	1.71410E-003	-3.27911E-002	2.03292E-003
	43	43	4.99853E-002	-4.57223E-002	0.00000E+000	-2.28544E-003	-4.53351E-001	3.83469E-002	3.17624E+001	11	...........	6.38875E-002	-5.41972E-003	6.10488E-001	5.27317E-001	-2.57557E-002	-3.69947E-002	7.07615E-001	-4.39194E-002	-2.92108E-003	2.47802E-004	-2.79129E-002	-2.41101E-002	1.17761E-003	1.69148E-003	-3.23538E-002	2.00810E-003
	44	44	4.99885E-002	-4.49163E-002	0.00000E+000	-2.24530E-003	-4.45338E-001	3.83791E-002	3.24484E+001	11	...........	6.39376E-002	-5.31903E-003	6.10476E-001	5.27425E-001	-2.57453E-002	-3.70014E-002	7.07631E-001	-4.38933E-002	-2.87184E-003	2.38911E-004	-2.74203E-002	-2.36900E-002	1.15638E-003	1.66197E-003	-3.17842E-002	1.97153E-003
	45	45	4.99897E-002	-4.49421E-002	0.00000E+000	-2.24664E-003	-4.45599E-001	3.84631E-002	3.23352E+001	11	...........	6.40654E-002	-5.34639E-003	6.10366E-001	5.27502E-001	-2.57428E-002	-3.70106E-002	7.07709E-001	-4.38611E-002	-2.87923E-003	2.40278E-004	-2.74311E-002	-2.37070E-002	1.15693E-003	1.66333E-003	-3.18059E-002	1.97121E-003
	46	46	4.99785E-002	-4.40238E-002	0.00000E+000	-2.20024E-003	-4.36466E-001	3.84442E-002	3.22023E+001	11	...........	6.40364E-002	-5.33264E-003	6.10368E-001	5.27604E-001	-2.57281E-002	-3.70047E-002	7.07740E-001	-4.38549E-002	-2.81912E-003	2.34763E-004	-2.68707E-002	-2.32271E-002	1.13265E-003	1.62909E-003	-3.11574E-002	1.93066E-003
	47	47	4.99901E-002	-4.36810E-002	0.00000E+000	-2.18362E-003	-4.33062E-001	3.85850E-002	3.24615E+001	11	...........	6.42636E-002	-5.33111E-003	6.10352E-001	5.27545E-001	-2.57106E-002	-3.70035E-002	7.07740E-001	-4.38690E-002	-2.80710E-003	2.32868E-004	-2.66608E-002	-2.30437E-002	1.12306E-003	1.61635E-003	-3.09148E-002	1.91624E-003
	48	48	4.99791E-002	-4.27970E-002	0.00000E+000	-2.13896E-003	-4.24267E-001	3.83988E-002	3.17444E+001	11	...........	6.39658E-002	-5.30875E-003	6.10383E-001	5.27460E-001	-2.56879E-002	-3.70212E-002	7.07786E-001	-4.39622E-002	-2.73755E-003	2.27199E-004	-2.61226E-002	-2.25737E-002	1.09937E-003	1.58440E-003	-3.02911E-002	1.88145E-003
	49	49	4.99953E-002	-4.27007E-002	0.00000E+000	-2.13484E-003	-4.23297E-001	3.86325E-002	3.26302E+001	11	...........	6.43582E-002	-5.22569E-003	6.10431E-001	5.27504E-001	-2.57032E-002	-3.70186E-002	7.07748E-001	-4.39503E-002	-2.74814E-003	2.23141E-004	-2.60658E-002	-2.25248E-002	1.09754E-003	1.58072E-003	-3.02213E-002	1.87671E-003
	50	50	4.99897E-002	-4.25175E-002	0.00000E+000	-2.12544E-003	-4.21479E-001	3.86318E-002	3.29595E+001	11	...........	6.43478E-002	-5.31389E-003	6.10466E-001	5.27475E-001	-2.57335E-002	-3.70278E-002	7.07633E-001	-4.38932E-002	-2.73591E-003	2.25933E-004	-2.59555E-002	-2.24269E-002	1.09412E-003	1.57433E-003	-3.00868E-002	1.86623E-003
	51	51	4.99868E-002	-4.20755E-002	0.00000E+000	-2.10322E-003	-4.17090E-001	3.86694E-002	3.25004E+001	11	...........	6.44254E-002	-5.23653E-003	6.10458E-001	5.27519E-001	-2.57500E-002	-3.70194E-002	7.07706E-001	-4.38504E-002	-2.71073E-003	2.20329E-004	-2.56853E-002	-2.21956E-002	1.08344E-003	1.55761E-003	-2.97771E-002	1.84503E-003
	52	52	4.99823E-002	-4.13389E-002	0.00000E+000	-2.06621E-003	-4.09782E-001	3.86926E-002	3.25504E+001	11	...........	6.44515E-002	-5.20431E-003	6.10384E-001	5.27536E-001	-2.57564E-002	-3.70118E-002	7.07684E-001	-4.37404E-002	-2.66436E-003	2.15140E-004	-2.52326E-002	-2.18078E-002	1.06474E-003	1.53003E-003	-2.92549E-002	1.80818E-003
	53	53	4.99820E-002	-4.04788E-002	0.00000E+000	-2.02321E-003	-4.01230E-001	3.85866E-002	3.20773E+001	11	...........	6.42549E-002	-5.22806E-003	6.10356E-001	5.27523E-001	-2.57557E-002	-3.69719E-002	7.07640E-001	-4.37901E-002	-2.60096E-003	2.11625E-004	-2.47065E-002	-2.13535E-002	1.04256E-003	1.49658E-003	-2.86444E-002	1.77257E-003
	54	54	4.99973E-002	-4.06720E-002	0.00000E+000	-2.03349E-003	-4.03163E-001	3.88044E-002	3.26744E+001	11	...........	6.46396E-002	-5.34667E-003	6.10466E-001	5.27688E-001	-2.57586E-002	-3.69514E-002	7.07696E-001	-4.38392E-002	-2.62902E-003	2.17460E-004	-2.48289E-002	-2.14622E-002	1.04766E-003	1.50289E-003	-2.87835E-002	1.78303E-003
	55	55	4.99859E-002	-4.01470E-002	0.00000E+000	-2.00678E-003	-3.97939E-001	3.87088E-002	3.29473E+001	11	...........	6.44885E-002	-5.24361E-003	6.10413E-001	5.27756E-001	-2.57624E-002	-3.69368E-002	7.07635E-001	-4.38935E-002	-2.58902E-003	2.10515E-004	-2.45062E-002	-2.11878E-002	1.03428E-003	1.48290E-003	-2.84094E-002	1.76219E-003
	56	56	4.99862E-002	-3.98757E-002	0.00000E+000	-1.99323E-003	-3.95242E-001	3.88418E-002	3.32293E+001	11	...........	6.47257E-002	-5.28111E-003	6.10530E-001	5.27757E-001	-2.57381E-002	-3.69076E-002	7.07657E-001	-4.39046E-002	-2.58098E-003	2.10588E-004	-2.43453E-002	-2.10447E-002	1.02632E-003	1.47172E-003	-2.82183E-002	1.75073E-003
	57	57	4.99854E-002	-3.94238E-002	0.00000E+000	-1.97061E-003	-3.90751E-001	3.88206E-002	3.29386E+001	11	...........	6.46819E-002	-5.35458E-003	6.10556E-001	5.27882E-001	-2.57649E-002	-3.69422E-002	7.07578E-001	-4.38560E-002	-2.55001E-003	2.11098E-004	-2.40704E-002	-2.08111E-002	1.01575E-003	1.45640E-003	-2.78954E-002	1.72897E-003
	58	58	4.99763E-002	-3.84653E-002	0.00000E+000	-1.92236E-003	-3.81223E-001	3.87947E-002	3.21840E+001	11	...........	6.46401E-002	-5.31708E-003	6.10296E-001	5.27847E-001	-2.57397E-002	-3.69353E-002	7.07636E-001	-4.36522E-002	-2.48641E-003	2.04523E-004	-2.34752E-002	-2.03038E-002	9.90087E-004	1.42073E-003	-2.72195E-002	1.67910E-003
	59	59	5.00004E-002	-3.80595E-002	0.00000E+000	-1.90299E-003	-3.77182E-001	3.88303E-002	3.28132E+001	11	...........	6.46969E-002	-5.28333E-003	6.10212E-001	5.27789E-001	-2.57400E-002	-3.69226E-002	7.07691E-001	-4.38082E-002	-2.46234E-003	2.01081E-004	-2.32244E-002	-2.00874E-002	9.79652E-004	1.40526E-003	-2.69344E-002	1.66732E-003
	60	60	4.99798E-002	-3.79626E-002	0.00000E+000	-1.89736E-003	-3.76223E-001	3.88698E-002	3.28589E+001	11	...........	6.47537E-002	-5.30250E-003	6.10357E-001	5.27700E-001	-2.57504E-002	-3.69676E-002	7.07639E-001	-4.38868E-002	-2.45822E-003	2.01297E-004	-2.31708E-002	-2.00329E-002	9.77554E-004	1.40339E-003	-2.68639E-002	1.66606E-003
	61	61	4.99957E-002	-3.77564E-002	0.00000E+000	-1.88766E-003	-3.74160E-001	3.90232E-002	3.32852E+001	11	...........	6.50199E-002	-5.31958E-003	6.10292E-001	5.27767E-001	-2.57567E-002	-3.69794E-002	7.07653E-001	-4.39461E-002	-2.45492E-003	2.00848E-004	-2.30425E-002	-1.99266E-002	9.72480E-004	1.39621E-003	-2.67185E-002	1.65925E-003
	62	62	4.99871E-002	-3.74076E-002	0.00000E+000	-1.86990E-003	-3.70688E-001	3.89337E-002	3.33170E+001	11	...........	6.48593E-002	-5.29069E-003	6.10143E-001	5.27789E-001	-2.57581E-002	-3.69960E-002	7.07791E-001	-4.38963E-002	-2.42623E-003	1.97912E-004	-2.28240E-002	-1.97433E-002	9.63548E-004	1.38393E-003	-2.64768E-002	1.64205E-003
	63	63	4.99764E-002	-3.65300E-002	0.00000E+000	-1.82564E-003	-3.61973E-001	3.89381E-002	3.25073E+001	11	...........	6.48642E-002	-5.38375E-003	6.09981E-001	5.27676E-001	-2.57728E-002	-3.70178E-002	7.07702E-001	-4.39383E-002	-2.36949E-003	1.96669E-004	-2.22826E-002	-1.92760E-002	9.41480E-004	1.35226E-003	-2.58524E-002	1.60507E-003
	64	64	4.99931E-002	-3.61731E-002	0.00000E+000	-1.80840E-003	-3.58420E-001	3.89587E-002	3.28023E+001	11	...........	6.48931E-002	-5.40458E-003	6.09881E-001	5.27620E-001	-2.57751E-002	-3.70364E-002	7.07694E-001	-4.39483E-002	-2.34738E-003	1.95500E-004	-2.20613E-002	-1.90856E-002	9.32365E-004	1.33972E-003	-2.55995E-002	1.58975E-003
	65	65	4.99931E-002	-3.61312E-002	0.00000E+000	-1.80631E-003	-3.58009E-001	3.90142E-002	3.34499E+001	11	...........	6.50046E-002	-5.36583E-003	6.09991E-001	5.27608E-001	-2.57719E-002	-3.70587E-002	7.07603E-001	-4.38776E-002	-2.34870E-003	1.93874E-004	-2.20397E-002	-1.90631E-002	9.31172E-004	1.33898E-003	-2.55666E-002	1.58535E-003
	66	66	4.99833E-002	-3.56375E-002	0.00000E+000	-1.78128E-003	-3.53090E-001	3.90571E-002	3.35724E+001	11	...........	6.50637E-002	-5.46361E-003	6.10019E-001	5.27688E-001	-2.57650E-002	-3.70561E-002	7.07603E-001	-4.37743E-002	-2.31871E-003	1.94710E-004	-2.17396E-002	-1.88055E-002	9.18201E-004	1.32059E-003	-2.52172E-002	1.56001E-003
	67	67	4.99864E-002	-3.52512E-002	0.00000E+000	-1.76208E-003	-3.49239E-001	3.90829E-002	3.31434E+001	11	...........	6.51122E-002	-5.36472E-003	6.09995E-001	5.27663E-001	-2.57826E-002	-3.70504E-002	7.07680E-001	-4.37179E-002	-2.29529E-003	1.89113E-004	-2.15031E-002	-1.86008E-002	9.08870E-004	1.30607E-003	-2.49466E-002	1.54111E-003
	68	68	4.99850E-002	-3.42327E-002	0.00000E+000	-1.71112E-003	-3.39126E-001	3.90067E-002	3.25740E+001	11	...........	6.49787E-002	-5.23556E-003	6.10040E-001	5.27656E-001	-2.57783E-002	-3.70526E-002	7.07547E-001	-4.37764E-002	-2.22440E-003	1.79227E-004	-2.08833E-002	-1.80631E-002	8.82461E-004	1.26841E-003	-2.42212E-002	1.49858E-003
	69	69	4.99927E-002	-3.40478E-002	0.00000E+000	-1.70214E-003	-3.37284E-001	3.90473E-002	3.30335E+001	11	...........	6.50647E-002	-5.25292E-003	6.10181E-001	5.27907E-001	-2.57857E-002	-3.70525E-002	7.07724E-001	-4.37893E-002	-2.21531E-003	1.78850E-004	-2.07753E-002	-1.79741E-002	8.77946E-004	1.26156E-003	-2.40964E-002	1.49093E-003
	70	70	4.99872E-002	-3.41857E-002	0.00000E+000	-1.70885E-003	-3.38653E-001	3.92007E-002	3.37557E+001	11	...........	6.53111E-002	-5.33625E-003	6.10341E-001	5.27978E-001	-2.57994E-002	-3.70743E-002	7.07770E-001	-4.36900E-002	-2.23271E-003	1.82424E-004	-2.08650E-002	-1.80493E-002	8.81972E-004	1.26741E-003	-2.41956E-002	1.49357E-003
	71	71	4.99884E-002	-3.36516E-002	0.00000E+000	-1.68219E-003	-3.33350E-001	3.91364E-002	3.35570E+001	11	...........	6.51731E-002	-5.21486E-003	6.10290E-001	5.28040E-001	-2.57842E-002	-3.70689E-002	7.07717E-001	-4.36961E-002	-2.19318E-003	1.75488E-004	-2.05372E-002	-1.77694E-002	8.67678E-004	1.24743E-003	-2.38158E-002	1.47044E-003
	72	72	4.99812E-002	-3.30465E-002	0.00000E+000	-1.65171E-003	-3.27326E-001	3.91044E-002	3.31556E+001	11	...........	6.51378E-002	-5.22736E-003	6.10329E-001	5.28045E-001	-2.58018E-002	-3.70672E-002	7.07754E-001	-4.36344E-002	-2.15258E-003	1.72746E-004	-2.01693E-002	-1.74501E-002	8.52660E-004	1.22494E-003	-2.33888E-002	1.44197E-003
	73	73	4.99928E-002	-3.27368E-002	0.00000E+000	-1.63660E-003	-3.24239E-001	3.92533E-002	3.35577E+001	11	...........	6.53840E-002	-5.30069E-003	6.10142E-001	5.28075E-001	-2.58156E-002	-3.70285E-002	7.07762E-001	-4.36571E-002	-2.14047E-003	1.73528E-004	-1.99741E-002	-1.72875E-002	8.45119E-004	1.21219E-003	-2.31699E-002	1.42919E-003
	74	74	4.99836E-002	-3.21339E-002	0.00000E+000	-1.60617E-003	-3.18242E-001	3.90496E-002	3.31733E+001	11	...........	6.50444E-002	-5.35611E-003	6.10076E-001	5.28040E-001	-2.57851E-002	-3.70115E-002	7.07793E-001	-4.38271E-002	-2.09013E-003	1.72113E-004	-1.96041E-002	-1.69679E-002	8.28576E-004	1.18932E-003	-2.27441E-002	1.40833E-003
	75	75	4.99922E-002	-3.21727E-002	0.00000E+000	-1.60838E-003	-3.18628E-001	3.92843E-002	3.35473E+001	11	...........	6.54383E-002	-5.26722E-003	6.10028E-001	5.28001E-001	-2.57865E-002	-3.70214E-002	7.07790E-001	-4.37581E-002	-2.10533E-003	1.69461E-004	-1.96262E-002	-1.69872E-002	8.29622E-004	1.19108E-003	-2.27715E-002	1.40781E-003
	76	76	4.99905E-002	-3.18376E-002	0.00000E+000	-1.59158E-003	-3.15304E-001	3.92652E-002	3.34122E+001	11	...........	6.54047E-002	-5.32736E-003	6.09953E-001	5.27979E-001	-2.57847E-002	-3.70279E-002	7.07639E-001	-4.37901E-002	-2.08233E-003	1.69611E-004	-1.94195E-002	-1.68096E-002	8.20925E-004	1.17888E-003	-2.25296E-002	1.39417E-003
	77	77	4.99867E-002	-3.11781E-002	0.00000E+000	-1.55849E-003	-3.08754E-001	3.92191E-002	3.37514E+001	11	...........	6.53300E-002	-5.43667E-003	6.10120E-001	5.28116E-001	-2.57560E-002	-3.70311E-002	7.07590E-001	-4.38251E-002	-2.03686E-003	1.69505E-004	-1.90224E-002	-1.64656E-002	8.03022E-004	1.15456E-003	-2.20613E-002	1.36638E-003
	78	78	4.99836E-002	-3.09652E-002	0.00000E+000	-1.54775E-003	-3.06647E-001	3.93076E-002	3.39719E+001	11	...........	6.54640E-002	-5.39639E-003	6.10147E-001	5.27985E-001	-2.57396E-002	-3.70196E-002	7.07615E-001	-4.38485E-002	-2.02710E-003	1.67100E-004	-1.88933E-002	-1.63491E-002	7.97030E-004	1.14632E-003	-2.19114E-002	1.35778E-003
	79	79	4.99847E-002	-3.03311E-002	0.00000E+000	-1.51609E-003	-3.00353E-001	3.91904E-002	3.27153E+001	11	...........	6.52967E-002	-5.38486E-003	6.10095E-001	5.28033E-001	-2.57353E-002	-3.70340E-002	7.07796E-001	-4.38693E-002	-1.98052E-003	1.63329E-004	-1.85048E-002	-1.60158E-002	7.80579E-004	1.12328E-003	-2.14682E-002	1.33060E-003
	80	80	4.99979E-002	-3.02050E-002	0.00000E+000	-1.51019E-003	-2.99094E-001	3.93187E-002	3.35072E+001	11	...........	6.55003E-002	-5.38944E-003	6.10043E-001	5.28115E-001	-2.57296E-002	-3.70556E-002	7.07993E-001	-4.39197E-002	-1.97844E-003	1.62788E-004	-1.84264E-002	-1.59517E-002	7.77162E-004	1.11926E-003	-2.13850E-002	1.32660E-003
	81	81	4.99891E-002	-3.01271E-002	0.00000E+000	-1.50603E-003	-2.98317E-001	3.93263E-002	3.41975E+001	11	...........	6.55179E-002	-5.45722E-003	6.10164E-001	5.27987E-001	-2.57424E-002	-3.70737E-002	7.07969E-001	-4.38719E-002	-1.97386E-003	1.64410E-004	-1.83825E-002	-1.59067E-002	7.75543E-004	1.11692E-003	-2.13291E-002	1.32173E-003
	82	82	4.99835E-002	-2.97524E-002	0.00000E+000	-1.48713E-003	-2.94590E-001	3.93572E-002	3.38144E+001	11	...........	6.55557E-002	-5.39139E-003	6.10271E-001	5.27836E-001	-2.57301E-002	-3.70703E-002	7.07999E-001	-4.39061E-002	-1.95044E-003	1.60407E-004	-1.81570E-002	-1.57044E-002	7.65534E-004	1.10293E-003	-2.10647E-002	1.30631E-003
	83	83	4.99845E-002	-2.89539E-002	0.00000E+000	-1.44725E-003	-2.86663E-001	3.93042E-002	3.24877E+001	11	...........	6.54494E-002	-5.35556E-003	6.10218E-001	5.27986E-001	-2.57487E-002	-3.70687E-002	7.07953E-001	-4.37935E-002	-1.89501E-003	1.55064E-004	-1.76682E-002	-1.52872E-002	7.45526E-004	1.07328E-003	-2.04980E-002	1.26799E-003
	84	84	4.99930E-002	-2.85445E-002	0.00000E+000	-1.42703E-003	-2.82587E-001	3.93027E-002	3.33142E+001	11	...........	6.54832E-002	-5.34958E-003	6.10092E-001	5.27987E-001	-2.57349E-002	-3.70261E-002	7.07915E-001	-4.36953E-002	-1.86919E-003	1.52701E-004	-1.74148E-002	-1.50711E-002	7.34590E-004	1.05689E-003	-2.02071E-002	1.24726E-003
	85	85	4.99882E-002	-2.86334E-002	0.00000E+000	-1.43133E-003	-2.83467E-001	3.94676E-002	3.42218E+001	11	...........	6.57457E-002	-5.22139E-003	6.10111E-001	5.28099E-001	-2.57269E-002	-3.70010E-002	7.07897E-001	-4.36936E-002	-1.88252E-003	1.49506E-004	-1.74695E-002	-1.51213E-002	7.36650E-004	1.05946E-003	-2.02695E-002	1.25110E-003
	86	86	4.99879E-002	-2.83427E-002	0.00000E+000	-1.41679E-003	-2.80589E-001	3.94338E-002	3.39349E+001	11	...........	6.56889E-002	-5.21389E-003	6.10125E-001	5.28262E-001	-2.57299E-002	-3.70107E-002	7.07841E-001	-4.37661E-002	-1.86180E-003	1.47776E-004	-1.72926E-002	-1.49724E-002	7.29255E-004	1.04898E-003	-2.00622E-002	1.24045E-003
	87	87	4.99897E-002	-2.78264E-002	0.00000E+000	-1.39103E-003	-2.75448E-001	3.94282E-002	3.39875E+001	11	...........	6.56728E-002	-5.25611E-003	6.09967E-001	5.28179E-001	-2.57118E-002	-3.69699E-002	7.07818E-001	-4.37772E-002	-1.82744E-003	1.46259E-004	-1.69732E-002	-1.46973E-002	7.15468E-004	1.02874E-003	-1.96961E-002	1.21816E-003
	88	88	4.99902E-002	-2.77108E-002	0.00000E+000	-1.38527E-003	-2.74292E-001	3.94697E-002	3.42281E+001	11	...........	6.57535E-002	-5.28083E-003	6.10012E-001	5.28144E-001	-2.57097E-002	-3.69449E-002	7.07709E-001	-4.38217E-002	-1.82208E-003	1.46336E-004	-1.69039E-002	-1.46353E-002	7.12436E-004	1.02377E-003	-1.96112E-002	1.21433E-003
	89	89	4.99866E-002	-2.73461E-002	0.00000E+000	-1.36694E-003	-2.70657E-001	3.94907E-002	3.37401E+001	11	...........	6.57893E-002	-5.34097E-003	6.09846E-001	5.28117E-001	-2.56814E-002	-3.69172E-002	7.07810E-001	-4.38121E-002	-1.79908E-003	1.46055E-004	-1.66769E-002	-1.44419E-002	7.02285E-004	1.00954E-003	-1.93558E-002	1.19809E-003
	90	90	4.99848E-002	-2.65881E-002	0.00000E+000	-1.32900E-003	-2.63130E-001	3.93183E-002	3.30482E+001	11	...........	6.54931E-002	-5.26778E-003	6.09712E-001	5.28076E-001	-2.56846E-002	-3.69146E-002	7.07811E-001	-4.38597E-002	-1.74134E-003	1.40060E-004	-1.62111E-002	-1.40405E-002	6.82905E-004	9.81490E-004	-1.88194E-002	1.16615E-003
	91	91	4.99937E-002	-2.66938E-002	0.00000E+000	-1.33452E-003	-2.64185E-001	3.96391E-002	3.42306E+001	11	...........	6.60378E-002	-5.36681E-003	6.09690E-001	5.28191E-001	-2.57065E-002	-3.69487E-002	7.07763E-001	-4.39367E-002	-1.76280E-003	1.43261E-004	-1.62750E-002	-1.40995E-002	6.86206E-004	9.86304E-004	-1.88929E-002	1.17284E-003
	92	92	4.99872E-002	-2.64342E-002	0.00000E+000	-1.32137E-003	-2.61595E-001	3.94917E-002	3.45054E+001	11	...........	6.57806E-002	-5.36236E-003	6.09612E-001	5.28154E-001	-2.57068E-002	-3.69447E-002	7.07827E-001	-4.38201E-002	-1.73886E-003	1.41750E-004	-1.61146E-002	-1.39613E-002	6.79539E-004	9.76605E-004	-1.87109E-002	1.15835E-003
	93	93	4.99861E-002	-2.60736E-002	0.00000E+000	-1.30332E-003	-2.58009E-001	3.95136E-002	3.39829E+001	11	...........	6.58385E-002	-5.39931E-003	6.09493E-001	5.28151E-001	-2.57490E-002	-3.69589E-002	7.07866E-001	-4.38193E-002	-1.71665E-003	1.40779E-004	-1.58917E-002	-1.37708E-002	6.71370E-004	9.63652E-004	-1.84566E-002	1.14253E-003
	94	94	4.99854E-002	-2.53901E-002	0.00000E+000	-1.26914E-003	-2.51216E-001	3.94920E-002	3.32118E+001	11	...........	6.57813E-002	-5.30264E-003	6.09521E-001	5.28061E-001	-2.57558E-002	-3.69533E-002	7.07807E-001	-4.37650E-002	-1.67019E-003	1.34635E-004	-1.54758E-002	-1.34075E-002	6.53943E-004	9.38249E-004	-1.79713E-002	1.11120E-003
	95	95	4.99911E-002	-2.51056E-002	0.00000E+000	-1.25505E-003	-2.48377E-001	3.94544E-002	3.34862E+001	11	...........	6.57361E-002	-5.27611E-003	6.09665E-001	5.27928E-001	-2.57324E-002	-3.69606E-002	7.07828E-001	-4.36979E-002	-1.65034E-003	1.32460E-004	-1.53060E-002	-1.32539E-002	6.46025E-004	9.27915E-004	-1.77704E-002	1.09706E-003
	96	96	4.99930E-002	-2.52352E-002	0.00000E+000	-1.26158E-003	-2.49667E-001	3.96321E-002	3.44472E+001	11	...........	6.60274E-002	-5.39194E-003	6.09939E-001	5.27922E-001	-2.57700E-002	-3.69421E-002	7.07946E-001	-4.38269E-002	-1.66622E-003	1.36067E-004	-1.53920E-002	-1.33222E-002	6.50312E-004	9.32242E-004	-1.78652E-002	1.10598E-003
	97	97	4.99857E-002	-2.48760E-002	0.00000E+000	-1.24344E-003	-2.46085E-001	3.95425E-002	3.45058E+001	11	...........	6.58739E-002	-5.33667E-003	6.10055E-001	5.27751E-001	-2.57769E-002	-3.69293E-002	7.07935E-001	-4.39475E-002	-1.63868E-003	1.32755E-004	-1.51757E-002	-1.31283E-002	6.41227E-004	9.18652E-004	-1.76106E-002	1.09324E-003
	98	98	4.99889E-002	-2.45021E-002	0.00000E+000	-1.22483E-003	-2.42371E-001	3.95927E-002	3.41028E+001	11	...........	6.60092E-002	-5.28486E-003	6.10000E-001	5.27906E-001	-2.57704E-002	-3.69247E-002	7.07904E-001	-4.38840E-002	-1.61736E-003	1.29490E-004	-1.49463E-002	-1.29348E-002	6.31428E-004	9.04731E-004	-1.73451E-002	1.07525E-003
	99	99	4.99876E-002	-2.42478E-002	0.00000E+000	-1.21209E-003	-2.39856E-001	3.96293E-002	3.44092E+001	11	...........	6.60061E-002	-5.28319E-003	6.09982E-001	5.27989E-001	-2.57618E-002	-3.69182E-002	7.07962E-001	-4.38414E-002	-1.60050E-003	1.28106E-004	-1.47907E-002	-1.28026E-002	6.24667E-004	8.95185E-004	-1.71665E-002	1.06306E-003
	100	100	4.99898E-002	-2.37373E-002	0.00000E+000	-1.18662E-003	-2.34776E-001	3.95168E-002	3.30753E+001	11	...........	6.58310E-002	-5.38472E-003	6.09885E-001	5.27922E-001	-2.57731E-002	-3.69011E-002	7.07979E-001	-4.38300E-002	-1.56265E-003	1.27818E-004	-1.44770E-002	-1.25314E-002	6.11781E-004	8.75931E-004	-1.68055E-002	1.04040E-003
	101	101	4.99915E-002	-2.34166E-002	0.00000E+000	-1.17063E-003	-2.31585E-001	3.96438E-002	3.42059E+001	11	...........	6.60389E-002	-5.29528E-003	6.09863E-001	5.27813E-001	-2.57556E-002	-3.68865E-002	7.07930E-001	-4.37792E-002	-1.54641E-003	1.23997E-004	-1.42809E-002	-1.23596E-002	6.03108E-004	8.63758E-004	-1.65773E-002	1.02516E-003
	102	102	4.99863E-002	-2.33366E-002	0.00000E+000	-1.16651E-003	-2.30788E-001	3.96487E-002	3.39139E+001	11	...........	6.60489E-002	-5.24278E-003	6.09923E-001	5.27928E-001	-2.57737E-002	-3.69165E-002	7.07910E-001	-4.38372E-002	-1.54135E-003	1.22348E-004	-1.42335E-002	-1.23200E-002	6.01471E-004	8.61505E-004	-1.65202E-002	1.02301E-003
	103	103	4.99913E-002	-2.29268E-002	0.00000E+000	-1.14614E-003	-2.26723E-001	3.95807E-002	3.41750E+001	11	...........	6.59351E-002	-5.28153E-003	6.09964E-001	5.28071E-001	-2.57828E-002	-3.69047E-002	7.07874E-001	-4.38057E-002	-1.51168E-003	1.21088E-004	-1.39845E-002	-1.21070E-002	5.91116E-004	8.46107E-004	-1.62293E-002	1.00432E-003
	104	104	4.99902E-002	-2.28573E-002	0.00000E+000	-1.14264E-003	-2.26026E-001	3.97115E-002	3.47342E+001	11	...........	6.61617E-002	-5.31708E-003	6.10005E-001	5.28010E-001	-2.58001E-002	-3.69025E-002	7.07985E-001	-4.37458E-002	-1.51228E-003	1.21534E-004	-1.39431E-002	-1.20689E-002	5.89723E-004	8.43493E-004	-1.61827E-002	9.99914E-004
	105	105	4.99853E-002	-2.25773E-002	0.00000E+000	-1.12854E-003	-2.23238E-001	3.97004E-002	3.40886E+001	11	...........	6.61376E-002	-5.33931E-003	6.10044E-001	5.27857E-001	-2.57782E-002	-3.69112E-002	7.07990E-001	-4.38279E-002	-1.49321E-003	1.20547E-004	-1.37732E-002	-1.19176E-002	5.82003E-004	8.33358E-004	-1.59845E-002	9.89518E-004
	106	106	4.99914E-002	-2.20937E-002	0.00000E+000	-1.10449E-003	-2.18423E-001	3.95846E-002	3.42464E+001	11	...........	6.59499E-002	-5.25944E-003	6.10057E-001	5.27911E-001	-2.57714E-002	-3.69131E-002	7.07954E-001	-4.38557E-002	-1.45707E-003	1.16200E-004	-1.34784E-002	-1.16635E-002	5.69384E-004	8.15545E-004	-1.56413E-002	9.68933E-004
	107	107	4.99876E-002	-2.18735E-002	0.00000E+000	-1.09340E-003	-2.16239E-001	3.97883E-002	3.44890E+001	11	...........	6.62796E-002	-5.32444E-003	6.10097E-001	5.27885E-001	-2.57918E-002	-3.68919E-002	7.07942E-001	-4.38790E-002	-1.44977E-003	1.16464E-004	-1.33450E-002	-1.15467E-002	5.64158E-004	8.06957E-004	-1.54852E-002	9.59789E-004
	108	108	4.99869E-002	-2.14532E-002	0.00000E+000	-1.07238E-003	-2.12065E-001	3.95675E-002	3.34323E+001	11	...........	6.58907E-002	-5.35958E-003	6.10068E-001	5.27809E-001	-2.58108E-002	-3.68932E-002	7.07879E-001	-4.38468E-002	-1.41357E-003	1.14980E-004	-1.30879E-002	-1.13232E-002	5.53726E-004	7.91479E-004	-1.51863E-002	9.40656E-004
	109	109	4.99931E-002	-2.13737E-002	0.00000E+000	-1.06854E-003	-2.11273E-001	3.98010E-002	3.46394E+001	11	...........	6.63029E-002	-5.40236E-003	6.10102E-001	5.27902E-001	-2.58133E-002	-3.68733E-002	7.07917E-001	-4.38060E-002	-1.41714E-003	1.15468E-004	-1.30401E-002	-1.12832E-002	5.51726E-004	7.88119E-004	-1.51308E-002	9.36296E-004
	110	110	4.99903E-002	-2.12562E-002	0.00000E+000	-1.06261E-003	-2.10101E-001	3.97869E-002	3.44152E+001	11	...........	6.62821E-002	-5.36069E-003	6.10193E-001	5.27953E-001	-2.58347E-002	-3.69024E-002	7.07932E-001	-4.38394E-002	-1.40891E-003	1.13948E-004	-1.29704E-002	-1.12223E-002	5.49148E-004	7.84405E-004	-1.50480E-002	9.31861E-004
	111	111	4.99857E-002	-2.06815E-002	0.00000E+000	-1.03378E-003	-2.04393E-001	3.96870E-002	3.42187E+001	11	...........	6.61189E-002	-5.32333E-003	6.10274E-001	5.27834E-001	-2.58504E-002	-3.68862E-002	7.07928E-001	-4.38715E-002	-1.36744E-003	1.10095E-004	-1.26214E-002	-1.09164E-002	5.34626E-004	7.62863E-004	-1.46410E-002	9.07329E-004
	112	112	4.99894E-002	-2.05997E-002	0.00000E+000	-1.02976E-003	-2.03582E-001	3.98472E-002	3.44751E+001	11	...........	6.63928E-002	-5.32833E-003	6.10325E-001	5.28077E-001	-2.58590E-002	-3.68757E-002	7.08010E-001	-4.37993E-002	-1.36767E-003	1.09762E-004	-1.25725E-002	-1.08782E-002	5.32687E-004	7.59627E-004	-1.45848E-002	9.02251E-004
	113	113	4.99921E-002	-2.04094E-002	0.00000E+000	-1.02031E-003	-2.01698E-001	3.97681E-002	3.47939E+001	11	...........	6.62340E-002	-5.19403E-003	6.10395E-001	5.28086E-001	-2.58708E-002	-3.68868E-002	7.07934E-001	-4.37672E-002	-1.35180E-003	1.06007E-004	-1.24578E-002	-1.07779E-002	5.28009E-004	7.52839E-004	-1.44485E-002	8.93264E-004
	114	114	4.99900E-002	-2.02788E-002	0.00000E+000	-1.01374E-003	-2.00400E-001	3.97977E-002	3.47152E+001	11	...........	6.62803E-002	-5.26347E-003	6.10311E-001	5.28018E-001	-2.58850E-002	-3.68885E-002	7.07938E-001	-4.37378E-002	-1.34408E-003	1.06737E-004	-1.23764E-002	-1.07076E-002	5.24916E-004	7.48053E-004	-1.43561E-002	8.86949E-004
	115	115	4.99894E-002	-1.98767E-002	0.00000E+000	-9.93625E-004	-1.96391E-001	3.97632E-002	3.49043E+001	11	...........	6.62381E-002	-5.23389E-003	6.10220E-001	5.27991E-001	-2.58990E-002	-3.68796E-002	7.07931E-001	-4.37815E-002	-1.31659E-003	1.04032E-004	-1.21292E-002	-1.04947E-002	5.14787E-004	7.33044E-004	-1.40713E-002	8.70232E-004
	116	116	4.99880E-002	-1.97261E-002	0.00000E+000	-9.86069E-004	-1.94892E-001	3.99075E-002	3.45639E+001	11	...........	6.64869E-002	-5.20583E-003	6.10167E-001	5.28004E-001	-2.58828E-002	-3.68715E-002	7.08073E-001	-4.37808E-002	-1.31153E-003	1.02691E-004	-1.20362E-002	-1.04155E-002	5.10566E-004	7.27331E-004	-1.39675E-002	8.63625E-004
	117	117	4.99893E-002	-1.92500E-002	0.00000E+000	-9.62293E-004	-1.90157E-001	3.96539E-002	3.41434E+001	11	...........	6.60336E-002	-5.30931E-003	6.09975E-001	5.27981E-001	-2.58714E-002	-3.68931E-002	7.07970E-001	-4.37983E-002	-1.27115E-003	1.02204E-004	-1.17420E-002	-1.01636E-002	4.98024E-004	7.10191E-004	-1.36284E-002	8.43117E-004
	118	118	4.99925E-002	-1.93003E-002	0.00000E+000	-9.64869E-004	-1.90667E-001	3.99146E-002	3.49443E+001	11	...........	6.64776E-002	-5.32819E-003	6.09983E-001	5.28009E-001	-2.58890E-002	-3.68956E-002	7.07879E-001	-4.38358E-002	-1.28304E-003	1.02836E-004	-1.17728E-002	-1.01907E-002	4.99666E-004	7.12095E-004	-1.36623E-002	8.46044E-004
	119	119	4.99890E-002	-1.91279E-002	0.00000E+000	-9.56185E-004	-1.88955E-001	3.98560E-002	3.52638E+001	11	...........	6.64055E-002	-5.32375E-003	6.09903E-001	5.28043E-001	-2.58714E-002	-3.68817E-002	7.07680E-001	-4.37981E-002	-1.27020E-003	1.01832E-004	-1.16662E-002	-1.01004E-002	4.94866E-004	7.05469E-004	-1.35364E-002	8.37765E-004
	120	120	4.99898E-002	-1.88992E-002	0.00000E+000	-9.44769E-004	-1.86673E-001	3.98813E-002	3.51765E+001	11	...........	6.64310E-002	-5.34958E-003	6.09901E-001	5.28038E-001	-2.58551E-002	-3.68792E-002	7.07820E-001	-4.37240E-002	-1.25549E-003	1.01103E-004	-1.15267E-002	-9.97951E-003	4.88642E-004	6.96988E-004	-1.33772E-002	8.26351E-004
	121	121	4.99875E-002	-1.85940E-002	0.00000E+000	-9.29468E-004	-1.83634E-001	3.98658E-002	3.52349E+001	11	...........	6.64153E-002	-5.33139E-003	6.09964E-001	5.27980E-001	-2.58743E-002	-3.68961E-002	7.07995E-001	-4.37437E-002	-1.23493E-003	9.91319E-005	-1.13417E-002	-9.81726E-003	4.81107E-004	6.86047E-004	-1.31645E-002	8.13372E-004
	122	122	4.99851E-002	-1.82237E-002	0.00000E+000	-9.10914E-004	-1.79953E-001	3.98927E-002	3.36393E+001	11	...........	6.64526E-002	-5.34375E-003	6.09967E-001	5.27836E-001	-2.58737E-002	-3.68861E-002	7.07936E-001	-4.37294E-002	-1.21101E-003	9.73829E-005	-1.11159E-002	-9.61912E-003	4.71515E-004	6.72202E-004	-1.29012E-002	7.96912E-004
	123	123	4.99938E-002	-1.77566E-002	0.00000E+000	-8.87722E-004	-1.75317E-001	3.98673E-002	3.47498E+001	11	...........	6.64211E-002	-5.26722E-003	6.09809E-001	5.27904E-001	-2.58483E-002	-3.68958E-002	7.08042E-001	-4.38736E-002	-1.17941E-003	9.35281E-005	-1.08281E-002	-9.37379E-003	4.58979E-004	6.55145E-004	-1.25724E-002	7.79047E-004
	124	124	4.99903E-002	-1.79085E-002	0.00000E+000	-8.95250E-004	-1.76826E-001	3.98999E-002	3.55163E+001	11	...........	6.64786E-002	-5.35486E-003	6.09712E-001	5.27832E-001	-2.58522E-002	-3.68946E-002	7.08017E-001	-4.38936E-002	-1.19053E-003	9.58975E-005	-1.09190E-002	-9.45267E-003	4.62974E-004	6.60726E-004	-1.26795E-002	7.86068E-004
	125	125	4.99873E-002	-1.75790E-002	0.00000E+000	-8.78727E-004	-1.73546E-001	3.98986E-002	3.41837E+001	11	...........	6.64604E-002	-5.40417E-003	6.09594E-001	5.27682E-001	-2.58425E-002	-3.69085E-002	7.07964E-001	-4.39226E-002	-1.16831E-003	9.49998E-005	-1.07161E-002	-9.27611E-003	4.54285E-004	6.48813E-004	-1.24453E-002	7.72115E-004
	126	126	4.99916E-002	-1.72180E-002	0.00000E+000	-8.60755E-004	-1.69948E-001	3.99414E-002	3.51186E+001	11	...........	6.65190E-002	-5.34875E-003	6.09542E-001	5.27909E-001	-2.58251E-002	-3.69250E-002	7.07970E-001	-4.38896E-002	-1.14532E-003	9.20948E-005	-1.04951E-002	-9.08954E-003	4.44657E-004	6.35775E-004	-1.21898E-002	7.55691E-004
	127	127	4.99892E-002	-1.70878E-002	0.00000E+000	-8.54205E-004	-1.68651E-001	3.99482E-002	3.47949E+001	11	...........	6.65522E-002	-5.31222E-003	6.09606E-001	5.27959E-001	-2.58640E-002	-3.69382E-002	7.08014E-001	-4.38999E-002	-1.13723E-003	9.07741E-005	-1.04168E-002	-9.02165E-003	4.41959E-004	6.31192E-004	-1.20984E-002	7.50151E-004
	128	128	4.99893E-002	-1.66932E-002	0.00000E+000	-8.34480E-004	-1.64736E-001	3.97797E-002	3.44079E+001	11	...........	6.62608E-002	-5.24069E-003	6.09633E-001	5.27932E-001	-2.58664E-002	-3.69324E-002	7.07948E-001	-4.38669E-002	-1.10610E-003	8.74839E-005	-1.01767E-002	-8.81287E-003	4.31792E-004	6.16519E-004	-1.18179E-002	7.32279E-004
	129	129	4.99912E-002	-1.66977E-002	0.00000E+000	-8.34738E-004	-1.64784E-001	4.00322E-002	3.53526E+001	11	...........	6.66862E-002	-5.20944E-003	6.09628E-001	5.28038E-001	-2.58897E-002	-3.69653E-002	7.07955E-001	-4.38060E-002	-1.11351E-003	8.69857E-005	-1.01794E-002	-8.81702E-003	4.32299E-004	6.17235E-004	-1.18212E-002	7.31459E-004
	130	130	4.99905E-002	-1.65683E-002	0.00000E+000	-8.28257E-004	-1.63498E-001	4.00562E-002	3.51941E+001	11	...........	6.67386E-002	-5.34167E-003	6.09720E-001	5.27987E-001	-2.59099E-002	-3.69915E-002	7.08069E-001	-4.39049E-002	-1.10574E-003	8.85023E-005	-1.01020E-002	-8.74784E-003	4.29282E-004	6.12886E-004	-1.17315E-002	7.27429E-004
	131	131	4.99885E-002	-1.63614E-002	0.00000E+000	-8.17883E-004	-1.61436E-001	3.99938E-002	3.53718E+001	11	...........	6.66268E-002	-5.26528E-003	6.09793E-001	5.28053E-001	-2.58960E-002	-3.69888E-002	7.08015E-001	-4.39450E-002	-1.09011E-003	8.61473E-005	-9.97707E-003	-8.63970E-003	4.23694E-004	6.05188E-004	-1.15841E-002	7.19002E-004
	132	132	4.99889E-002	-1.59931E-002	0.00000E+000	-7.99476E-004	-1.57767E-001	3.99924E-002	3.47574E+001	11	...........	6.66310E-002	-5.32097E-003	6.09746E-001	5.28063E-001	-2.58801E-002	-3.69711E-002	7.07909E-001	-4.40036E-002	-1.06563E-003	8.50987E-005	-9.75171E-003	-8.44535E-003	4.13903E-004	5.91282E-004	-1.13216E-002	7.03753E-004
	133	133	4.99896E-002	-1.55886E-002	0.00000E+000	-7.79266E-004	-1.53746E-001	3.98666E-002	3.41213E+001	11	...........	6.64031E-002	-5.33111E-003	6.09636E-001	5.28073E-001	-2.58776E-002	-3.69729E-002	7.07836E-001	-4.39899E-002	-1.03513E-003	8.31043E-005	-9.50334E-003	-8.23190E-003	4.03395E-004	5.76354E-004	-1.10341E-002	6.85738E-004
	134	134	4.99913E-002	-1.56607E-002	0.00000E+000	-7.82900E-004	-1.54458E-001	4.01090E-002	3.52643E+001	11	...........	6.68174E-002	-5.35958E-003	6.09674E-001	5.28176E-001	-2.58749E-002	-3.69662E-002	7.07868E-001	-4.38917E-002	-1.04641E-003	8.39350E-005	-9.54794E-003	-8.27161E-003	4.05219E-004	5.78918E-004	-1.10857E-002	6.87375E-004
	135	135	4.99914E-002	-1.54966E-002	0.00000E+000	-7.74699E-004	-1.52836E-001	4.00066E-002	3.54718E+001	11	...........	6.66472E-002	-5.31722E-003	6.09842E-001	5.28317E-001	-2.58797E-002	-3.69717E-002	7.07971E-001	-4.39183E-002	-1.03281E-003	8.23991E-005	-9.45051E-003	-8.18714E-003	4.01049E-004	5.72937E-004	-1.09712E-002	6.80587E-004
	136	136	4.99891E-002	-1.52069E-002	0.00000E+000	-7.60177E-004	-1.49953E-001	3.99648E-002	3.47379E+001	11	...........	6.65674E-002	-5.20000E-003	6.10035E-001	5.28348E-001	-2.58868E-002	-3.69569E-002	7.08038E-001	-4.38399E-002	-1.01228E-003	7.90756E-005	-9.27671E-003	-8.03451E-003	3.93657E-004	5.61999E-004	-1.07670E-002	6.66666E-004
	137	137	4.99892E-002	-1.50100E-002	0.00000E+000	-7.50336E-004	-1.47988E-001	4.01702E-002	3.51500E+001	11	...........	6.69110E-002	-5.15556E-003	6.10136E-001	5.28496E-001	-2.58626E-002	-3.69667E-002	7.08033E-001	-4.38304E-002	-1.00433E-003	7.73848E-005	-9.15812E-003	-7.93271E-003	3.88198E-004	5.54869E-004	-1.06276E-002	6.57893E-004
	138	138	4.99901E-002	-1.47534E-002	0.00000E+000	-7.37527E-004	-1.45432E-001	3.99160E-002	3.47943E+001	11	...........	6.64990E-002	-5.22917E-003	6.09922E-001	5.28519E-001	-2.58414E-002	-3.69893E-002	7.08023E-001	-4.37710E-002	-9.81090E-004	7.71482E-005	-8.99846E-003	-7.79748E-003	3.81250E-004	5.45720E-004	-1.04458E-002	6.45773E-004
	139	139	4.99887E-002	-1.46541E-002	0.00000E+000	-7.32540E-004	-1.44443E-001	4.00703E-002	3.49436E+001	11	...........	6.67450E-002	-5.22014E-003	6.09827E-001	5.28665E-001	-2.58235E-002	-3.69933E-002	7.08002E-001	-4.37544E-002	-9.78090E-004	7.64966E-005	-8.93648E-003	-7.74713E-003	3.78421E-004	5.42105E-004	-1.03751E-002	6.41183E-004
	140	140	4.99926E-002	-1.45235E-002	0.00000E+000	-7.26068E-004	-1.43145E-001	4.01878E-002	3.51572E+001	11	...........	6.69433E-002	-5.23458E-003	6.09882E-001	5.28637E-001	-2.58126E-002	-3.70094E-002	7.07869E-001	-4.37435E-002	-9.72252E-004	7.60245E-005	-8.85763E-003	-7.67766E-003	3.74890E-004	5.37507E-004	-1.02807E-002	6.35309E-004
	141	141	4.99896E-002	-1.43034E-002	0.00000E+000	-7.15021E-004	-1.40948E-001	4.00408E-002	3.54523E+001	11	...........	6.66943E-002	-5.29236E-003	6.09874E-001	5.28389E-001	-2.58047E-002	-3.69800E-002	7.08001E-001	-4.38199E-002	-9.53954E-004	7.56986E-005	-8.72325E-003	-7.55775E-003	3.69095E-004	5.28939E-004	-1.01268E-002	6.26772E-004
	142	142	4.99875E-002	-1.39812E-002	0.00000E+000	-6.98883E-004	-1.37761E-001	4.00857E-002	3.49419E+001	11	...........	6.67753E-002	-5.29389E-003	6.09922E-001	5.28445E-001	-2.57886E-002	-3.69801E-002	7.07977E-001	-4.38336E-002	-9.33597E-004	7.40148E-005	-8.52743E-003	-7.38829E-003	3.60555E-004	5.17026E-004	-9.89834E-003	6.12845E-004
	143	143	4.99897E-002	-1.38423E-002	0.00000E+000	-6.91974E-004	-1.36385E-001	4.01172E-002	3.43893E+001	11	...........	6.68376E-002	-5.30833E-003	6.09887E-001	5.28432E-001	-2.57746E-002	-3.69708E-002	7.07970E-001	-4.37543E-002	-9.25189E-004	7.34798E-005	-8.44226E-003	-7.31474E-003	3.56780E-004	5.11763E-004	-9.79997E-003	6.05662E-004
	144	144	4.99951E-002	-1.37014E-002	0.00000E+000	-6.85001E-004	-1.34977E-001	4.00814E-002	3.51627E+001	11	...........	6.67692E-002	-5.25764E-003	6.09689E-001	5.28347E-001	-2.57754E-002	-3.69947E-002	7.07960E-001	-4.38497E-002	-9.14828E-004	7.20368E-005	-8.35357E-003	-7.23907E-003	3.53158E-004	5.06878E-004	-9.70001E-003	6.00801E-004
	145	145	4.99901E-002	-1.36399E-002	0.00000E+000	-6.81858E-004	-1.34365E-001	4.01268E-002	3.57475E+001	11	...........	6.68456E-002	-5.32125E-003	6.09661E-001	5.28394E-001	-2.57846E-002	-3.69860E-002	7.07954E-001	-4.39249E-002	-9.11764E-004	7.25811E-005	-8.31569E-003	-7.20723E-003	3.51698E-004	5.04484E-004	-9.65639E-003	5.99129E-004
	146	146	4.99891E-002	-1.34443E-002	0.00000E+000	-6.72071E-004	-1.32421E-001	4.01541E-002	3.51400E+001	11	...........	6.69021E-002	-5.36792E-003	6.09688E-001	5.28633E-001	-2.57433E-002	-3.69847E-002	7.08038E-001	-4.38779E-002	-8.99455E-004	7.21681E-005	-8.19686E-003	-7.10713E-003	3.46102E-004	4.97235E-004	-9.51911E-003	5.89910E-004
	147	147	4.99912E-002	-1.31583E-002	0.00000E+000	-6.57798E-004	-1.29574E-001	4.00358E-002	3.50488E+001	11	...........	6.67093E-002	-5.40667E-003	6.09533E-001	5.28601E-001	-2.57314E-002	-3.69726E-002	7.07934E-001	-4.38063E-002	-8.77779E-004	7.11424E-005	-8.02040E-003	-6.95548E-003	3.38581E-004	4.86496E-004	-9.31520E-003	5.76415E-004
	148	148	4.99910E-002	-1.31695E-002	0.00000E+000	-6.58356E-004	-1.29687E-001	4.02274E-002	3.52393E+001	11	...........	6.70279E-002	-5.44167E-003	6.09502E-001	5.28737E-001	-2.57178E-002	-3.69867E-002	7.07910E-001	-4.38803E-002	-8.82724E-004	7.16640E-005	-8.02684E-003	-6.96319E-003	3.38690E-004	4.87096E-004	-9.32281E-003	5.77881E-004
	149	149	4.99900E-002	-1.28853E-002	0.00000E+000	-6.44138E-004	-1.26867E-001	3.99817E-002	3.49473E+001	11	...........	6.65999E-002	-5.40347E-003	6.09506E-001	5.28788E-001	-2.57239E-002	-3.69760E-002	7.07955E-001	-4.39211E-002	-8.58162E-004	6.96256E-005	-7.85369E-003	-6.81361E-003	3.31461E-004	4.76448E-004	-9.12225E-003	5.65939E-004
	150	150	4.99884E-002	-1.27310E-002	0.00000E+000	-6.36403E-004	-1.25331E-001	4.02432E-002	3.57135E+001	11	...........	6.70429E-002	-5.24056E-003	6.09548E-001	5.28701E-001	-2.57312E-002	-3.69669E-002	7.08088E-001	-4.38785E-002	-8.53523E-004	6.67175E-005	-7.76015E-003	-6.73090E-003	3.27585E-004	4.70626E-004	-9.01467E-003	5.58617E-004
	151	151	4.99911E-002	-1.25591E-002	0.00000E+000	-6.27843E-004	-1.23622E-001	4.01320E-002	3.52138E+001	11	...........	6.68501E-002	-5.16972E-003	6.09553E-001	5.28683E-001	-2.57478E-002	-3.69653E-002	7.07987E-001	-4.38214E-002	-8.39577E-004	6.49270E-005	-7.65543E-003	-6.63978E-003	3.23369E-004	4.64250E-004	-8.89168E-003	5.50357E-004
	152	152	4.99924E-002	-1.24273E-002	0.00000E+000	-6.21270E-004	-1.22305E-001	4.01219E-002	3.55910E+001	11	...........	6.68436E-002	-5.19722E-003	6.09652E-001	5.28691E-001	-2.57293E-002	-3.69514E-002	7.07824E-001	-4.39358E-002	-8.30685E-004	6.45874E-005	-7.57632E-003	-6.57020E-003	3.19746E-004	4.59206E-004	-8.79633E-003	5.46004E-004
	153	153	4.99900E-002	-1.23602E-002	0.00000E+000	-6.17888E-004	-1.21639E-001	4.02107E-002	3.59055E+001	11	...........	6.69946E-002	-5.30264E-003	6.09634E-001	5.28746E-001	-2.57335E-002	-3.69475E-002	7.07795E-001	-4.38415E-002	-8.28069E-004	6.55419E-005	-7.53523E-003	-6.53543E-003	3.18072E-004	4.56680E-004	-8.74851E-003	5.41892E-004
	154	154	4.99878E-002	-1.21287E-002	0.00000E+000	-6.06289E-004	-1.19335E-001	4.01975E-002	3.40528E+001	11	...........	6.69701E-002	-5.45361E-003	6.09569E-001	5.28713E-001	-2.57269E-002	-3.69517E-002	7.07870E-001	-4.37806E-002	-8.12264E-004	6.61454E-005	-7.39331E-003	-6.41263E-003	3.12035E-004	4.48177E-004	-8.58557E-003	5.31003E-004
	155	155	4.99932E-002	-1.17930E-002	0.00000E+000	-5.89569E-004	-1.15995E-001	4.00736E-002	3.50517E+001	11	...........	6.67682E-002	-5.42375E-003	6.09519E-001	5.28706E-001	-2.57304E-002	-3.69660E-002	7.08007E-001	-4.38532E-002	-7.87396E-004	6.39622E-005	-7.18804E-003	-6.23502E-003	3.03438E-004	4.35939E-004	-8.34951E-003	5.17160E-004
	156	156	4.99921E-002	-1.19150E-002	0.00000E+000	-5.95658E-004	-1.17206E-001	4.02320E-002	3.59169E+001	11	...........	6.70210E-002	-5.38097E-003	6.09567E-001	5.28686E-001	-2.57194E-002	-3.69600E-002	7.07990E-001	-4.38331E-002	-7.98558E-004	6.41145E-005	-7.26301E-003	-6.29932E-003	3.06448E-004	4.40380E-004	-8.43573E-003	5.22273E-004
	157	157	4.99907E-002	-1.17686E-002	0.00000E+000	-5.88320E-004	-1.15739E-001	4.01947E-002	3.56530E+001	11	...........	6.69635E-002	-5.34986E-003	6.09592E-001	5.28724E-001	-2.57460E-002	-3.69483E-002	7.08015E-001	-4.39139E-002	-7.88067E-004	6.29604E-005	-7.17405E-003	-6.22235E-003	3.02994E-004	4.34830E-004	-8.33235E-003	5.16805E-004
	158	158	4.99894E-002	-1.16036E-002	0.00000E+000	-5.80055E-004	-1.14113E-001	4.02225E-002	3.57501E+001	11	...........	6.70136E-002	-5.26486E-003	6.09700E-001	5.28616E-001	-2.57192E-002	-3.69633E-002	7.07906E-001	-4.38810E-002	-7.77596E-004	6.10911E-005	-7.07469E-003	-6.13383E-003	2.98434E-004	4.28906E-004	-8.21423E-003	5.09175E-004
	159	159	4.99910E-002	-1.14138E-002	0.00000E+000	-5.70589E-004	-1.12233E-001	4.02873E-002	3.52497E+001	11	...........	6.71099E-002	-5.25889E-003	6.09604E-001	5.28550E-001	-2.56932E-002	-3.69572E-002	7.07867E-001	-4.38257E-002	-7.65980E-004	6.00240E-005	-6.95792E-003	-6.03277E-003	2.93258E-004	4.21823E-004	-8.07947E-003	5.00219E-004
	160	160	4.99905E-002	-1.11545E-002	0.00000E+000	-5.57618E-004	-1.09647E-001	4.00490E-002	3.42803E+001	11	...........	6.67060E-002	-5.26153E-003	6.09459E-001	5.28451E-001	-2.57087E-002	-3.69636E-002	7.07803E-001	-4.38554E-002	-7.44070E-004	5.86896E-005	-6.79820E-003	-5.89460E-003	2.86768E-004	4.12310E-004	-7.89517E-003	4.89184E-004
	161	161	4.99917E-002	-1.11574E-002	0.00000E+000	-5.57777E-004	-1.09674E-001	4.02838E-002	3.55485E+001	11	...........	6.71012E-002	-5.36389E-003	6.09470E-001	5.28407E-001	-2.57011E-002	-3.69061E-002	7.07873E-001	-4.39758E-002	-7.48675E-004	5.98470E-005	-6.80010E-003	-5.89565E-003	2.86757E-004	4.11776E-004	-7.89801E-003	4.90656E-004
	162	162	4.99906E-002	-1.10663E-002	0.00000E+000	-5.53211E-004	-1.08769E-001	4.03186E-002	3.60945E+001	11	...........	6.71458E-002	-5.38806E-003	6.09541E-001	5.28333E-001	-2.56917E-002	-3.69240E-002	7.07984E-001	-4.38208E-002	-7.43057E-004	5.96259E-005	-6.74536E-003	-5.84669E-003	2.84312E-004	4.08613E-004	-7.83477E-003	4.84935E-004
	163	163	4.99910E-002	-1.09161E-002	0.00000E+000	-5.45705E-004	-1.07275E-001	4.02772E-002	3.55687E+001	11	...........	6.71067E-002	-5.39347E-003	6.09590E-001	5.28524E-001	-2.56956E-002	-3.69149E-002	7.07899E-001	-4.37406E-002	-7.32541E-004	5.88755E-005	-6.65432E-003	-5.76941E-003	2.80494E-004	4.02965E-004	-7.72747E-003	4.77475E-004
	164	164	4.99894E-002	-1.07594E-002	0.00000E+000	-5.37855E-004	-1.05713E-001	4.02833E-002	3.57942E+001	11	...........	6.71011E-002	-5.41208E-003	6.09732E-001	5.28575E-001	-2.57142E-002	-3.68831E-002	7.07837E-001	-4.37596E-002	-7.21966E-004	5.82307E-005	-6.56034E-003	-5.68714E-003	2.76668E-004	3.96839E-004	-7.61589E-003	4.70826E-004
	165	165	4.99874E-002	-1.05476E-002	0.00000E+000	-5.27249E-004	-1.03611E-001	4.02532E-002	3.47129E+001	11	...........	6.70660E-002	-5.39500E-003	6.09645E-001	5.28538E-001	-2.57058E-002	-3.68718E-002	7.07818E-001	-4.37644E-002	-7.07387E-004	5.69045E-005	-6.43031E-003	-5.57482E-003	2.71136E-004	3.88910E-004	-7.46580E-003	4.61611E-004
	166	166	4.99956E-002	-1.04088E-002	0.00000E+000	-5.20397E-004	-1.02251E-001	4.02069E-002	3.52925E+001	11	...........	6.69660E-002	-5.27208E-003	6.09616E-001	5.28512E-001	-2.57131E-002	-3.68701E-002	7.07882E-001	-4.38219E-002	-6.97038E-004	5.48763E-005	-6.34539E-003	-5.50120E-003	2.67643E-004	3.83775E-004	-7.36822E-003	4.56135E-004
	167	167	4.99915E-002	-1.04434E-002	0.00000E+000	-5.22082E-004	-1.02589E-001	4.03384E-002	3.58804E+001	11	...........	6.72192E-002	-5.27167E-003	6.09525E-001	5.28363E-001	-2.57265E-002	-3.68865E-002	7.07877E-001	-4.38688E-002	-7.01998E-004	5.50542E-005	-6.36553E-003	-5.51792E-003	2.68673E-004	3.85221E-004	-7.39265E-003	4.58140E-004
	168	168	4.99907E-002	-1.02671E-002	0.00000E+000	-5.13261E-004	-1.00863E-001	4.02561E-002	3.54061E+001	11	...........	6.70694E-002	-5.21222E-003	6.09410E-001	5.28359E-001	-2.57131E-002	-3.68928E-002	7.07979E-001	-4.38492E-002	-6.88611E-004	5.35146E-005	-6.25690E-003	-5.42473E-003	2.64000E-004	3.78783E-004	-7.26892E-003	4.50206E-004
	169	169	4.99916E-002	-1.01619E-002	0.00000E+000	-5.08011E-004	-9.98143E-002	4.03110E-002	3.60085E+001	11	...........	6.71650E-002	-5.27806E-003	6.09521E-001	5.28250E-001	-2.57386E-002	-3.69272E-002	7.08024E-001	-4.38682E-002	-6.82527E-004	5.36353E-005	-6.19391E-003	-5.36804E-003	2.61554E-004	3.75252E-004	-7.19490E-003	4.45786E-004
	170	170	4.99908E-002	-1.00484E-002	0.00000E+000	-5.02327E-004	-9.86850E-002	4.03191E-002	3.55294E+001	11	...........	6.71557E-002	-5.33111E-003	6.09653E-001	5.28265E-001	-2.57553E-002	-3.69331E-002	7.08025E-001	-4.37344E-002	-6.74807E-004	5.35691E-005	-6.12603E-003	-5.30822E-003	2.58799E-004	3.71118E-004	-7.11452E-003	4.39461E-004
	171	171	4.99904E-002	-9.85031E-003	0.00000E+000	-4.92421E-004	-9.67113E-002	4.00687E-002	3.50445E+001	11	...........	6.67411E-002	-5.33347E-003	6.09635E-001	5.28201E-001	-2.57485E-002	-3.69032E-002	7.07914E-001	-4.37639E-002	-6.57421E-004	5.25364E-005	-6.00509E-003	-5.20295E-003	2.53630E-004	3.63508E-004	-6.97317E-003	4.31088E-004
	172	172	4.99917E-002	-9.83923E-003	0.00000E+000	-4.91880E-004	-9.65987E-002	4.04447E-002	3.61133E+001	11	...........	6.73657E-002	-5.28889E-003	6.09543E-001	5.28225E-001	-2.57392E-002	-3.69108E-002	7.07981E-001	-4.37914E-002	-6.62827E-004	5.20386E-005	-5.99744E-003	-5.19733E-003	2.53254E-004	3.63174E-004	-6.96599E-003	4.30874E-004
	173	173	4.99910E-002	-9.74853E-003	0.00000E+000	-4.87339E-004	-9.56873E-002	4.03341E-002	3.63049E+001	11	...........	6.71936E-002	-5.23931E-003	6.09590E-001	5.28245E-001	-2.57276E-002	-3.69089E-002	7.07934E-001	-4.38246E-002	-6.55039E-004	5.10755E-005	-5.94261E-003	-5.14962E-003	2.50807E-004	3.59807E-004	-6.90131E-003	4.27225E-004
	174	174	4.99911E-002	-9.62703E-003	0.00000E+000	-4.81266E-004	-9.44830E-002	4.03344E-002	3.54622E+001	11	...........	6.71883E-002	-5.31694E-003	6.09601E-001	5.28226E-001	-2.57160E-002	-3.69008E-002	7.07725E-001	-4.37974E-002	-6.46824E-004	5.11864E-005	-5.86865E-003	-5.08525E-003	2.47569E-004	3.55246E-004	-6.81329E-003	4.21639E-004
	175	175	4.99909E-002	-9.35886E-003	0.00000E+000	-4.67858E-004	-9.18033E-002	4.02305E-002	3.53093E+001	11	...........	6.70333E-002	-5.35875E-003	6.09631E-001	5.28226E-001	-2.57265E-002	-3.68999E-002	7.07709E-001	-4.37939E-002	-6.27355E-004	5.01518E-005	-5.70545E-003	-4.94359E-003	2.40771E-004	3.45341E-004	-6.62335E-003	4.09861E-004
	176	176	4.99907E-002	-9.29241E-003	0.00000E+000	-4.64535E-004	-9.11443E-002	4.02788E-002	3.53791E+001	11	...........	6.70949E-002	-5.34556E-003	6.09675E-001	5.28255E-001	-2.57626E-002	-3.68956E-002	7.07823E-001	-4.37293E-002	-6.23473E-004	4.96731E-005	-5.66535E-003	-4.90876E-003	2.39397E-004	3.42849E-004	-6.57739E-003	4.06351E-004
	177	177	4.99917E-002	-9.30433E-003	0.00000E+000	-4.65140E-004	-9.12623E-002	4.03967E-002	3.52954E+001	11	...........	6.72925E-002	-5.50583E-003	6.09808E-001	5.28141E-001	-2.57328E-002	-3.68825E-002	7.07816E-001	-4.37314E-002	-6.26112E-004	5.12281E-005	-5.67386E-003	-4.91400E-003	2.39426E-004	3.43167E-004	-6.58575E-003	4.06891E-004
	178	178	4.99915E-002	-9.14099E-003	0.00000E+000	-4.56972E-004	-8.96367E-002	4.03442E-002	3.60559E+001	11	...........	6.71833E-002	-5.53306E-003	6.09917E-001	5.28275E-001	-2.57508E-002	-3.68812E-002	7.07855E-001	-4.38536E-002	-6.14122E-004	5.05776E-005	-5.57525E-003	-4.82896E-003	2.35388E-004	3.37131E-004	-6.47050E-003	4.00865E-004
	179	179	4.99913E-002	-9.09912E-003	0.00000E+000	-4.54877E-004	-8.92163E-002	4.04302E-002	3.62060E+001	11	...........	6.73458E-002	-5.44139E-003	6.09974E-001	5.28266E-001	-2.57110E-002	-3.68654E-002	7.07835E-001	-4.38796E-002	-6.12788E-004	4.95119E-005	-5.55023E-003	-4.80676E-003	2.33947E-004	3.35443E-004	-6.44068E-003	3.99266E-004
	180	180	4.99882E-002	-8.92876E-003	0.00000E+000	-4.46332E-004	-8.75470E-002	4.03053E-002	3.52493E+001	11	...........	6.71544E-002	-5.44389E-003	6.09899E-001	5.28095E-001	-2.56942E-002	-3.68686E-002	7.07816E-001	-4.38171E-002	-5.99606E-004	4.86072E-005	-5.44564E-003	-4.71523E-003	2.29417E-004	3.29191E-004	-6.31992E-003	3.91232E-004
	181	181	4.99939E-002	-8.81182E-003	0.00000E+000	-4.40537E-004	-8.63803E-002	4.04013E-002	3.55828E+001	11	...........	6.72886E-002	-5.44556E-003	6.09754E-001	5.28022E-001	-2.57306E-002	-3.68836E-002	7.07891E-001	-4.38400E-002	-5.92935E-004	4.79852E-005	-5.37304E-003	-4.65283E-003	2.26733E-004	3.25012E-004	-6.23780E-003	3.86310E-004
	182	182	4.99909E-002	-8.70587E-003	0.00000E+000	-4.35215E-004	-8.53290E-002	4.01911E-002	3.54446E+001	11	...........	6.69568E-002	-5.39972E-003	6.09603E-001	5.28043E-001	-2.57372E-002	-3.69143E-002	7.07923E-001	-4.37825E-002	-5.82917E-004	4.70093E-005	-5.30712E-003	-4.59707E-003	2.24065E-004	3.21371E-004	-6.16308E-003	3.81165E-004
	183	183	4.99912E-002	-8.69529E-003	0.00000E+000	-4.34688E-004	-8.52257E-002	4.04626E-002	3.62531E+001	11	...........	6.74221E-002	-5.32653E-003	6.09584E-001	5.28057E-001	-2.57082E-002	-3.69085E-002	7.07859E-001	-4.38486E-002	-5.86255E-004	4.63157E-005	-5.30051E-003	-4.59161E-003	2.23540E-004	3.20930E-004	-6.15504E-003	3.81276E-004
	184	184	4.99920E-002	-8.58240E-003	0.00000E+000	-4.29052E-004	-8.40997E-002	4.03883E-002	3.63640E+001	11	...........	6.72871E-002	-5.34986E-003	6.09496E-001	5.28075E-001	-2.57018E-002	-3.68849E-002	7.07798E-001	-4.37936E-002	-5.77485E-004	4.59147E-005	-5.23094E-003	-4.53215E-003	2.20583E-004	3.16561E-004	-6.07461E-003	3.75854E-004
	185	185	4.99907E-002	-8.47395E-003	0.00000E+000	-4.23619E-004	-8.30190E-002	4.04144E-002	3.53260E+001	11	...........	6.73365E-002	-5.31042E-003	6.09592E-001	5.28203E-001	-2.56733E-002	-3.69162E-002	7.07823E-001	-4.38381E-002	-5.70607E-004	4.50002E-005	-5.16565E-003	-4.47596E-003	2.17555E-004	3.12827E-004	-5.99806E-003	3.71482E-004
	186	186	4.99921E-002	-8.31177E-003	0.00000E+000	-4.15523E-004	-8.14047E-002	4.02395E-002	3.48478E+001	11	...........	6.70389E-002	-5.26708E-003	6.09688E-001	5.28297E-001	-2.56746E-002	-3.69329E-002	7.07870E-001	-4.39015E-002	-5.57212E-004	4.37788E-005	-5.06759E-003	-4.39108E-003	2.13401E-004	3.06978E-004	-5.88365E-003	3.64899E-004
	187	187	4.99921E-002	-8.26729E-003	0.00000E+000	-4.13299E-004	-8.09607E-002	4.03812E-002	3.59709E+001	11	...........	6.72640E-002	-5.26986E-003	6.09713E-001	5.28142E-001	-2.56971E-002	-3.69157E-002	7.07836E-001	-4.38594E-002	-5.56091E-004	4.35675E-005	-5.04067E-003	-4.36631E-003	2.12445E-004	3.05193E-004	-5.85188E-003	3.62599E-004
	188	188	4.99903E-002	-8.25852E-003	0.00000E+000	-4.12846E-004	-8.08757E-002	4.04670E-002	3.64192E+001	11	...........	6.74171E-002	-5.33056E-003	6.09709E-001	5.28080E-001	-2.56911E-002	-3.69362E-002	7.07862E-001	-4.38614E-002	-5.56766E-004	4.40225E-005	-5.03530E-003	-4.36116E-003	2.12171E-004	3.05039E-004	-5.84589E-003	3.62230E-004
	189	189	4.99912E-002	-8.14855E-003	0.00000E+000	-4.07356E-004	-7.97703E-002	4.04042E-002	3.59101E+001	11	...........	6.73139E-002	-5.30278E-003	6.09562E-001	5.28102E-001	-2.56803E-002	-3.69379E-002	7.07873E-001	-4.38140E-002	-5.48510E-004	4.32099E-005	-4.96704E-003	-4.30326E-003	2.09257E-004	3.00990E-004	-5.76814E-003	3.57021E-004
	190	190	4.99910E-002	-8.00212E-003	0.00000E+000	-4.00034E-004	-7.83167E-002	4.04177E-002	3.60840E+001	11	...........	6.73432E-002	-5.26361E-003	6.09457E-001	5.28082E-001	-2.56943E-002	-3.69261E-002	7.07855E-001	-4.38008E-002	-5.38888E-004	4.21200E-005	-4.87694E-003	-4.22577E-003	2.05609E-004	2.95487E-004	-5.66434E-003	3.50499E-004
	191	191	4.99913E-002	-7.87629E-003	0.00000E+000	-3.93746E-004	-7.70763E-002	4.02870E-002	3.51558E+001	11	...........	6.71279E-002	-5.27889E-003	6.09467E-001	5.28067E-001	-2.57150E-002	-3.68992E-002	7.07961E-001	-4.35947E-002	-5.28719E-004	4.15781E-005	-4.80034E-003	-4.15921E-003	2.02539E-004	2.90629E-004	-5.57611E-003	3.43365E-004
	192	192	4.99925E-002	-7.84636E-003	0.00000E+000	-3.92259E-004	-7.67820E-002	4.04407E-002	3.59469E+001	11	...........	6.73701E-002	-5.29667E-003	6.09622E-001	5.28292E-001	-2.57268E-002	-3.68690E-002	7.07967E-001	-4.37574E-002	-5.28610E-004	4.15596E-005	-4.78331E-003	-4.14517E-003	2.01862E-004	2.89288E-004	-5.55497E-003	3.43336E-004
	193	193	4.99913E-002	-7.80529E-003	0.00000E+000	-3.90196E-004	-7.63883E-002	4.04743E-002	3.64812E+001	11	...........	6.74360E-002	-5.38958E-003	6.09608E-001	5.28265E-001	-2.57126E-002	-3.68461E-002	7.07992E-001	-4.38572E-002	-5.26358E-004	4.20673E-005	-4.75817E-003	-4.12326E-003	2.00695E-004	2.87595E-004	-5.52609E-003	3.42318E-004
	194	194	4.99915E-002	-7.69732E-003	0.00000E+000	-3.84800E-004	-7.53100E-002	4.04387E-002	3.57952E+001	11	...........	6.73621E-002	-5.39569E-003	6.09550E-001	5.28147E-001	-2.57399E-002	-3.68358E-002	7.07947E-001	-4.38451E-002	-5.18508E-004	4.15324E-005	-4.69190E-003	-4.06532E-003	1.98128E-004	2.83537E-004	-5.44930E-003	3.37490E-004
	195	195	4.99914E-002	-7.54533E-003	0.00000E+000	-3.77201E-004	-7.37907E-002	4.03092E-002	3.52283E+001	11	...........	6.71612E-002	-5.26958E-003	6.09514E-001	5.28323E-001	-2.57350E-002	-3.68374E-002	7.07847E-001	-4.38688E-002	-5.06754E-004	3.97607E-005	-4.59898E-003	-3.98637E-003	1.94179E-004	2.77950E-004	-5.34094E-003	3.31004E-004
	196	196	4.99916E-002	-7.53246E-003	0.00000E+000	-3.76560E-004	-7.36600E-002	4.04782E-002	3.62494E+001	11	...........	6.74208E-002	-5.26222E-003	6.09704E-001	5.28329E-001	-2.57096E-002	-3.68124E-002	7.07987E-001	-4.38732E-002	-5.07845E-004	3.96375E-005	-4.59257E-003	-3.97961E-003	1.93656E-004	2.77288E-004	-5.33288E-003	3.30473E-004
	197	197	4.99910E-002	-7.47494E-003	0.00000E+000	-3.73680E-004	-7.30927E-002	4.04590E-002	3.63762E+001	11	...........	6.74040E-002	-5.28250E-003	6.09779E-001	5.28165E-001	-2.57292E-002	-3.68076E-002	7.07906E-001	-4.38607E-002	-5.03841E-004	3.94864E-005	-4.55806E-003	-3.94800E-003	1.92324E-004	2.75135E-004	-5.29155E-003	3.27856E-004
	198	198	4.99904E-002	-7.35931E-003	0.00000E+000	-3.67895E-004	-7.19360E-002	4.04387E-002	3.50594E+001	11	...........	6.73705E-002	-5.22556E-003	6.09724E-001	5.28247E-001	-2.57533E-002	-3.68061E-002	7.07799E-001	-4.38219E-002	-4.95801E-004	3.84565E-005	-4.48714E-003	-3.88754E-003	1.89527E-004	2.70867E-004	-5.20891E-003	3.22499E-004
	199	199	4.99928E-002	-7.23018E-003	0.00000E+000	-3.61457E-004	-7.06503E-002	4.03485E-002	3.58490E+001	11	...........	6.72289E-002	-5.21722E-003	6.09809E-001	5.28201E-001	-2.57644E-002	-3.68368E-002	7.07806E-001	-4.37928E-002	-4.86077E-004	3.77215E-005	-4.40903E-003	-3.81899E-003	1.86282E-004	2.66337E-004	-5.11757E-003	3.16630E-004
	200	200	4.99916E-002	-7.22750E-003	0.00000E+000	-3.61314E-004	-7.06197E-002	4.04762E-002	3.63711E+001	11	...........	6.74236E-002	-5.32833E-003	6.09863E-001	5.28268E-001	-2.57399E-002	-3.68737E-002	7.07758E-001	-4.38458E-002	-4.87304E-004	3.85105E-005	-4.40778E-003	-3.81806E-003	1.86035E-004	2.66505E-004	-5.11532E-003	3.16896E-004
	201	201	4.99892E-002	-7.14257E-003	0.00000E+000	-3.57051E-004	-6.97780E-002	4.04422E-002	3.55049E+001	11	...........	6.73750E-002	-5.42028E-003	6.09939E-001	5.28274E-001	-2.57362E-002	-3.68764E-002	7.07885E-001	-4.38735E-002	-4.81231E-004	3.87147E-005	-4.35653E-003	-3.77323E-003	1.83823E-004	2.63392E-004	-5.05612E-003	3.13369E-004
	202	202	4.99936E-002	-7.00533E-003	0.00000E+000	-3.50221E-004	-6.84133E-002	4.04779E-002	3.55879E+001	11	...........	6.74196E-002	-5.39181E-003	6.09893E-001	5.28141E-001	-2.57139E-002	-3.68776E-002	7.07799E-001	-4.38592E-002	-4.72296E-004	3.77714E-005	-4.27250E-003	-3.69980E-003	1.80134E-004	2.58340E-004	-4.95836E-003	3.07248E-004
	203	203	4.99917E-002	-6.94710E-003	0.00000E+000	-3.47298E-004	-6.78293E-002	4.03206E-002	3.53623E+001	11	...........	6.71772E-002	-5.34639E-003	6.09948E-001	5.28074E-001	-2.57064E-002	-3.68635E-002	7.07780E-001	-4.38750E-002	-4.66687E-004	3.71419E-005	-4.23737E-003	-3.66859E-003	1.78585E-004	2.56094E-004	-4.91702E-003	3.04804E-004
	204	204	4.99903E-002	-6.93656E-003	0.00000E+000	-3.46760E-004	-6.77240E-002	4.05326E-002	3.59129E+001	11	...........	6.75276E-002	-5.35569E-003	6.10095E-001	5.28132E-001	-2.57349E-002	-3.68697E-002	7.07732E-001	-4.38665E-002	-4.68409E-004	3.71501E-005	-4.23196E-003	-3.66342E-003	1.78511E-004	2.55749E-004	-4.90922E-003	3.04283E-004
	205	205	4.99932E-002	-6.85540E-003	0.00000E+000	-3.42723E-004	-6.69130E-002	4.05109E-002	3.62980E+001	11	...........	6.74803E-002	-5.31944E-003	6.09940E-001	5.28350E-001	-2.57706E-002	-3.68828E-002	7.07902E-001	-4.38829E-002	-4.62604E-004	3.64669E-005	-4.18138E-003	-3.62205E-003	1.76667E-004	2.52846E-004	-4.85295E-003	3.00835E-004
	206	206	4.99902E-002	-6.77738E-003	0.00000E+000	-3.38803E-004	-6.61390E-002	4.04572E-002	3.58419E+001	11	...........	6.74179E-002	-5.36958E-003	6.09831E-001	5.28516E-001	-2.57862E-002	-3.68975E-002	7.07946E-001	-4.38100E-002	-4.56917E-004	3.63917E-005	-4.13306E-003	-3.58196E-003	1.74763E-004	2.50068E-004	-4.79802E-003	2.96917E-004
	207	207	4.99915E-002	-6.62530E-003	0.00000E+000	-3.31209E-004	-6.46153E-002	4.04703E-002	3.50457E+001	11	...........	6.74219E-002	-5.38722E-003	6.09836E-001	5.28653E-001	-2.57862E-002	-3.68939E-002	7.07924E-001	-4.37596E-002	-4.46691E-004	3.56920E-005	-4.04034E-003	-3.50249E-003	1.70842E-004	2.44433E-004	-4.69021E-003	2.89920E-004
	208	208	4.99934E-002	-6.57532E-003	0.00000E+000	-3.28722E-004	-6.41147E-002	4.04006E-002	3.56445E+001	11	...........	6.73076E-002	-5.35611E-003	6.09696E-001	5.28656E-001	-2.57700E-002	-3.68699E-002	7.07818E-001	-4.38694E-002	-4.42569E-004	3.52181E-005	-4.00895E-003	-3.47608E-003	1.69446E-004	2.42431E-004	-4.65413E-003	2.88456E-004
	209	209	4.99918E-002	-6.60865E-003	0.00000E+000	-3.30379E-004	-6.44493E-002	4.05708E-002	3.64145E+001	11	...........	6.75835E-002	-5.36542E-003	6.09697E-001	5.28668E-001	-2.57957E-002	-3.68815E-002	7.07825E-001	-4.37946E-002	-4.46636E-004	3.54582E-005	-4.02928E-003	-3.49378E-003	1.70475E-004	2.43737E-004	-4.67777E-003	2.89423E-004
	210	210	4.99915E-002	-6.54383E-003	0.00000E+000	-3.27135E-004	-6.38027E-002	4.05105E-002	3.59740E+001	11	...........	6.74905E-002	-5.41667E-003	6.09594E-001	5.28707E-001	-2.58076E-002	-3.68860E-002	7.07852E-001	-4.37497E-002	-4.41646E-004	3.54457E-005	-3.98908E-003	-3.45977E-003	1.68881E-004	2.41375E-004	-4.63206E-003	2.86291E-004
	211	211	4.99903E-002	-6.41636E-003	0.00000E+000	-3.20756E-004	-6.25583E-002	4.04897E-002	3.56701E+001	11	...........	6.74378E-002	-5.35083E-003	6.09659E-001	5.28640E-001	-2.58010E-002	-3.68769E-002	7.07924E-001	-4.38615E-002	-4.32705E-004	3.43329E-005	-3.91179E-003	-3.39194E-003	1.65548E-004	2.36616E-004	-4.54229E-003	2.81431E-004
	212	212	4.99935E-002	-6.39925E-003	0.00000E+000	-3.19921E-004	-6.23933E-002	4.05582E-002	3.55663E+001	11	...........	6.75742E-002	-5.34778E-003	6.09650E-001	5.28363E-001	-2.58085E-002	-3.69200E-002	7.07730E-001	-4.39324E-002	-4.32424E-004	3.42218E-005	-3.90130E-003	-3.38113E-003	1.65155E-004	2.36260E-004	-4.52895E-003	2.81134E-004
	213	213	4.99912E-002	-6.25184E-003	0.00000E+000	-3.12537E-004	-6.09260E-002	4.03790E-002	3.52530E+001	11	...........	6.72603E-002	-5.37639E-003	6.09584E-001	5.28302E-001	-2.58100E-002	-3.69344E-002	7.07736E-001	-4.38374E-002	-4.20501E-004	3.36123E-005	-3.81102E-003	-3.30286E-003	1.61360E-004	2.30908E-004	-4.42466E-003	2.74064E-004
	214	214	4.99912E-002	-6.19989E-003	0.00000E+000	-3.09940E-004	-6.04070E-002	4.04364E-002	3.54573E+001	11	...........	6.73668E-002	-5.30125E-003	6.09439E-001	5.28290E-001	-2.58065E-002	-3.69314E-002	7.07812E-001	-4.38475E-002	-4.17667E-004	3.28672E-005	-3.77846E-003	-3.27534E-003	1.59998E-004	2.28971E-004	-4.38836E-003	2.71850E-004
	215	215	4.99923E-002	-6.20747E-003	0.00000E+000	-3.10326E-004	-6.04790E-002	4.05893E-002	3.62393E+001	11	...........	6.76153E-002	-5.26611E-003	6.09559E-001	5.28160E-001	-2.57933E-002	-3.69237E-002	7.07755E-001	-4.38642E-002	-4.19720E-004	3.26892E-005	-3.78382E-003	-3.27854E-003	1.60111E-004	2.29203E-004	-4.39337E-003	2.72286E-004
	216	216	4.99918E-002	-6.14678E-003	0.00000E+000	-3.07289E-004	-5.98753E-002	4.05693E-002	3.58271E+001	11	...........	6.75711E-002	-5.32500E-003	6.09609E-001	5.28083E-001	-2.57903E-002	-3.69226E-002	7.07665E-001	-4.38146E-002	-4.15345E-004	3.27316E-005	-3.74713E-003	-3.24602E-003	1.58527E-004	2.26955E-004	-4.34986E-003	2.69319E-004
	217	217	4.99901E-002	-6.06604E-003	0.00000E+000	-3.03242E-004	-5.90727E-002	4.05277E-002	3.54858E+001	11	...........	6.75128E-002	-5.33556E-003	6.09555E-001	5.27994E-001	-2.57771E-002	-3.69519E-002	7.07699E-001	-4.37529E-002	-4.09535E-004	3.23657E-005	-3.69758E-003	-3.20283E-003	1.56365E-004	2.24152E-004	-4.29293E-003	2.65407E-004
	218	218	4.99932E-002	-6.01775E-003	0.00000E+000	-3.00847E-004	-5.85883E-002	4.05847E-002	3.62980E+001	11	...........	6.76010E-002	-5.30708E-003	6.09354E-001	5.28048E-001	-2.57743E-002	-3.69549E-002	7.07722E-001	-4.38328E-002	-4.06806E-004	3.19367E-005	-3.66694E-003	-3.17766E-003	1.55103E-004	2.22385E-004	-4.25889E-003	2.63775E-004
	219	219	4.99921E-002	-5.96080E-003	0.00000E+000	-2.97993E-004	-5.80233E-002	4.05226E-002	3.51897E+001	11	...........	6.75214E-002	-5.30181E-003	6.09441E-001	5.28122E-001	-2.57757E-002	-3.69443E-002	7.07761E-001	-4.38358E-002	-4.02482E-004	3.16030E-005	-3.63276E-003	-3.14803E-003	1.53644E-004	2.20218E-004	-4.21882E-003	2.61297E-004
	220	220	4.99913E-002	-5.85486E-003	0.00000E+000	-2.92692E-004	-5.69667E-002	4.04417E-002	3.54672E+001	11	...........	6.73815E-002	-5.30736E-003	6.09334E-001	5.28169E-001	-2.57872E-002	-3.69353E-002	7.07798E-001	-4.38318E-002	-3.94509E-004	3.10738E-005	-3.56756E-003	-3.09236E-003	1.50980E-004	2.16251E-004	-4.14406E-003	2.56629E-004
	221	221	4.99930E-002	-5.88159E-003	0.00000E+000	-2.94038E-004	-5.72317E-002	4.06152E-002	3.62345E+001	11	...........	6.76483E-002	-5.34306E-003	6.09272E-001	5.28163E-001	-2.57817E-002	-3.69143E-002	7.07629E-001	-4.38392E-002	-3.97880E-004	3.14257E-005	-3.58349E-003	-3.10644E-003	1.51637E-004	2.17115E-004	-4.16199E-003	2.57844E-004
	222	222	4.99914E-002	-5.81764E-003	0.00000E+000	-2.90832E-004	-5.65987E-002	4.05618E-002	3.62370E+001	11	...........	6.75706E-002	-5.26500E-003	6.09318E-001	5.28108E-001	-2.58043E-002	-3.69236E-002	7.07678E-001	-4.37411E-002	-3.93101E-004	3.06299E-005	-3.54479E-003	-3.07234E-003	1.50120E-004	2.14808E-004	-4.11701E-003	2.54470E-004
	223	223	4.99919E-002	-5.76358E-003	0.00000E+000	-2.88132E-004	-5.60643E-002	4.06127E-002	3.61173E+001	11	...........	6.76551E-002	-5.33083E-003	6.09321E-001	5.27981E-001	-2.58043E-002	-3.69353E-002	7.07741E-001	-4.37029E-002	-3.89936E-004	3.07247E-005	-3.51187E-003	-3.04306E-003	1.48725E-004	2.12879E-004	-4.07912E-003	2.51885E-004
	224	224	4.99912E-002	-5.67551E-003	0.00000E+000	-2.83725E-004	-5.51847E-002	4.04667E-002	3.52335E+001	11	...........	6.74144E-002	-5.41389E-003	6.09422E-001	5.27873E-001	-2.57978E-002	-3.69200E-002	7.07684E-001	-4.37967E-002	-3.82611E-004	3.07266E-005	-3.45878E-003	-2.99595E-003	1.46415E-004	2.09540E-004	-4.01646E-003	2.48568E-004
	225	225	4.99912E-002	-5.57518E-003	0.00000E+000	-2.78710E-004	-5.41833E-002	4.05437E-002	3.45887E+001	11	...........	6.75447E-002	-5.31542E-003	6.09540E-001	5.27824E-001	-2.57932E-002	-3.69408E-002	7.07712E-001	-4.38494E-002	-3.76574E-004	2.96344E-005	-3.39830E-003	-2.94272E-003	1.43802E-004	2.05952E-004	-3.94562E-003	2.44469E-004
	226	226	4.99927E-002	-5.53854E-003	0.00000E+000	-2.76886E-004	-5.38167E-002	4.05460E-002	3.58599E+001	11	...........	6.75355E-002	-5.32333E-003	6.09602E-001	5.27861E-001	-2.57996E-002	-3.69478E-002	7.07688E-001	-4.38658E-002	-3.74048E-004	2.94835E-005	-3.37630E-003	-2.92358E-003	1.42892E-004	2.04637E-004	-3.91956E-003	2.42952E-004
	227	227	4.99919E-002	-5.54324E-003	0.00000E+000	-2.77117E-004	-5.38660E-002	4.06487E-002	3.63443E+001	11	...........	6.77169E-002	-5.37611E-003	6.09466E-001	5.27843E-001	-2.58183E-002	-3.69636E-002	7.07728E-001	-4.38737E-002	-3.75371E-004	2.98011E-005	-3.37842E-003	-2.92596E-003	1.43117E-004	2.04898E-004	-3.92311E-003	2.43203E-004
	228	228	4.99917E-002	-5.49169E-003	0.00000E+000	-2.74539E-004	-5.33480E-002	4.05916E-002	3.58642E+001	11	...........	6.76268E-002	-5.38903E-003	6.09319E-001	5.27829E-001	-2.57854E-002	-3.69382E-002	7.07713E-001	-4.38497E-002	-3.71386E-004	2.95949E-005	-3.34620E-003	-2.89868E-003	1.41606E-004	2.02853E-004	-3.88654E-003	2.40809E-004
	229	229	4.99915E-002	-5.40088E-003	0.00000E+000	-2.69998E-004	-5.24477E-002	4.05380E-002	3.56166E+001	11	...........	6.75174E-002	-5.29889E-003	6.09159E-001	5.27866E-001	-2.57757E-002	-3.69304E-002	7.07791E-001	-4.39283E-002	-3.64653E-004	2.86187E-005	-3.29000E-003	-2.85094E-003	1.39211E-004	1.99457E-004	-3.82270E-003	2.37252E-004
	230	230	4.99918E-002	-5.35860E-003	0.00000E+000	-2.67886E-004	-5.20250E-002	4.06340E-002	3.50325E+001	11	...........	6.76725E-002	-5.29389E-003	6.09058E-001	5.27849E-001	-2.57597E-002	-3.69174E-002	7.07826E-001	-4.39246E-002	-3.62630E-004	2.83678E-005	-3.26370E-003	-2.82853E-003	1.38036E-004	1.97825E-004	-3.79296E-003	2.35374E-004
	231	231	4.99924E-002	-5.28360E-003	0.00000E+000	-2.64140E-004	-5.12837E-002	4.04876E-002	3.58568E+001	11	...........	6.74464E-002	-5.36847E-003	6.09167E-001	5.27813E-001	-2.57718E-002	-3.69160E-002	7.07817E-001	-4.38201E-002	-3.56360E-004	2.83649E-005	-3.21860E-003	-2.78876E-003	1.36168E-004	1.95049E-004	-3.73983E-003	2.31528E-004
	232	232	4.99922E-002	-5.31073E-003	0.00000E+000	-2.65495E-004	-5.15460E-002	4.06644E-002	3.65001E+001	11	...........	6.77304E-002	-5.45264E-003	6.09298E-001	5.27949E-001	-2.57700E-002	-3.69026E-002	7.07885E-001	-4.38826E-002	-3.59698E-004	2.89575E-005	-3.23582E-003	-2.80379E-003	1.36858E-004	1.95980E-004	-3.75939E-003	2.33049E-004
	233	233	4.99918E-002	-5.25805E-003	0.00000E+000	-2.62860E-004	-5.10333E-002	4.06295E-002	3.61653E+001	11	...........	6.76783E-002	-5.35986E-003	6.09342E-001	5.27877E-001	-2.57794E-002	-3.69057E-002	7.07738E-001	-4.39090E-002	-3.55856E-004	2.81824E-005	-3.20396E-003	-2.77561E-003	1.35550E-004	1.94052E-004	-3.72132E-003	2.30876E-004
	234	234	4.99920E-002	-5.20619E-003	0.00000E+000	-2.60268E-004	-5.05290E-002	4.06352E-002	3.61224E+001	11	...........	6.76926E-002	-5.38347E-003	6.09278E-001	5.27910E-001	-2.57697E-002	-3.69264E-002	7.07749E-001	-4.38546E-002	-3.52421E-004	2.80274E-005	-3.17202E-003	-2.74840E-003	1.34162E-004	1.92246E-004	-3.68468E-003	2.28315E-004
	235	235	4.99917E-002	-5.13701E-003	0.00000E+000	-2.56808E-004	-4.98400E-002	4.05972E-002	3.53193E+001	11	...........	6.76215E-002	-5.27667E-003	6.09042E-001	5.27701E-001	-2.57825E-002	-3.69333E-002	7.07840E-001	-4.38747E-002	-3.47372E-004	2.71063E-005	-3.12866E-003	-2.71081E-003	1.32445E-004	1.89727E-004	-3.63618E-003	2.25385E-004
	236	235.467	4.99894E-002	-5.06361E-003	0.00000E+000	-2.53127E-004	-4.91107E-002	4.04986E-002	3.43280E+001	11	...........	6.74747E-002	-5.32083E-003	6.08993E-001	5.27486E-001	-2.57905E-002	-3.69077E-002	7.07818E-001	-4.38765E-002	-3.41666E-004	2.69426E-005	-3.08370E-003	-2.67099E-003	1.30593E-004	1.86887E-004	-3.58412E-003	2.22174E-004
STARTTIMEOFFSET	QUANT	685354.7	Start Time Offset (s)
