EXPLAIN
TAG	PWR800_DISCHARGE
TITLE	LABEL	PWR Discharge	Test Identifier
DATE	LABEL	10/18/2022	Date
TIME	LABEL	13:02:48	Time
NOTES	NOTES	1	Notes...
	
PSTAT	PSTAT	REF3000-21114	Potentiostat
CAPACITY	QUANT	5.30000E-002	Capacity (A-hr)
CELLTYPE	SELECTOR	1	Cell Type
WORKINGCONNECTION	SELECTOR	0	Working Connection
MAXDISCHARGETIME	VARIABLEANDUNITS	7.20000E+003	s	2.00000E+000	hour(s)	Max Discharge Time
DISCHARGEMODE	MULTIPARAM	0	1.00000E-001	Discharge Mode	Constant Current	Amp(s)
VOLTAGEFINISH	TWOPARAM	T	5.00000E-003	7.20000E+003	Voltage Finish	I (A) <	Max Time(s)
SAMPLETIME	QUANT	1.00000E+000	Sample Period (s)
DISCHARGESTOPAT1	MULTIPARAM	1	5.00000E-002	Stop At 1	|Voltage| < Limit	V
DISCHARGESTOPAT2	MULTIPARAM	0	0.00000E+000	Stop At 2	None	N/A
AESELECTOR	AESELECTOR	0x1	T	Set Limits	AE Channels
AESBHCSELECTOR	TOGGLE	F	Save Both Half Cells
IRCOMP	TOGGLE	F	IR Measure
EOC	QUANT	0.5060914	Open Circuit (V)
SEQUENCER	TOGGLE	TRUE	Run as Sequence
PSTATMODEL	IQUANT	5	Pstat Model
PSTATSECTION	LABEL	REF3000-21114	Pstat Section
PSTATSERIALNO	LABEL	21114	Pstat Serial Number
CTRLMODE	IQUANT	0	Control Mode
ELECTROMETER	IQUANT	0	RE=0 or CS=1
IESTAB	IQUANT	0	I/E Stability
CASPEED	IQUANT	4	Control Amp Speed
CONVENTION	IQUANT	1	Current Convention
ICHRANGE	IQUANT	2	Ich Range
ICHRANGEMODE	TOGGLE	T	Ich Auto Range
ICHOFFSETENABLE	TOGGLE	F	Ich Offset Enable
ICHOFFSET	QUANT	0	Ich Offset (V)
ICHFILTER	IQUANT	1	Ich Filter
VCHRANGE	IQUANT	3	Vch Range
VCHRANGEMODE	TOGGLE	T	Vch Auto Range
VCHOFFSETENABLE	TOGGLE	F	Vch Offset Enable
VCHOFFSET	QUANT	0	Vch Offset (V)
VCHFILTER	IQUANT	1	Vch Filter
ACHRANGE	IQUANT	2	Ach Range
ACHOFFSETENABLE	TOGGLE	F	Ach Offset Enable
ACHOFFSET	QUANT	0	Ach Offset (V)
ACHFILTER	IQUANT	1	Ach Filter
IERANGELOWERLIMIT	IQUANT	9	I/E Range Lower Limit
IERANGEMODE	TOGGLE	F	I/E AutoRange
IERANGE	IQUANT	9	I/E Range
POSFEEDENABLE	TOGGLE	F	Positive Feedback IR Comp
POSFEEDRESISTANCE	QUANT	0	Positive Feedback Resistance (ohm)
ACHSELECT	IQUANT	1	Ach Select
SENSECABLEID	IQUANT	13	Sense Cable ID
PWRCABLEID	IQUANT	13	Power Cable ID
DCCALDATE	LABEL		DC Calibration Date
ACCALDATE	LABEL		AC Calibration Date
THERMOSELECT	IQUANT	1	Thermo Select
FRAMEWORKVERSION	LABEL	7.8.6	Framework Version
INSTRUMENTVERSION	LABEL	4.50	Instrument Version
COMPLIANCEVOLTAGE	IQUANT	0	Compliance Voltage
CURVE	TABLE	45
	Pt	T	Vf	Im	Vu	Pwr	Sig	Ach	Temp	IERange	Over	Vf1	Vf2	Vf3	Vf4	Vf5	Vf6	Vf7	Vf8	Pwr1	Pwr2	Pwr3	Pwr4	Pwr5	Pwr6	Pwr7	Pwr8
	#	s	V	A	V	W	V	V	deg C	#	bits	V	V	V	V	V	V	V	V	W	W	W	W	W	W	W	W
	0	1	2.60980E-001	-1.00082E-001	0.00000E+000	-2.61194E-002	-9.94000E-001	3.46842E-002	2.84775E+001	11	...........	5.76103E-002	-5.20917E-003	6.05770E-001	5.33889E-001	-2.71643E-002	-3.79778E-002	7.05107E-001	-4.38340E-002	-5.76577E-003	5.21345E-004	-6.06268E-002	-5.34328E-002	2.71866E-003	3.80090E-003	-7.05687E-002	4.38701E-003
	1	2	1.60780E-001	-1.00083E-001	0.00000E+000	-1.60914E-002	-9.94000E-001	3.46683E-002	2.80200E+001	11	...........	5.75850E-002	-5.22333E-003	6.05725E-001	5.33849E-001	-2.71374E-002	-3.80037E-002	7.05183E-001	-4.37065E-002	-5.76328E-003	5.22766E-004	-6.06227E-002	-5.34292E-002	2.71599E-003	3.80353E-003	-7.05767E-002	4.37428E-003
	2	2.765	8.18154E-002	-1.00083E-001	0.00000E+000	-8.18833E-003	-9.94000E-001	3.45877E-002	2.70674E+001	11	...........	5.74285E-002	-5.09259E-003	6.05800E-001	5.33845E-001	-2.71402E-002	-3.80134E-002	7.05265E-001	-4.37186E-002	-5.74761E-003	5.09682E-004	-6.06303E-002	-5.34288E-002	2.71627E-003	3.80450E-003	-7.05851E-002	4.37549E-003
	3	3	4.91621E-002	-9.31607E-002	0.00000E+000	-4.57998E-003	-9.25163E-001	3.46301E-002	2.71156E+001	11	...........	5.75414E-002	-4.93617E-003	6.05803E-001	5.33832E-001	-2.71986E-002	-3.80349E-002	7.05153E-001	-4.36022E-002	-5.36060E-003	4.59857E-004	-5.64371E-002	-4.97322E-002	2.53384E-003	3.54336E-003	-6.56926E-002	4.06202E-003
	4	4	4.94833E-002	-6.81564E-002	0.00000E+000	-3.37260E-003	-6.76564E-001	3.48702E-002	2.80965E+001	11	...........	5.79417E-002	-5.08764E-003	6.05884E-001	5.33854E-001	-2.71847E-002	-3.80408E-002	7.05269E-001	-4.35028E-002	-3.94909E-003	3.46755E-004	-4.12949E-002	-3.63856E-002	1.85281E-003	2.59273E-003	-4.80686E-002	2.96499E-003
	5	5	4.97238E-002	-4.52536E-002	0.00000E+000	-2.25018E-003	-4.48852E-001	3.48602E-002	2.89849E+001	11	...........	5.79182E-002	-5.14486E-003	6.05949E-001	5.33831E-001	-2.72111E-002	-3.80289E-002	7.05208E-001	-4.35110E-002	-2.62101E-003	2.32823E-004	-2.74214E-002	-2.41578E-002	1.23140E-003	1.72094E-003	-3.19132E-002	1.96903E-003
	6	6	4.98098E-002	-3.30219E-002	0.00000E+000	-1.64481E-003	-3.27235E-001	3.49423E-002	2.98851E+001	11	...........	5.80286E-002	-5.16972E-003	6.05858E-001	5.33915E-001	-2.72390E-002	-3.80426E-002	7.05243E-001	-4.37807E-002	-1.91621E-003	1.70714E-004	-2.00066E-002	-1.76309E-002	8.99483E-004	1.25624E-003	-2.32884E-002	1.44572E-003
	7	7	4.98590E-002	-2.56342E-002	0.00000E+000	-1.27809E-003	-2.53784E-001	3.50252E-002	3.04698E+001	11	...........	5.81601E-002	-5.19917E-003	6.05960E-001	5.33933E-001	-2.72437E-002	-3.80483E-002	7.05260E-001	-4.38203E-002	-1.49089E-003	1.33276E-004	-1.55333E-002	-1.36869E-002	6.98371E-004	9.75337E-004	-1.80788E-002	1.12330E-003
	8	8	4.98839E-002	-2.07090E-002	0.00000E+000	-1.03304E-003	-2.04812E-001	3.50050E-002	3.06666E+001	11	...........	5.81415E-002	-5.22694E-003	6.05830E-001	5.34014E-001	-2.72261E-002	-3.80628E-002	7.05244E-001	-4.37358E-002	-1.20405E-003	1.08245E-004	-1.25461E-002	-1.10589E-002	5.63824E-004	7.88240E-004	-1.46049E-002	9.05723E-004
	9	9	4.99019E-002	-1.73931E-002	0.00000E+000	-8.67951E-004	-1.71842E-001	3.50740E-002	3.08203E+001	11	...........	5.82458E-002	-5.34750E-003	6.05873E-001	5.34109E-001	-2.72493E-002	-3.80604E-002	7.05306E-001	-4.36881E-002	-1.01308E-003	9.30098E-005	-1.05380E-002	-9.28983E-003	4.73951E-004	6.61990E-004	-1.22675E-002	7.59873E-004
	10	10	4.99127E-002	-1.50698E-002	0.00000E+000	-7.52173E-004	-1.48725E-001	3.50627E-002	3.11767E+001	11	...........	5.82185E-002	-5.30806E-003	6.05814E-001	5.34243E-001	-2.72607E-002	-3.80700E-002	7.05348E-001	-4.35947E-002	-8.77339E-004	7.99912E-005	-9.12947E-003	-8.05092E-003	4.10812E-004	5.73706E-004	-1.06294E-002	6.56963E-004
	11	11	4.99200E-002	-1.33416E-002	0.00000E+000	-6.66013E-004	-1.31553E-001	3.50738E-002	3.13307E+001	11	...........	5.82415E-002	-5.32694E-003	6.05912E-001	5.34252E-001	-2.72657E-002	-3.80774E-002	7.05294E-001	-4.34944E-002	-7.77036E-004	7.10700E-005	-8.08385E-003	-7.12779E-003	3.63768E-004	5.08013E-004	-9.40976E-003	5.80286E-004
	12	12	4.99235E-002	-1.20539E-002	0.00000E+000	-6.01773E-004	-1.18734E-001	3.51279E-002	3.17557E+001	11	...........	5.83403E-002	-5.33806E-003	6.05973E-001	5.34220E-001	-2.72631E-002	-3.80585E-002	7.05207E-001	-4.35979E-002	-7.03228E-004	6.43444E-005	-7.30434E-003	-6.43943E-003	3.28626E-004	4.58753E-004	-8.50049E-003	5.25525E-004
	13	13	4.99269E-002	-1.10530E-002	0.00000E+000	-5.51840E-004	-1.08794E-001	3.51599E-002	3.10600E+001	11	...........	5.83651E-002	-5.34625E-003	6.05768E-001	5.34096E-001	-2.72639E-002	-3.80464E-002	7.05155E-001	-4.37288E-002	-6.45108E-004	5.90919E-005	-6.69553E-003	-5.90335E-003	3.01347E-004	4.20525E-004	-7.79406E-003	4.83332E-004
	14	14	4.99319E-002	-1.02491E-002	0.00000E+000	-5.11758E-004	-1.00815E-001	3.51107E-002	3.15290E+001	11	...........	5.82972E-002	-5.28611E-003	6.05696E-001	5.34248E-001	-2.72378E-002	-3.80561E-002	7.05134E-001	-4.37890E-002	-5.97495E-004	5.41780E-005	-6.20784E-003	-5.47557E-003	2.79163E-004	3.90042E-004	-7.22700E-003	4.48799E-004
	15	15	4.99320E-002	-9.64306E-003	0.00000E+000	-4.81497E-004	-9.47853E-002	3.51543E-002	3.15081E+001	11	...........	5.83751E-002	-5.24569E-003	6.05602E-001	5.34225E-001	-2.72378E-002	-3.80690E-002	7.05204E-001	-4.36235E-002	-5.62915E-004	5.05846E-005	-5.83986E-003	-5.15157E-003	2.62656E-004	3.67102E-004	-6.80033E-003	4.20664E-004
	16	16	4.99332E-002	-9.14713E-003	0.00000E+000	-4.56746E-004	-8.98453E-002	3.51863E-002	3.15566E+001	11	...........	5.84235E-002	-5.22250E-003	6.05625E-001	5.34391E-001	-2.72340E-002	-3.80631E-002	7.05261E-001	-4.37336E-002	-5.34407E-004	4.77709E-005	-5.53973E-003	-4.88815E-003	2.49113E-004	3.48168E-004	-6.45112E-003	4.00037E-004
	17	17	4.99352E-002	-8.72722E-003	0.00000E+000	-4.35795E-004	-8.56913E-002	3.52060E-002	3.20138E+001	11	...........	5.84400E-002	-5.15931E-003	6.05534E-001	5.34321E-001	-2.72400E-002	-3.80362E-002	7.05254E-001	-4.36951E-002	-5.10018E-004	4.50264E-005	-5.28463E-003	-4.66313E-003	2.37729E-004	3.31951E-004	-6.15491E-003	3.81337E-004
	18	18	4.99355E-002	-8.37157E-003	0.00000E+000	-4.18039E-004	-8.21517E-002	3.52219E-002	3.23688E+001	11	...........	5.84725E-002	-5.22278E-003	6.05674E-001	5.34243E-001	-2.72303E-002	-3.80136E-002	7.05302E-001	-4.37522E-002	-4.89507E-004	4.37229E-005	-5.07045E-003	-4.47245E-003	2.27960E-004	3.18234E-004	-5.90449E-003	3.66275E-004
	19	19	4.99351E-002	-8.01639E-003	0.00000E+000	-4.00299E-004	-7.86110E-002	3.51611E-002	3.15666E+001	11	...........	5.83651E-002	-5.31486E-003	6.05825E-001	5.34227E-001	-2.72275E-002	-3.80231E-002	7.05341E-001	-4.38082E-002	-4.67878E-004	4.26060E-005	-4.85653E-003	-4.28257E-003	2.18266E-004	3.04808E-004	-5.65429E-003	3.51184E-004
	20	20	4.99368E-002	-7.76190E-003	0.00000E+000	-3.87604E-004	-7.60883E-002	3.50585E-002	3.13947E+001	11	...........	5.83750E-002	-5.30917E-003	6.05994E-001	5.34323E-001	-2.72628E-002	-3.80312E-002	7.05354E-001	-4.37840E-002	-4.53101E-004	4.12092E-005	-4.70367E-003	-4.14736E-003	2.11611E-004	2.95195E-004	-5.47488E-003	3.39847E-004
	21	21	4.99371E-002	-7.57697E-003	0.00000E+000	-3.78372E-004	-7.42493E-002	3.51464E-002	3.19280E+001	11	...........	5.86446E-002	-5.40806E-003	6.06014E-001	5.34289E-001	-2.72549E-002	-3.80390E-002	7.05315E-001	-4.38507E-002	-4.44348E-004	4.09767E-005	-4.59175E-003	-4.04829E-003	2.06509E-004	2.88221E-004	-5.34415E-003	3.32256E-004
	22	22	4.99372E-002	-7.33369E-003	0.00000E+000	-3.66224E-004	-7.18237E-002	3.50539E-002	3.21624E+001	11	...........	5.84982E-002	-5.50417E-003	6.06035E-001	5.34219E-001	-2.72383E-002	-3.80639E-002	7.05267E-001	-4.39174E-002	-4.29008E-004	4.03659E-005	-4.44447E-003	-3.91780E-003	1.99758E-004	2.79149E-004	-5.17221E-003	3.22076E-004
	23	23	4.99376E-002	-7.15241E-003	0.00000E+000	-3.57174E-004	-7.00130E-002	3.50598E-002	3.17015E+001	11	...........	5.85342E-002	-5.37000E-003	6.06182E-001	5.34129E-001	-2.72171E-002	-3.80728E-002	7.05412E-001	-4.39028E-002	-4.18661E-004	3.84085E-005	-4.33566E-003	-3.82031E-003	1.94668E-004	2.72312E-004	-5.04540E-003	3.14011E-004
	24	24	4.99380E-002	-6.96171E-003	0.00000E+000	-3.47654E-004	-6.81103E-002	3.51417E-002	3.20073E+001	11	...........	5.86321E-002	-5.35833E-003	6.06330E-001	5.34292E-001	-2.72010E-002	-3.80258E-002	7.05378E-001	-4.39210E-002	-4.08179E-004	3.73031E-005	-4.22109E-003	-3.71958E-003	1.89365E-004	2.64725E-004	-4.91063E-003	3.05765E-004
	25	25	4.99381E-002	-6.79330E-003	0.00000E+000	-3.39245E-004	-6.64270E-002	3.50392E-002	3.14943E+001	11	...........	5.84706E-002	-5.36500E-003	6.06277E-001	5.34313E-001	-2.71829E-002	-3.80422E-002	7.05330E-001	-4.38869E-002	-3.97208E-004	3.64461E-005	-4.11862E-003	-3.62975E-003	1.84662E-004	2.58432E-004	-4.79152E-003	2.98137E-004
	26	26	4.99379E-002	-6.68746E-003	0.00000E+000	-3.33957E-004	-6.53737E-002	3.51869E-002	3.21565E+001	11	...........	5.87093E-002	-5.31722E-003	6.06208E-001	5.34358E-001	-2.71799E-002	-3.80690E-002	7.05482E-001	-4.38346E-002	-3.92616E-004	3.55587E-005	-4.05399E-003	-3.57350E-003	1.81764E-004	2.54585E-004	-4.71788E-003	2.93142E-004
	27	27	4.99388E-002	-6.58296E-003	0.00000E+000	-3.28745E-004	-6.43283E-002	3.51749E-002	3.24708E+001	11	...........	5.87078E-002	-5.33597E-003	6.06119E-001	5.34177E-001	-2.72001E-002	-3.80933E-002	7.05459E-001	-4.38007E-002	-3.86471E-004	3.51265E-005	-3.99006E-003	-3.51646E-003	1.79057E-004	2.50767E-004	-4.64400E-003	2.88338E-004
	28	28	4.99378E-002	-6.43251E-003	0.00000E+000	-3.21225E-004	-6.28617E-002	3.50841E-002	3.23688E+001	11	...........	5.85453E-002	-5.23639E-003	6.06180E-001	5.34156E-001	-2.72149E-002	-3.81069E-002	7.05489E-001	-4.38874E-002	-3.76593E-004	3.36831E-005	-3.89926E-003	-3.43597E-003	1.75060E-004	2.45123E-004	-4.53807E-003	2.82306E-004
	29	29	4.99375E-002	-6.27805E-003	0.00000E+000	-3.13510E-004	-6.13377E-002	3.51741E-002	3.19740E+001	11	...........	5.87001E-002	-5.16736E-003	6.06242E-001	5.34187E-001	-2.72271E-002	-3.81262E-002	7.05469E-001	-4.38557E-002	-3.68522E-004	3.24409E-005	-3.80602E-003	-3.35365E-003	1.70933E-004	2.39358E-004	-4.42897E-003	2.75328E-004
	30	30	4.99391E-002	-6.17333E-003	0.00000E+000	-3.08291E-004	-6.02920E-002	3.51558E-002	3.17699E+001	11	...........	5.86687E-002	-5.26222E-003	6.06420E-001	5.34184E-001	-2.72135E-002	-3.81268E-002	7.05416E-001	-4.37051E-002	-3.62182E-004	3.24855E-005	-3.74363E-003	-3.29769E-003	1.67998E-004	2.35369E-004	-4.35477E-003	2.69806E-004
	31	31	4.99387E-002	-6.08725E-003	0.00000E+000	-3.03990E-004	-5.94313E-002	3.51687E-002	3.22448E+001	11	...........	5.86986E-002	-5.24500E-003	6.06332E-001	5.34216E-001	-2.72236E-002	-3.81485E-002	7.05548E-001	-4.38226E-002	-3.57313E-004	3.19276E-005	-3.69089E-003	-3.25191E-003	1.65717E-004	2.32219E-004	-4.29485E-003	2.66759E-004
	32	32	4.99386E-002	-5.96987E-003	0.00000E+000	-2.98127E-004	-5.82617E-002	3.51588E-002	3.21134E+001	11	...........	5.86717E-002	-5.27264E-003	6.06279E-001	5.34232E-001	-2.72358E-002	-3.81442E-002	7.05678E-001	-4.37736E-002	-3.50262E-004	3.14770E-005	-3.61940E-003	-3.18930E-003	1.62594E-004	2.27716E-004	-4.21281E-003	2.61323E-004
	33	33	4.99388E-002	-5.89989E-003	0.00000E+000	-2.94634E-004	-5.75633E-002	3.52159E-002	3.22395E+001	11	...........	5.87861E-002	-5.25444E-003	6.06275E-001	5.34317E-001	-2.72293E-002	-3.81297E-002	7.05620E-001	-4.37806E-002	-3.46831E-004	3.10006E-005	-3.57695E-003	-3.15241E-003	1.60650E-004	2.24961E-004	-4.16308E-003	2.58300E-004
	34	34	4.99387E-002	-5.81232E-003	0.00000E+000	-2.90260E-004	-5.66967E-002	3.52062E-002	3.26348E+001	11	...........	5.87511E-002	-5.27583E-003	6.06206E-001	5.34365E-001	-2.72449E-002	-3.81182E-002	7.05485E-001	-4.38183E-002	-3.41480E-004	3.06648E-005	-3.52346E-003	-3.10590E-003	1.58356E-004	2.21555E-004	-4.10051E-003	2.54686E-004
	35	35	4.99388E-002	-5.71039E-003	0.00000E+000	-2.85170E-004	-5.56813E-002	3.51756E-002	3.25270E+001	11	...........	5.87032E-002	-5.35639E-003	6.06175E-001	5.34393E-001	-2.72399E-002	-3.81079E-002	7.05411E-001	-4.38947E-002	-3.35218E-004	3.05871E-005	-3.46150E-003	-3.05159E-003	1.55550E-004	2.17611E-004	-4.02817E-003	2.50656E-004
	36	36	4.99382E-002	-5.59230E-003	0.00000E+000	-2.79269E-004	-5.44993E-002	3.51828E-002	3.20120E+001	11	...........	5.87071E-002	-5.27986E-003	6.06056E-001	5.34482E-001	-2.72199E-002	-3.81128E-002	7.05460E-001	-4.39213E-002	-3.28308E-004	2.95266E-005	-3.38925E-003	-2.98899E-003	1.52222E-004	2.13138E-004	-3.94515E-003	2.45621E-004
	37	37	4.99396E-002	-5.51508E-003	0.00000E+000	-2.75421E-004	-5.37317E-002	3.51991E-002	3.25263E+001	11	...........	5.87436E-002	-5.30097E-003	6.05993E-001	5.34506E-001	-2.72200E-002	-3.80846E-002	7.05481E-001	-4.38507E-002	-3.23975E-004	2.92353E-005	-3.34210E-003	-2.94784E-003	1.50120E-004	2.10039E-004	-3.89078E-003	2.41840E-004
	38	38	4.99382E-002	-5.45433E-003	0.00000E+000	-2.72380E-004	-5.31277E-002	3.52642E-002	3.23896E+001	11	...........	5.88521E-002	-5.29583E-003	6.06091E-001	5.34359E-001	-2.72036E-002	-3.80928E-002	7.05395E-001	-4.39029E-002	-3.20999E-004	2.88852E-005	-3.30582E-003	-2.91457E-003	1.48378E-004	2.07771E-004	-3.84746E-003	2.39461E-004
	39	39	4.99390E-002	-5.34241E-003	0.00000E+000	-2.66795E-004	-5.20190E-002	3.51922E-002	3.20942E+001	11	...........	5.87331E-002	-5.32347E-003	6.06210E-001	5.34410E-001	-2.72025E-002	-3.80594E-002	7.05407E-001	-4.39385E-002	-3.13776E-004	2.84402E-005	-3.23862E-003	-2.85504E-003	1.45327E-004	2.03329E-004	-3.76857E-003	2.34737E-004
	40	40	4.99390E-002	-5.26475E-003	0.00000E+000	-2.62917E-004	-5.12467E-002	3.52141E-002	3.21149E+001	11	...........	5.87662E-002	-5.30625E-003	6.06102E-001	5.34452E-001	-2.71956E-002	-3.80686E-002	7.05521E-001	-4.39103E-002	-3.09390E-004	2.79361E-005	-3.19097E-003	-2.81376E-003	1.43178E-004	2.00422E-004	-3.71440E-003	2.31177E-004
	41	41	4.99397E-002	-5.23312E-003	0.00000E+000	-2.61341E-004	-5.09403E-002	3.52792E-002	3.31091E+001	11	...........	5.88864E-002	-5.24278E-003	6.06291E-001	5.34434E-001	-2.72032E-002	-3.80569E-002	7.05621E-001	-4.39097E-002	-3.08159E-004	2.74361E-005	-3.17279E-003	-2.79676E-003	1.42358E-004	1.99156E-004	-3.69260E-003	2.29785E-004
	42	42	4.99386E-002	-5.16436E-003	0.00000E+000	-2.57901E-004	-5.02543E-002	3.52438E-002	3.22545E+001	11	...........	5.88135E-002	-5.23986E-003	6.06320E-001	5.34241E-001	-2.72144E-002	-3.80683E-002	7.05676E-001	-4.38943E-002	-3.03734E-004	2.70605E-005	-3.13125E-003	-2.75901E-003	1.40545E-004	1.96598E-004	-3.64436E-003	2.26686E-004
	43	43	4.99390E-002	-5.09001E-003	0.00000E+000	-2.54190E-004	-4.95167E-002	3.52757E-002	3.24894E+001	11	...........	5.88768E-002	-5.17028E-003	6.06257E-001	5.34279E-001	-2.72329E-002	-3.80446E-002	7.05555E-001	-4.37657E-002	-2.99684E-004	2.63168E-005	-3.08586E-003	-2.71949E-003	1.38616E-004	1.93647E-004	-3.59129E-003	2.22768E-004
	44	43.36	4.99392E-002	-5.04270E-003	0.00000E+000	-2.51828E-004	-4.90407E-002	3.52803E-002	3.27389E+001	11	...........	5.88657E-002	-5.19522E-003	6.06228E-001	5.34262E-001	-2.72130E-002	-3.80764E-002	7.05607E-001	-4.38241E-002	-2.96842E-004	2.61979E-005	-3.05703E-003	-2.69412E-003	1.37227E-004	1.92008E-004	-3.55816E-003	2.20991E-004
STARTTIMEOFFSET	QUANT	1011045	Start Time Offset (s)
