EXPLAIN
TAG	PWR800_DISCHARGE
TITLE	LABEL	PWR Discharge	Test Identifier
DATE	LABEL	10/17/2022	Date
TIME	LABEL	0:02:07	Time
NOTES	NOTES	1	Notes...
	
PSTAT	PSTAT	REF3000-21114	Potentiostat
CAPACITY	QUANT	5.30000E-002	Capacity (A-hr)
CELLTYPE	SELECTOR	1	Cell Type
WORKINGCONNECTION	SELECTOR	0	Working Connection
MAXDISCHARGETIME	VARIABLEANDUNITS	7.20000E+003	s	2.00000E+000	hour(s)	Max Discharge Time
DISCHARGEMODE	MULTIPARAM	0	1.00000E-001	Discharge Mode	Constant Current	Amp(s)
VOLTAGEFINISH	TWOPARAM	T	5.00000E-003	7.20000E+003	Voltage Finish	I (A) <	Max Time(s)
SAMPLETIME	QUANT	1.00000E+000	Sample Period (s)
DISCHARGESTOPAT1	MULTIPARAM	1	5.00000E-002	Stop At 1	|Voltage| < Limit	V
DISCHARGESTOPAT2	MULTIPARAM	0	0.00000E+000	Stop At 2	None	N/A
AESELECTOR	AESELECTOR	0x1	T	Set Limits	AE Channels
AESBHCSELECTOR	TOGGLE	F	Save Both Half Cells
IRCOMP	TOGGLE	F	IR Measure
EOC	QUANT	0.5267506	Open Circuit (V)
SEQUENCER	TOGGLE	TRUE	Run as Sequence
PSTATMODEL	IQUANT	5	Pstat Model
PSTATSECTION	LABEL	REF3000-21114	Pstat Section
PSTATSERIALNO	LABEL	21114	Pstat Serial Number
CTRLMODE	IQUANT	0	Control Mode
ELECTROMETER	IQUANT	0	RE=0 or CS=1
IESTAB	IQUANT	0	I/E Stability
CASPEED	IQUANT	4	Control Amp Speed
CONVENTION	IQUANT	1	Current Convention
ICHRANGE	IQUANT	2	Ich Range
ICHRANGEMODE	TOGGLE	T	Ich Auto Range
ICHOFFSETENABLE	TOGGLE	F	Ich Offset Enable
ICHOFFSET	QUANT	0	Ich Offset (V)
ICHFILTER	IQUANT	1	Ich Filter
VCHRANGE	IQUANT	3	Vch Range
VCHRANGEMODE	TOGGLE	T	Vch Auto Range
VCHOFFSETENABLE	TOGGLE	F	Vch Offset Enable
VCHOFFSET	QUANT	0	Vch Offset (V)
VCHFILTER	IQUANT	1	Vch Filter
ACHRANGE	IQUANT	2	Ach Range
ACHOFFSETENABLE	TOGGLE	F	Ach Offset Enable
ACHOFFSET	QUANT	0	Ach Offset (V)
ACHFILTER	IQUANT	1	Ach Filter
IERANGELOWERLIMIT	IQUANT	9	I/E Range Lower Limit
IERANGEMODE	TOGGLE	F	I/E AutoRange
IERANGE	IQUANT	9	I/E Range
POSFEEDENABLE	TOGGLE	F	Positive Feedback IR Comp
POSFEEDRESISTANCE	QUANT	0	Positive Feedback Resistance (ohm)
ACHSELECT	IQUANT	1	Ach Select
SENSECABLEID	IQUANT	13	Sense Cable ID
PWRCABLEID	IQUANT	13	Power Cable ID
DCCALDATE	LABEL		DC Calibration Date
ACCALDATE	LABEL		AC Calibration Date
THERMOSELECT	IQUANT	1	Thermo Select
FRAMEWORKVERSION	LABEL	7.8.6	Framework Version
INSTRUMENTVERSION	LABEL	4.50	Instrument Version
COMPLIANCEVOLTAGE	IQUANT	0	Compliance Voltage
CURVE	TABLE	63
	Pt	T	Vf	Im	Vu	Pwr	Sig	Ach	Temp	IERange	Over	Vf1	Vf2	Vf3	Vf4	Vf5	Vf6	Vf7	Vf8	Pwr1	Pwr2	Pwr3	Pwr4	Pwr5	Pwr6	Pwr7	Pwr8
	#	s	V	A	V	W	V	V	deg C	#	bits	V	V	V	V	V	V	V	V	W	W	W	W	W	W	W	W
	0	1	2.86654E-001	-1.00082E-001	0.00000E+000	-2.86890E-002	-9.94000E-001	3.52720E-002	2.78699E+001	11	...........	5.86089E-002	-4.44847E-003	5.86941E-001	5.79706E-001	-2.83592E-002	-3.87501E-002	6.81156E-001	-4.34062E-002	-5.86571E-003	4.45213E-004	-5.87423E-002	-5.80182E-002	2.83825E-003	3.87820E-003	-6.81716E-002	4.34419E-003
	1	2	1.89519E-001	-1.00083E-001	0.00000E+000	-1.89676E-002	-9.94000E-001	3.53495E-002	2.72442E+001	11	...........	5.87244E-002	-4.48792E-003	5.86883E-001	5.79608E-001	-2.83578E-002	-3.87585E-002	6.81244E-001	-4.33736E-002	-5.87732E-003	4.49164E-004	-5.87370E-002	-5.80090E-002	2.83813E-003	3.87906E-003	-6.81809E-002	4.34096E-003
	2	3	1.03189E-001	-1.00083E-001	0.00000E+000	-1.03275E-002	-9.94000E-001	3.52313E-002	2.65500E+001	11	...........	5.85432E-002	-4.48347E-003	5.86850E-001	5.79605E-001	-2.83565E-002	-3.87487E-002	6.81032E-001	-4.33032E-002	-5.85917E-003	4.48719E-004	-5.87336E-002	-5.80085E-002	2.83800E-003	3.87809E-003	-6.81597E-002	4.33391E-003
	3	3.16333	5.51833E-002	-1.00083E-001	0.00000E+000	-5.52290E-003	-9.94000E-001	3.52235E-002	2.59824E+001	11	...........	5.84524E-002	-4.47364E-003	5.86895E-001	5.79643E-001	-2.82406E-002	-3.87815E-002	6.81013E-001	-4.32355E-002	-5.85008E-003	4.47734E-004	-5.87381E-002	-5.80123E-002	2.82640E-003	3.88136E-003	-6.81577E-002	4.32713E-003
	4	4	4.94092E-002	-7.90971E-002	0.00000E+000	-3.90812E-003	-7.85340E-001	3.51244E-002	2.63011E+001	11	...........	5.87022E-002	-4.50747E-003	5.87042E-001	5.79617E-001	-2.83670E-002	-3.87405E-002	6.81016E-001	-4.33926E-002	-4.64317E-003	3.56528E-004	-4.64333E-002	-4.58460E-002	2.24375E-003	3.06426E-003	-5.38664E-002	3.43223E-003
	5	5	4.97277E-002	-5.31920E-002	0.00000E+000	-2.64512E-003	-5.27776E-001	3.54268E-002	2.71077E+001	11	...........	5.88726E-002	-4.68375E-003	5.87139E-001	5.79722E-001	-2.83417E-002	-3.87650E-002	6.81032E-001	-4.33853E-002	-3.13156E-003	2.49138E-004	-3.12311E-002	-3.08366E-002	1.50755E-003	2.06199E-003	-3.62255E-002	2.30775E-003
	6	6	4.98354E-002	-3.83661E-002	0.00000E+000	-1.91199E-003	-3.80363E-001	3.56250E-002	2.84358E+001	11	...........	5.91853E-002	-4.76153E-003	5.87098E-001	5.79757E-001	-2.83501E-002	-3.87651E-002	6.81086E-001	-4.35775E-002	-2.27071E-003	1.82681E-004	-2.25246E-002	-2.22430E-002	1.08768E-003	1.48727E-003	-2.61306E-002	1.67190E-003
	7	7	4.98976E-002	-2.95909E-002	0.00000E+000	-1.47651E-003	-2.93122E-001	3.56828E-002	2.88471E+001	11	...........	5.93201E-002	-4.70556E-003	5.87109E-001	5.79778E-001	-2.83499E-002	-3.87437E-002	6.81237E-001	-4.34989E-002	-1.75534E-003	1.39242E-004	-1.73731E-002	-1.71561E-002	8.38898E-004	1.14646E-003	-2.01584E-002	1.28717E-003
	8	8	4.99285E-002	-2.38800E-002	0.00000E+000	-1.19229E-003	-2.36333E-001	3.55124E-002	2.90715E+001	11	...........	5.89856E-002	-4.50014E-003	5.87041E-001	5.79808E-001	-2.83561E-002	-3.87229E-002	6.81150E-001	-4.32511E-002	-1.40857E-003	1.07463E-004	-1.40185E-002	-1.38458E-002	6.77143E-004	9.24702E-004	-1.62658E-002	1.03283E-003
	9	9	4.99418E-002	-2.04127E-002	0.00000E+000	-1.01945E-003	-2.01863E-001	3.57125E-002	2.93957E+001	11	...........	5.93542E-002	-4.49861E-003	5.87066E-001	5.79785E-001	-2.83824E-002	-3.87393E-002	6.81224E-001	-4.34404E-002	-1.21158E-003	9.18287E-005	-1.19836E-002	-1.18350E-002	5.79360E-004	7.90773E-004	-1.39056E-002	8.86735E-004
	10	10	4.99629E-002	-1.77714E-002	0.00000E+000	-8.87909E-004	-1.75597E-001	3.56942E-002	2.97387E+001	11	...........	5.93068E-002	-4.60167E-003	5.87017E-001	5.79855E-001	-2.83672E-002	-3.87562E-002	6.81130E-001	-4.34304E-002	-1.05396E-003	8.17779E-005	-1.04321E-002	-1.03048E-002	5.04124E-004	6.88752E-004	-1.21046E-002	7.71818E-004
	11	11	4.99613E-002	-1.60229E-002	0.00000E+000	-8.00527E-004	-1.58206E-001	3.56199E-002	2.98161E+001	11	...........	5.91858E-002	-4.63125E-003	5.86757E-001	5.79975E-001	-2.83493E-002	-3.87901E-002	6.81188E-001	-4.35589E-002	-9.48331E-004	7.42063E-005	-9.40157E-003	-9.29291E-003	4.54239E-004	6.21532E-004	-1.09146E-002	6.97942E-004
	12	12	4.99655E-002	-1.45618E-002	0.00000E+000	-7.27586E-004	-1.43671E-001	3.57217E-002	2.99104E+001	11	...........	5.93536E-002	-4.61583E-003	5.86751E-001	5.80057E-001	-2.83269E-002	-3.88044E-002	6.81333E-001	-4.35721E-002	-8.64294E-004	6.72148E-005	-8.54415E-003	-8.44667E-003	4.12491E-004	5.65062E-004	-9.92143E-003	6.34487E-004
	13	13	4.99706E-002	-1.34372E-002	0.00000E+000	-6.71465E-004	-1.32492E-001	3.57202E-002	2.99473E+001	11	...........	5.93436E-002	-4.59514E-003	5.86901E-001	5.79938E-001	-2.83296E-002	-3.87800E-002	6.81291E-001	-4.35171E-002	-7.97411E-004	6.17457E-005	-7.88629E-003	-7.79273E-003	3.80670E-004	5.21094E-004	-9.15463E-003	5.84747E-004
	14	14	4.99808E-002	-1.26766E-002	0.00000E+000	-6.33589E-004	-1.24931E-001	3.57427E-002	3.00813E+001	11	...........	5.93962E-002	-4.58486E-003	5.86910E-001	5.79872E-001	-2.83276E-002	-3.87947E-002	6.81238E-001	-4.34968E-002	-7.52945E-004	5.81207E-005	-7.44005E-003	-7.35083E-003	3.59099E-004	4.91787E-004	-8.63582E-003	5.51393E-004
	15	15	4.99792E-002	-1.19722E-002	0.00000E+000	-5.98360E-004	-1.17914E-001	3.57534E-002	3.02443E+001	11	...........	5.94294E-002	-4.52736E-003	5.87051E-001	5.79791E-001	-2.83335E-002	-3.87419E-002	6.81188E-001	-4.33842E-002	-7.11499E-004	5.42023E-005	-7.02827E-003	-6.94135E-003	3.39213E-004	4.63825E-004	-8.15530E-003	5.19403E-004
	16	16	4.99776E-002	-1.14312E-002	0.00000E+000	-5.71306E-004	-1.12551E-001	3.58323E-002	3.07479E+001	11	...........	5.95214E-002	-4.64458E-003	5.87152E-001	5.79635E-001	-2.83156E-002	-3.87746E-002	6.81112E-001	-4.33640E-002	-6.80402E-004	5.30933E-005	-6.71187E-003	-6.62594E-003	3.23681E-004	4.43241E-004	-7.78594E-003	4.95704E-004
	17	17	4.99801E-002	-1.09346E-002	0.00000E+000	-5.46513E-004	-1.07606E-001	3.57720E-002	3.04623E+001	11	...........	5.94124E-002	-4.66236E-003	5.87057E-001	5.79598E-001	-2.83044E-002	-3.87450E-002	6.81171E-001	-4.34785E-002	-6.49650E-004	5.09811E-005	-6.41923E-003	-6.33768E-003	3.09498E-004	4.23661E-004	-7.44834E-003	4.75420E-004
	18	18	4.99784E-002	-1.05324E-002	0.00000E+000	-5.26392E-004	-1.03605E-001	3.58761E-002	3.04870E+001	11	...........	5.95918E-002	-4.58347E-003	5.87123E-001	5.79648E-001	-2.83251E-002	-3.87411E-002	6.81210E-001	-4.35092E-002	-6.27644E-004	4.82749E-005	-6.18381E-003	-6.10507E-003	2.98331E-004	4.08036E-004	-7.17476E-003	4.58255E-004
	19	19	4.99841E-002	-1.01863E-002	0.00000E+000	-5.09155E-004	-1.00194E-001	3.57687E-002	3.07485E+001	11	...........	5.94401E-002	-4.58444E-003	5.87208E-001	5.79681E-001	-2.83335E-002	-3.87361E-002	6.81129E-001	-4.34240E-002	-6.05477E-004	4.66987E-005	-5.98150E-003	-5.90482E-003	2.88614E-004	3.94579E-004	-6.93821E-003	4.42332E-004
	20	20	4.99814E-002	-9.87651E-003	0.00000E+000	-4.93641E-004	-9.71140E-002	3.57195E-002	3.03971E+001	11	...........	5.94733E-002	-4.75792E-003	5.87361E-001	5.79705E-001	-2.83253E-002	-3.87983E-002	6.81090E-001	-4.35146E-002	-5.87389E-004	4.69916E-005	-5.80108E-003	-5.72546E-003	2.79755E-004	3.83192E-004	-6.72679E-003	4.29772E-004
	21	21	4.99837E-002	-9.56951E-003	0.00000E+000	-4.78319E-004	-9.40460E-002	3.56512E-002	3.06615E+001	11	...........	5.94789E-002	-4.78181E-003	5.87388E-001	5.79690E-001	-2.83217E-002	-3.87339E-002	6.81215E-001	-4.36006E-002	-5.69184E-004	4.57595E-005	-5.62101E-003	-5.54735E-003	2.71024E-004	3.70664E-004	-6.51889E-003	4.17236E-004
	22	22	4.99814E-002	-9.39323E-003	0.00000E+000	-4.69486E-004	-9.22913E-002	3.58372E-002	3.09207E+001	11	...........	5.97876E-002	-4.80292E-003	5.87472E-001	5.79567E-001	-2.82999E-002	-3.87214E-002	6.81279E-001	-4.37090E-002	-5.61599E-004	4.51149E-005	-5.51826E-003	-5.44401E-003	2.65827E-004	3.63719E-004	-6.39941E-003	4.10569E-004
	23	23	4.99892E-002	-9.13602E-003	0.00000E+000	-4.56702E-004	-8.97280E-002	3.55913E-002	3.09651E+001	11	...........	5.93907E-002	-4.88167E-003	5.87585E-001	5.79417E-001	-2.83036E-002	-3.87090E-002	6.81337E-001	-4.37235E-002	-5.42594E-004	4.45990E-005	-5.36819E-003	-5.29356E-003	2.58582E-004	3.53646E-004	-6.22471E-003	3.99458E-004
	24	24	4.99787E-002	-8.89270E-003	0.00000E+000	-4.44446E-004	-8.73200E-002	3.56387E-002	3.03922E+001	11	...........	5.94569E-002	-4.78431E-003	5.87602E-001	5.79435E-001	-2.83068E-002	-3.87153E-002	6.81304E-001	-4.36078E-002	-5.28733E-004	4.25454E-005	-5.22537E-003	-5.15274E-003	2.51724E-004	3.44283E-004	-6.05863E-003	3.87791E-004
	25	25	4.99827E-002	-8.64391E-003	0.00000E+000	-4.32045E-004	-8.48513E-002	3.58523E-002	3.00249E+001	11	...........	5.98333E-002	-4.77903E-003	5.87701E-001	5.79425E-001	-2.83257E-002	-3.87051E-002	6.81276E-001	-4.34737E-002	-5.17194E-004	4.13095E-005	-5.08003E-003	-5.00850E-003	2.44845E-004	3.34564E-004	-5.88889E-003	3.75783E-004
	26	26	4.99869E-002	-8.44905E-003	0.00000E+000	-4.22342E-004	-8.29107E-002	3.56238E-002	3.04908E+001	11	...........	5.94703E-002	-4.86028E-003	5.87748E-001	5.79412E-001	-2.83546E-002	-3.86975E-002	6.81282E-001	-4.36400E-002	-5.02467E-004	4.10647E-005	-4.96592E-003	-4.89548E-003	2.39569E-004	3.26957E-004	-5.75618E-003	3.68717E-004
	27	27	4.99821E-002	-8.33828E-003	0.00000E+000	-4.16765E-004	-8.18093E-002	3.58653E-002	3.06959E+001	11	...........	5.98417E-002	-4.81431E-003	5.87744E-001	5.79237E-001	-2.83586E-002	-3.87031E-002	6.81189E-001	-4.36436E-002	-4.98977E-004	4.01430E-005	-4.90077E-003	-4.82984E-003	2.36462E-004	3.22717E-004	-5.67994E-003	3.63913E-004
	28	28	4.99835E-002	-8.16584E-003	0.00000E+000	-4.08157E-004	-8.00953E-002	3.57273E-002	3.06601E+001	11	...........	5.96085E-002	-4.85181E-003	5.87753E-001	5.79221E-001	-2.83601E-002	-3.86994E-002	6.81148E-001	-4.36240E-002	-4.86753E-004	3.96190E-005	-4.79950E-003	-4.72983E-003	2.31584E-004	3.16013E-004	-5.56214E-003	3.56227E-004
	29	29	4.99846E-002	-8.02251E-003	0.00000E+000	-4.01002E-004	-7.86680E-002	3.57672E-002	3.03191E+001	11	...........	5.96772E-002	-4.83444E-003	5.87926E-001	5.79156E-001	-2.83600E-002	-3.87171E-002	6.81158E-001	-4.35626E-002	-4.78761E-004	3.87844E-005	-4.71665E-003	-4.64629E-003	2.27518E-004	3.10608E-004	-5.46460E-003	3.49482E-004
	30	30	4.99864E-002	-7.91212E-003	0.00000E+000	-3.95498E-004	-7.75693E-002	3.57931E-002	3.08165E+001	11	...........	5.97069E-002	-4.66403E-003	5.87946E-001	5.79322E-001	-2.83631E-002	-3.87001E-002	6.81222E-001	-4.36526E-002	-4.72409E-004	3.69024E-005	-4.65190E-003	-4.58367E-003	2.24412E-004	3.06200E-004	-5.38991E-003	3.45385E-004
	31	31	4.99828E-002	-7.72194E-003	0.00000E+000	-3.85964E-004	-7.56940E-002	3.57627E-002	3.05737E+001	11	...........	5.96753E-002	-4.52611E-003	5.87950E-001	5.79350E-001	-2.83760E-002	-3.87031E-002	6.81195E-001	-4.35296E-002	-4.60809E-004	3.49504E-005	-4.54012E-003	-4.47371E-003	2.19118E-004	2.98863E-004	-5.26015E-003	3.36133E-004
	32	32	4.99850E-002	-7.55421E-003	0.00000E+000	-3.77597E-004	-7.40253E-002	3.57828E-002	3.04175E+001	11	...........	5.96903E-002	-4.53208E-003	5.87887E-001	5.79361E-001	-2.84149E-002	-3.87047E-002	6.81283E-001	-4.34939E-002	-4.50913E-004	3.42363E-005	-4.44102E-003	-4.37661E-003	2.14652E-004	2.92384E-004	-5.14656E-003	3.28562E-004
	33	33	4.99833E-002	-7.48187E-003	0.00000E+000	-3.73968E-004	-7.33053E-002	3.58620E-002	3.09126E+001	11	...........	5.98271E-002	-4.75750E-003	5.87721E-001	5.79317E-001	-2.83894E-002	-3.87219E-002	6.81313E-001	-4.35154E-002	-4.47618E-004	3.55950E-005	-4.39725E-003	-4.33438E-003	2.12406E-004	2.89712E-004	-5.09749E-003	3.25577E-004
	34	34	4.99863E-002	-7.40814E-003	0.00000E+000	-3.70305E-004	-7.25687E-002	3.59490E-002	3.10037E+001	11	...........	6.00031E-002	-4.62111E-003	5.87827E-001	5.79390E-001	-2.83650E-002	-3.87157E-002	6.81157E-001	-4.36075E-002	-4.44511E-004	3.42338E-005	-4.35470E-003	-4.29220E-003	2.10132E-004	2.86811E-004	-5.04610E-003	3.23051E-004
	35	35	4.99847E-002	-7.22303E-003	0.00000E+000	-3.61041E-004	-7.07253E-002	3.57125E-002	3.03468E+001	11	...........	5.95800E-002	-4.54708E-003	5.87762E-001	5.79160E-001	-2.83518E-002	-3.87424E-002	6.81179E-001	-4.36672E-002	-4.30348E-004	3.28437E-005	-4.24542E-003	-4.18329E-003	2.04786E-004	2.79837E-004	-4.92017E-003	3.15410E-004
	36	36	4.99848E-002	-7.19278E-003	0.00000E+000	-3.59529E-004	-7.04233E-002	3.59065E-002	3.06095E+001	11	...........	5.99256E-002	-4.52319E-003	5.87622E-001	5.79247E-001	-2.83297E-002	-3.87399E-002	6.81176E-001	-4.35074E-002	-4.31031E-004	3.25343E-005	-4.22663E-003	-4.16639E-003	2.03769E-004	2.78647E-004	-4.89954E-003	3.12939E-004
	37	37	4.99830E-002	-7.04430E-003	0.00000E+000	-3.52095E-004	-6.89413E-002	3.57962E-002	3.10545E+001	11	...........	5.97526E-002	-4.46083E-003	5.87586E-001	5.79305E-001	-2.83268E-002	-3.87572E-002	6.81229E-001	-4.34614E-002	-4.20916E-004	3.14234E-005	-4.13913E-003	-4.08080E-003	1.99543E-004	2.73018E-004	-4.79878E-003	3.06155E-004
	38	38	4.99848E-002	-6.92447E-003	0.00000E+000	-3.46118E-004	-6.77420E-002	3.58314E-002	3.06828E+001	11	...........	5.97989E-002	-4.47292E-003	5.87686E-001	5.79533E-001	-2.83614E-002	-3.87683E-002	6.81285E-001	-4.35117E-002	-4.14075E-004	3.09726E-005	-4.06941E-003	-4.01296E-003	1.96387E-004	2.68450E-004	-4.71753E-003	3.01295E-004
	39	39	4.99881E-002	-6.85721E-003	0.00000E+000	-3.42779E-004	-6.70693E-002	3.59234E-002	3.10214E+001	11	...........	5.99337E-002	-4.43278E-003	5.87712E-001	5.79540E-001	-2.83535E-002	-3.87892E-002	6.81430E-001	-4.35347E-002	-4.10978E-004	3.03965E-005	-4.03007E-003	-3.97402E-003	1.94426E-004	2.65985E-004	-4.67271E-003	2.98527E-004
	40	40	4.99837E-002	-6.74110E-003	0.00000E+000	-3.36945E-004	-6.59113E-002	3.57580E-002	3.05849E+001	11	...........	5.96325E-002	-4.45958E-003	5.87562E-001	5.79549E-001	-2.83647E-002	-3.88218E-002	6.81421E-001	-4.35569E-002	-4.01989E-004	3.00625E-005	-3.96081E-003	-3.90680E-003	1.91209E-004	2.61702E-004	-4.59353E-003	2.93622E-004
	41	41	4.99838E-002	-6.60355E-003	0.00000E+000	-3.30070E-004	-6.45373E-002	3.57968E-002	3.09674E+001	11	...........	5.97400E-002	-4.52806E-003	5.87393E-001	5.79632E-001	-2.83597E-002	-3.87883E-002	6.81304E-001	-4.35421E-002	-3.94496E-004	2.99012E-005	-3.87888E-003	-3.82763E-003	1.87275E-004	2.56141E-004	-4.49902E-003	2.87532E-004
	42	42	4.99859E-002	-6.57200E-003	0.00000E+000	-3.28507E-004	-6.42253E-002	3.58846E-002	3.12311E+001	11	...........	5.98774E-002	-4.70097E-003	5.87373E-001	5.79571E-001	-2.83637E-002	-3.88150E-002	6.81315E-001	-4.35631E-002	-3.93514E-004	3.08948E-005	-3.86022E-003	-3.80894E-003	1.86407E-004	2.55092E-004	-4.47760E-003	2.86296E-004
	43	43	4.99838E-002	-6.41489E-003	0.00000E+000	-3.20641E-004	-6.26800E-002	3.58015E-002	3.08501E+001	11	...........	5.97664E-002	-4.60222E-003	5.87525E-001	5.79634E-001	-2.83596E-002	-3.88247E-002	6.81392E-001	-4.35712E-002	-3.83395E-004	2.95228E-005	-3.76891E-003	-3.71829E-003	1.81924E-004	2.49056E-004	-4.37105E-003	2.79505E-004
	44	44	4.99873E-002	-6.41431E-003	0.00000E+000	-3.20634E-004	-6.26740E-002	3.58575E-002	3.09760E+001	11	...........	5.98537E-002	-4.56194E-003	5.87530E-001	5.79421E-001	-2.83794E-002	-3.87803E-002	6.81263E-001	-4.35707E-002	-3.83920E-004	2.92617E-005	-3.76860E-003	-3.71658E-003	1.82035E-004	2.48749E-004	-4.36983E-003	2.79476E-004
	45	45	4.99830E-002	-6.26497E-003	0.00000E+000	-3.13142E-004	-6.12007E-002	3.59257E-002	3.11464E+001	11	...........	5.99587E-002	-4.42097E-003	5.87642E-001	5.79202E-001	-2.83757E-002	-3.87778E-002	6.81238E-001	-4.36849E-002	-3.75640E-004	2.76973E-005	-3.68156E-003	-3.62868E-003	1.77773E-004	2.42942E-004	-4.26794E-003	2.73684E-004
	46	46	4.99866E-002	-6.17751E-003	0.00000E+000	-3.08793E-004	-6.03247E-002	3.58690E-002	3.06383E+001	11	...........	5.98661E-002	-4.36972E-003	5.87723E-001	5.79300E-001	-2.83721E-002	-3.88064E-002	6.81215E-001	-4.36667E-002	-3.69824E-004	2.69940E-005	-3.63066E-003	-3.57863E-003	1.75269E-004	2.39727E-004	-4.20821E-003	2.69751E-004
	47	47	4.99844E-002	-6.10192E-003	0.00000E+000	-3.05001E-004	-5.95767E-002	3.58457E-002	3.12264E+001	11	...........	5.98337E-002	-4.39278E-003	5.87706E-001	5.79431E-001	-2.83708E-002	-3.88137E-002	6.81241E-001	-4.36372E-002	-3.65101E-004	2.68044E-005	-3.58614E-003	-3.53564E-003	1.73117E-004	2.36839E-004	-4.15688E-003	2.66271E-004
	48	48	4.99864E-002	-6.03387E-003	0.00000E+000	-3.01611E-004	-5.88953E-002	3.59486E-002	3.08890E+001	11	...........	5.99919E-002	-4.43167E-003	5.87616E-001	5.79323E-001	-2.83768E-002	-3.87956E-002	6.81243E-001	-4.36064E-002	-3.61983E-004	2.67401E-005	-3.54560E-003	-3.49556E-003	1.71222E-004	2.34087E-004	-4.11053E-003	2.63115E-004
	49	49	4.99847E-002	-5.94055E-003	0.00000E+000	-2.96937E-004	-5.79653E-002	3.58428E-002	3.08478E+001	11	...........	5.98008E-002	-4.64028E-003	5.87684E-001	5.79354E-001	-2.83799E-002	-3.87629E-002	6.81313E-001	-4.34006E-002	-3.55250E-004	2.75658E-005	-3.49117E-003	-3.44168E-003	1.68592E-004	2.30273E-004	-4.04738E-003	2.57823E-004
	50	50	4.99858E-002	-5.89898E-003	0.00000E+000	-2.94865E-004	-5.75473E-002	3.58818E-002	3.16349E+001	11	...........	5.99026E-002	-4.66306E-003	5.87785E-001	5.79378E-001	-2.83885E-002	-3.87689E-002	6.81274E-001	-4.36172E-002	-3.53365E-004	2.75073E-005	-3.46734E-003	-3.41774E-003	1.67463E-004	2.28697E-004	-4.01882E-003	2.57297E-004
	51	51	4.99843E-002	-5.83615E-003	0.00000E+000	-2.91716E-004	-5.69213E-002	3.60327E-002	3.12525E+001	11	...........	6.01574E-002	-4.59014E-003	5.87656E-001	5.79530E-001	-2.83728E-002	-3.87756E-002	6.81175E-001	-4.36617E-002	-3.51087E-004	2.67887E-005	-3.42964E-003	-3.38222E-003	1.65588E-004	2.26300E-004	-3.97544E-003	2.54816E-004
	52	52	4.99860E-002	-5.75253E-003	0.00000E+000	-2.87546E-004	-5.60927E-002	3.59244E-002	3.12998E+001	11	...........	5.99679E-002	-4.56014E-003	5.87657E-001	5.79540E-001	-2.83547E-002	-3.87781E-002	6.81216E-001	-4.35501E-002	-3.44967E-004	2.62324E-005	-3.38052E-003	-3.33382E-003	1.63112E-004	2.23072E-004	-3.91872E-003	2.50524E-004
	53	53	4.99848E-002	-5.70662E-003	0.00000E+000	-2.85244E-004	-5.56373E-002	3.58920E-002	3.12466E+001	11	...........	5.98835E-002	-4.57125E-003	5.87755E-001	5.79574E-001	-2.83526E-002	-3.88262E-002	6.81147E-001	-4.34717E-002	-3.41732E-004	2.60864E-005	-3.35409E-003	-3.30740E-003	1.61798E-004	2.21566E-004	-3.88705E-003	2.48076E-004
	54	54	4.99860E-002	-5.60962E-003	0.00000E+000	-2.80403E-004	-5.46693E-002	3.59335E-002	3.08295E+001	11	...........	5.99614E-002	-4.55181E-003	5.87882E-001	5.79563E-001	-2.83247E-002	-3.87960E-002	6.81208E-001	-4.33396E-002	-3.36361E-004	2.55339E-005	-3.29780E-003	-3.25113E-003	1.58891E-004	2.17631E-004	-3.82132E-003	2.43119E-004
	55	55	4.99852E-002	-5.53234E-003	0.00000E+000	-2.76535E-004	-5.38993E-002	3.58252E-002	3.09093E+001	11	...........	5.97831E-002	-4.54167E-003	5.87748E-001	5.79509E-001	-2.83117E-002	-3.87521E-002	6.81135E-001	-4.31443E-002	-3.30740E-004	2.51260E-005	-3.25162E-003	-3.20604E-003	1.56630E-004	2.14390E-004	-3.76827E-003	2.38689E-004
	56	56	4.99857E-002	-5.51075E-003	0.00000E+000	-2.75458E-004	-5.36860E-002	3.60864E-002	3.15343E+001	11	...........	6.02325E-002	-4.71389E-003	5.87842E-001	5.79571E-001	-2.83086E-002	-3.87425E-002	6.81250E-001	-4.32018E-002	-3.31926E-004	2.59770E-005	-3.23945E-003	-3.19387E-003	1.56002E-004	2.13500E-004	-3.75420E-003	2.38074E-004
	57	57	4.99853E-002	-5.43747E-003	0.00000E+000	-2.71794E-004	-5.29580E-002	3.58991E-002	3.13762E+001	11	...........	5.99104E-002	-4.74625E-003	5.88048E-001	5.79630E-001	-2.83414E-002	-3.87317E-002	6.81266E-001	-4.32657E-002	-3.25761E-004	2.58076E-005	-3.19749E-003	-3.15172E-003	1.54105E-004	2.10602E-004	-3.70436E-003	2.35256E-004
	58	58	4.99856E-002	-5.33891E-003	0.00000E+000	-2.66869E-004	-5.19753E-002	3.59078E-002	3.09974E+001	11	...........	5.99317E-002	-4.69069E-003	5.88017E-001	5.79744E-001	-2.83557E-002	-3.87010E-002	6.81255E-001	-4.34544E-002	-3.19970E-004	2.50432E-005	-3.13937E-003	-3.09520E-003	1.51389E-004	2.06621E-004	-3.63716E-003	2.32000E-004
	59	59	4.99849E-002	-5.31299E-003	0.00000E+000	-2.65570E-004	-5.17187E-002	3.59426E-002	3.19055E+001	11	...........	5.99924E-002	-4.56569E-003	5.88004E-001	5.79863E-001	-2.83472E-002	-3.86946E-002	6.81215E-001	-4.33836E-002	-3.18739E-004	2.42575E-005	-3.12406E-003	-3.08081E-003	1.50609E-004	2.05584E-004	-3.61929E-003	2.30497E-004
	60	60	4.99859E-002	-5.23496E-003	0.00000E+000	-2.61674E-004	-5.09493E-002	3.59154E-002	3.11174E+001	11	...........	5.99436E-002	-4.50847E-003	5.87992E-001	5.80067E-001	-2.83453E-002	-3.87137E-002	6.81205E-001	-4.35031E-002	-3.13802E-004	2.36017E-005	-3.07812E-003	-3.03663E-003	1.48386E-004	2.02665E-004	-3.56608E-003	2.27737E-004
	61	61	4.99846E-002	-5.20635E-003	0.00000E+000	-2.60238E-004	-5.06727E-002	3.59472E-002	3.11639E+001	11	...........	6.00158E-002	-4.41611E-003	5.87911E-001	5.80162E-001	-2.83419E-002	-3.87360E-002	6.81152E-001	-4.35344E-002	-3.12464E-004	2.29918E-005	-3.06087E-003	-3.02053E-003	1.47558E-004	2.01673E-004	-3.54631E-003	2.26656E-004
	62	61.9117	4.99849E-002	-5.14731E-003	0.00000E+000	-2.57287E-004	-5.00925E-002	3.61193E-002	3.11535E+001	11	...........	6.02383E-002	-4.48065E-003	5.87995E-001	5.80158E-001	-2.83704E-002	-3.87631E-002	6.81205E-001	-4.34365E-002	-3.10065E-004	2.30633E-005	-3.02659E-003	-2.98625E-003	1.46031E-004	1.99526E-004	-3.50637E-003	2.23581E-004
STARTTIMEOFFSET	QUANT	877842	Start Time Offset (s)
