EXPLAIN
TAG	PWR800_DISCHARGE
TITLE	LABEL	PWR Discharge	Test Identifier
DATE	LABEL	10/13/2022	Date
TIME	LABEL	5:26:33	Time
NOTES	NOTES	1	Notes...
	
PSTAT	PSTAT	REF3000-21114	Potentiostat
CAPACITY	QUANT	5.30000E-002	Capacity (A-hr)
CELLTYPE	SELECTOR	1	Cell Type
WORKINGCONNECTION	SELECTOR	0	Working Connection
MAXDISCHARGETIME	VARIABLEANDUNITS	7.20000E+003	s	2.00000E+000	hour(s)	Max Discharge Time
DISCHARGEMODE	MULTIPARAM	0	1.00000E-001	Discharge Mode	Constant Current	Amp(s)
VOLTAGEFINISH	TWOPARAM	T	5.00000E-003	7.20000E+003	Voltage Finish	I (A) <	Max Time(s)
SAMPLETIME	QUANT	1.00000E+000	Sample Period (s)
DISCHARGESTOPAT1	MULTIPARAM	1	5.00000E-002	Stop At 1	|Voltage| < Limit	V
DISCHARGESTOPAT2	MULTIPARAM	0	0.00000E+000	Stop At 2	None	N/A
AESELECTOR	AESELECTOR	0x1	T	Set Limits	AE Channels
AESBHCSELECTOR	TOGGLE	F	Save Both Half Cells
IRCOMP	TOGGLE	F	IR Measure
EOC	QUANT	0.5388879	Open Circuit (V)
SEQUENCER	TOGGLE	TRUE	Run as Sequence
PSTATMODEL	IQUANT	5	Pstat Model
PSTATSECTION	LABEL	REF3000-21114	Pstat Section
PSTATSERIALNO	LABEL	21114	Pstat Serial Number
CTRLMODE	IQUANT	0	Control Mode
ELECTROMETER	IQUANT	0	RE=0 or CS=1
IESTAB	IQUANT	0	I/E Stability
CASPEED	IQUANT	4	Control Amp Speed
CONVENTION	IQUANT	1	Current Convention
ICHRANGE	IQUANT	2	Ich Range
ICHRANGEMODE	TOGGLE	T	Ich Auto Range
ICHOFFSETENABLE	TOGGLE	F	Ich Offset Enable
ICHOFFSET	QUANT	0	Ich Offset (V)
ICHFILTER	IQUANT	1	Ich Filter
VCHRANGE	IQUANT	3	Vch Range
VCHRANGEMODE	TOGGLE	T	Vch Auto Range
VCHOFFSETENABLE	TOGGLE	F	Vch Offset Enable
VCHOFFSET	QUANT	0	Vch Offset (V)
VCHFILTER	IQUANT	1	Vch Filter
ACHRANGE	IQUANT	2	Ach Range
ACHOFFSETENABLE	TOGGLE	F	Ach Offset Enable
ACHOFFSET	QUANT	0	Ach Offset (V)
ACHFILTER	IQUANT	1	Ach Filter
IERANGELOWERLIMIT	IQUANT	9	I/E Range Lower Limit
IERANGEMODE	TOGGLE	F	I/E AutoRange
IERANGE	IQUANT	9	I/E Range
POSFEEDENABLE	TOGGLE	F	Positive Feedback IR Comp
POSFEEDRESISTANCE	QUANT	0	Positive Feedback Resistance (ohm)
ACHSELECT	IQUANT	1	Ach Select
SENSECABLEID	IQUANT	13	Sense Cable ID
PWRCABLEID	IQUANT	13	Power Cable ID
DCCALDATE	LABEL		DC Calibration Date
ACCALDATE	LABEL		AC Calibration Date
THERMOSELECT	IQUANT	1	Thermo Select
FRAMEWORKVERSION	LABEL	7.8.6	Framework Version
INSTRUMENTVERSION	LABEL	4.50	Instrument Version
COMPLIANCEVOLTAGE	IQUANT	0	Compliance Voltage
CURVE	TABLE	179
	Pt	T	Vf	Im	Vu	Pwr	Sig	Ach	Temp	IERange	Over	Vf1	Vf2	Vf3	Vf4	Vf5	Vf6	Vf7	Vf8	Pwr1	Pwr2	Pwr3	Pwr4	Pwr5	Pwr6	Pwr7	Pwr8
	#	s	V	A	V	W	V	V	deg C	#	bits	V	V	V	V	V	V	V	V	W	W	W	W	W	W	W	W
	0	1	3.20347E-001	-1.00100E-001	0.00000E+000	-3.20668E-002	-9.94000E-001	3.85564E-002	3.03943E+001	11	...........	6.38575E-002	-5.05750E-003	5.93121E-001	5.58512E-001	-2.80650E-002	-3.89874E-002	6.89511E-001	-4.39900E-002	-6.39216E-003	5.06258E-004	-5.93716E-002	-5.59073E-002	2.80932E-003	3.90265E-003	-6.90203E-002	4.40342E-003
	1	2	2.34467E-001	-1.00100E-001	0.00000E+000	-2.34703E-002	-9.94000E-001	3.85692E-002	2.96508E+001	11	...........	6.39156E-002	-5.06972E-003	5.92952E-001	5.58499E-001	-2.80526E-002	-3.89940E-002	6.89604E-001	-4.41068E-002	-6.39798E-003	5.07482E-004	-5.93547E-002	-5.59060E-002	2.80808E-003	3.90332E-003	-6.90297E-002	4.41511E-003
	2	3	1.63382E-001	-1.00101E-001	0.00000E+000	-1.63547E-002	-9.94000E-001	3.85024E-002	2.89754E+001	11	...........	6.37906E-002	-4.96861E-003	5.92885E-001	5.58514E-001	-2.80562E-002	-3.89739E-002	6.89658E-001	-4.41553E-002	-6.38549E-003	4.97363E-004	-5.93483E-002	-5.59078E-002	2.80846E-003	3.90132E-003	-6.90354E-002	4.41999E-003
	3	4	1.03475E-001	-1.00101E-001	0.00000E+000	-1.03579E-002	-9.94000E-001	3.84622E-002	2.84641E+001	11	...........	6.37188E-002	-5.11514E-003	5.92911E-001	5.58634E-001	-2.80185E-002	-3.89893E-002	6.89683E-001	-4.39562E-002	-6.37828E-003	5.12028E-004	-5.93507E-002	-5.59196E-002	2.80466E-003	3.90285E-003	-6.90376E-002	4.40005E-003
	4	4.56167	6.31950E-002	-1.00101E-001	0.00000E+000	-6.32587E-003	-9.94000E-001	3.84340E-002	2.81918E+001	11	...........	6.36902E-002	-5.14466E-003	5.92974E-001	5.58717E-001	-2.80593E-002	-3.89817E-002	6.89763E-001	-4.40279E-002	-6.37543E-003	5.14984E-004	-5.93572E-002	-5.59280E-002	2.80876E-003	3.90210E-003	-6.90458E-002	4.40723E-003
	5	5	4.95712E-002	-9.20541E-002	0.00000E+000	-4.56323E-003	-9.13982E-001	3.85589E-002	2.84098E+001	11	...........	6.39037E-002	-5.16572E-003	5.93020E-001	5.58700E-001	-2.80079E-002	-3.89861E-002	6.89697E-001	-4.39899E-002	-5.88260E-003	4.75525E-004	-5.45899E-002	-5.14306E-002	2.57824E-003	3.58883E-003	-6.34895E-002	4.04945E-003
	6	6	4.97635E-002	-7.53620E-002	0.00000E+000	-3.75028E-003	-7.48025E-001	3.86591E-002	2.91407E+001	11	...........	6.40868E-002	-5.20208E-003	5.93143E-001	5.58618E-001	-2.80204E-002	-3.89612E-002	6.89725E-001	-4.39699E-002	-4.82971E-003	3.92039E-004	-4.47004E-002	-4.20986E-002	2.11167E-003	2.93620E-003	-5.19790E-002	3.31365E-003
	7	7	4.98657E-002	-6.27397E-002	0.00000E+000	-3.12856E-003	-6.22537E-001	3.87470E-002	2.97744E+001	11	...........	6.42101E-002	-5.14694E-003	5.93287E-001	5.58653E-001	-2.80518E-002	-3.89583E-002	6.89754E-001	-4.39362E-002	-4.02853E-003	3.22918E-004	-3.72227E-002	-3.50497E-002	1.75996E-003	2.44424E-003	-4.32750E-002	2.75655E-003
	8	8	4.99083E-002	-5.56006E-002	0.00000E+000	-2.77493E-003	-5.51544E-001	3.88109E-002	3.02076E+001	11	...........	6.43542E-002	-5.09097E-003	5.93387E-001	5.58612E-001	-2.80676E-002	-3.89739E-002	6.89767E-001	-4.40347E-002	-3.57813E-003	2.83061E-004	-3.29927E-002	-3.10592E-002	1.56058E-003	2.16697E-003	-3.83515E-002	2.44836E-003
	9	9	4.99331E-002	-5.10550E-002	0.00000E+000	-2.54933E-003	-5.06366E-001	3.89049E-002	3.05065E+001	11	...........	6.44761E-002	-5.05500E-003	5.93390E-001	5.58531E-001	-2.80614E-002	-3.89968E-002	6.89772E-001	-4.40449E-002	-3.29183E-003	2.58083E-004	-3.02956E-002	-2.85158E-002	1.43268E-003	1.99098E-003	-3.52163E-002	2.24871E-003
	10	10	4.99455E-002	-4.79929E-002	0.00000E+000	-2.39703E-003	-4.75923E-001	3.89695E-002	3.07171E+001	11	...........	6.45896E-002	-5.10139E-003	5.93539E-001	5.58446E-001	-2.80179E-002	-3.89857E-002	6.89699E-001	-4.39710E-002	-3.09984E-003	2.44830E-004	-2.84856E-002	-2.68014E-002	1.34466E-003	1.87104E-003	-3.31007E-002	2.11029E-003
	11	11	4.99533E-002	-4.56953E-002	0.00000E+000	-2.28263E-003	-4.53070E-001	3.90347E-002	3.08890E+001	11	...........	6.46880E-002	-5.11861E-003	5.93464E-001	5.58489E-001	-2.80035E-002	-3.89844E-002	6.89848E-001	-4.39867E-002	-2.95594E-003	2.33896E-004	-2.71185E-002	-2.55203E-002	1.27963E-003	1.78140E-003	-3.15228E-002	2.00998E-003
	12	12	4.99594E-002	-4.39700E-002	0.00000E+000	-2.19672E-003	-4.35915E-001	3.90837E-002	3.10287E+001	11	...........	6.47812E-002	-5.11028E-003	5.93374E-001	5.58317E-001	-2.80079E-002	-3.89939E-002	6.89872E-001	-4.40789E-002	-2.84843E-003	2.24699E-004	-2.60907E-002	-2.45492E-002	1.23151E-003	1.71456E-003	-3.03337E-002	1.93815E-003
	13	13	4.99616E-002	-4.25414E-002	0.00000E+000	-2.12544E-003	-4.21708E-001	3.91438E-002	3.11510E+001	11	...........	6.48661E-002	-5.13639E-003	5.93505E-001	5.58218E-001	-2.79758E-002	-3.90122E-002	6.89914E-001	-4.40561E-002	-2.75949E-003	2.18509E-004	-2.52485E-002	-2.37473E-002	1.19013E-003	1.65963E-003	-2.93499E-002	1.87421E-003
	14	14	4.99639E-002	-4.13924E-002	0.00000E+000	-2.06812E-003	-4.10291E-001	3.92099E-002	3.12458E+001	11	...........	6.49635E-002	-5.15000E-003	5.93497E-001	5.58150E-001	-2.79921E-002	-3.90190E-002	6.89813E-001	-4.40389E-002	-2.68899E-003	2.13171E-004	-2.45663E-002	-2.31031E-002	1.15866E-003	1.61509E-003	-2.85530E-002	1.82287E-003
	15	15	4.99676E-002	-4.04214E-002	0.00000E+000	-2.01976E-003	-4.00642E-001	3.92527E-002	3.13353E+001	11	...........	6.50604E-002	-5.15319E-003	5.93623E-001	5.58230E-001	-2.80126E-002	-3.89950E-002	6.89795E-001	-4.39387E-002	-2.62983E-003	2.08299E-004	-2.39950E-002	-2.25644E-002	1.13231E-003	1.57623E-003	-2.78825E-002	1.77606E-003
	16	16	4.99677E-002	-3.96317E-002	0.00000E+000	-1.98030E-003	-3.92801E-001	3.92898E-002	3.13948E+001	11	...........	6.51367E-002	-5.20514E-003	5.93635E-001	5.58065E-001	-2.80067E-002	-3.89654E-002	6.89717E-001	-4.40303E-002	-2.58148E-003	2.06288E-004	-2.35267E-002	-2.21170E-002	1.10995E-003	1.54426E-003	-2.73347E-002	1.74499E-003
	17	17	4.99683E-002	-3.88496E-002	0.00000E+000	-1.94125E-003	-3.85025E-001	3.93449E-002	3.14752E+001	11	...........	6.52224E-002	-5.14514E-003	5.93688E-001	5.58029E-001	-2.79928E-002	-3.89640E-002	6.89630E-001	-4.39635E-002	-2.53387E-003	1.99887E-004	-2.30646E-002	-2.16792E-002	1.08751E-003	1.51374E-003	-2.67919E-002	1.70797E-003
	18	18	4.99702E-002	-3.81603E-002	0.00000E+000	-1.90687E-003	-3.78168E-001	3.93916E-002	3.15619E+001	11	...........	6.52912E-002	-5.15278E-003	5.93573E-001	5.57949E-001	-2.79903E-002	-3.89544E-002	6.89577E-001	-4.38853E-002	-2.49153E-003	1.96631E-004	-2.26509E-002	-2.12915E-002	1.06812E-003	1.48651E-003	-2.63144E-002	1.67467E-003
	19	19	4.99695E-002	-3.75465E-002	0.00000E+000	-1.87618E-003	-3.72056E-001	3.94461E-002	3.16325E+001	11	...........	6.53717E-002	-5.26167E-003	5.93407E-001	5.57917E-001	-2.79885E-002	-3.89639E-002	6.89590E-001	-4.38597E-002	-2.45448E-003	1.97557E-004	-2.22804E-002	-2.09478E-002	1.05087E-003	1.46296E-003	-2.58917E-002	1.64678E-003
	20	20	4.99697E-002	-3.68425E-002	0.00000E+000	-1.84101E-003	-3.65060E-001	3.93577E-002	3.17140E+001	11	...........	6.54356E-002	-5.25681E-003	5.93459E-001	5.57847E-001	-2.79964E-002	-3.89621E-002	6.89680E-001	-4.40963E-002	-2.41081E-003	1.93674E-004	-2.18645E-002	-2.05525E-002	1.03146E-003	1.43546E-003	-2.54095E-002	1.62462E-003
	21	21	4.99708E-002	-3.62625E-002	0.00000E+000	-1.81207E-003	-3.59289E-001	3.93234E-002	3.17637E+001	11	...........	6.55050E-002	-5.28361E-003	5.93704E-001	5.57931E-001	-2.80331E-002	-3.89336E-002	6.89789E-001	-4.39474E-002	-2.37538E-003	1.91597E-004	-2.15292E-002	-2.02320E-002	1.01655E-003	1.41183E-003	-2.50135E-002	1.59364E-003
	22	22	4.99706E-002	-3.57314E-002	0.00000E+000	-1.78552E-003	-3.54002E-001	3.93659E-002	3.17947E+001	11	...........	6.55731E-002	-5.27667E-003	5.93832E-001	5.58010E-001	-2.80440E-002	-3.89456E-002	6.89795E-001	-4.40079E-002	-2.34302E-003	1.88543E-004	-2.12184E-002	-1.99385E-002	1.00205E-003	1.39158E-003	-2.46473E-002	1.57246E-003
	23	23	4.99697E-002	-3.51301E-002	0.00000E+000	-1.75544E-003	-3.48009E-001	3.94110E-002	3.18468E+001	11	...........	6.56571E-002	-5.22931E-003	5.93804E-001	5.58015E-001	-2.80418E-002	-3.89542E-002	6.89884E-001	-4.40725E-002	-2.30654E-003	1.83706E-004	-2.08604E-002	-1.96031E-002	9.85110E-004	1.36846E-003	-2.42356E-002	1.54827E-003
	24	24	4.99728E-002	-3.46507E-002	0.00000E+000	-1.73159E-003	-3.43259E-001	3.94468E-002	3.18989E+001	11	...........	6.57283E-002	-5.14472E-003	5.93769E-001	5.58101E-001	-2.80546E-002	-3.89678E-002	6.89847E-001	-4.40479E-002	-2.27753E-003	1.78268E-004	-2.05745E-002	-1.93386E-002	9.72110E-004	1.35026E-003	-2.39037E-002	1.52629E-003
	25	25	4.99718E-002	-3.42118E-002	0.00000E+000	-1.70962E-003	-3.38894E-001	3.94915E-002	3.19418E+001	11	...........	6.57949E-002	-5.20208E-003	5.93746E-001	5.58141E-001	-2.80246E-002	-3.89700E-002	6.89985E-001	-4.40957E-002	-2.25096E-003	1.77972E-004	-2.03131E-002	-1.90950E-002	9.58770E-004	1.33323E-003	-2.36056E-002	1.50859E-003
	26	26	4.99704E-002	-3.36894E-002	0.00000E+000	-1.68347E-003	-3.33700E-001	3.95332E-002	3.19842E+001	11	...........	6.58590E-002	-5.13819E-003	5.93549E-001	5.58093E-001	-2.79983E-002	-3.89971E-002	6.90019E-001	-4.39396E-002	-2.21875E-003	1.73103E-004	-1.99963E-002	-1.88019E-002	9.43248E-004	1.31379E-003	-2.32464E-002	1.48030E-003
	27	27	4.99729E-002	-3.31643E-002	0.00000E+000	-1.65732E-003	-3.28479E-001	3.95686E-002	3.20260E+001	11	...........	6.59304E-002	-5.21806E-003	5.93507E-001	5.58109E-001	-2.79929E-002	-3.89942E-002	6.90125E-001	-4.39110E-002	-2.18653E-003	1.73053E-004	-1.96832E-002	-1.85093E-002	9.28365E-004	1.29321E-003	-2.28875E-002	1.45628E-003
	28	28	4.99719E-002	-3.27674E-002	0.00000E+000	-1.63745E-003	-3.24528E-001	3.96282E-002	3.20474E+001	11	...........	6.60317E-002	-5.06583E-003	5.93514E-001	5.57953E-001	-2.79975E-002	-3.90124E-002	6.90093E-001	-4.39056E-002	-2.16369E-003	1.65994E-004	-1.94479E-002	-1.82827E-002	9.17406E-004	1.27833E-003	-2.26126E-002	1.43867E-003
	29	29	4.99709E-002	-3.22661E-002	0.00000E+000	-1.61236E-003	-3.19538E-001	3.96534E-002	3.20529E+001	11	...........	6.60607E-002	-5.12431E-003	5.93540E-001	5.57836E-001	-2.79897E-002	-3.90612E-002	6.90136E-001	-4.40542E-002	-2.13152E-003	1.65341E-004	-1.91512E-002	-1.79992E-002	9.03118E-004	1.26035E-003	-2.22680E-002	1.42145E-003
	30	30	4.99731E-002	-3.17835E-002	0.00000E+000	-1.58832E-003	-3.14745E-001	3.96858E-002	3.21184E+001	11	...........	6.61114E-002	-5.09306E-003	5.93663E-001	5.57801E-001	-2.79828E-002	-3.90411E-002	6.90164E-001	-4.41122E-002	-2.10125E-003	1.61875E-004	-1.88687E-002	-1.77288E-002	8.89390E-004	1.24086E-003	-2.19358E-002	1.40204E-003
	31	31	4.99729E-002	-3.14637E-002	0.00000E+000	-1.57233E-003	-3.11559E-001	3.97137E-002	3.21966E+001	11	...........	6.61615E-002	-5.22903E-003	5.93596E-001	5.57968E-001	-2.79910E-002	-3.90196E-002	6.90202E-001	-4.40328E-002	-2.08168E-003	1.64524E-004	-1.86767E-002	-1.75557E-002	8.80698E-004	1.22770E-003	-2.17163E-002	1.38543E-003
	32	32	4.99708E-002	-3.10229E-002	0.00000E+000	-1.55024E-003	-3.07199E-001	3.97491E-002	3.22286E+001	11	...........	6.62232E-002	-5.21319E-003	5.93604E-001	5.58010E-001	-2.79604E-002	-3.90039E-002	6.90120E-001	-4.39915E-002	-2.05443E-003	1.61728E-004	-1.84153E-002	-1.73111E-002	8.67412E-004	1.21001E-003	-2.14095E-002	1.36474E-003
	33	33	4.99728E-002	-3.05292E-002	0.00000E+000	-1.52563E-003	-3.02304E-001	3.97833E-002	3.22800E+001	11	...........	6.62794E-002	-5.14097E-003	5.93544E-001	5.58073E-001	-2.79558E-002	-3.90021E-002	6.90163E-001	-4.40279E-002	-2.02346E-003	1.56950E-004	-1.81205E-002	-1.70375E-002	8.53470E-004	1.19070E-003	-2.10702E-002	1.34414E-003
	34	34	4.99725E-002	-3.01411E-002	0.00000E+000	-1.50623E-003	-2.98436E-001	3.98184E-002	3.23007E+001	11	...........	6.63394E-002	-5.08458E-003	5.93491E-001	5.58161E-001	-2.79887E-002	-3.89985E-002	6.90103E-001	-4.39378E-002	-1.99955E-003	1.53255E-004	-1.78885E-002	-1.68236E-002	8.43612E-004	1.17546E-003	-2.08005E-002	1.32433E-003
	35	35	4.99727E-002	-2.96827E-002	0.00000E+000	-1.48332E-003	-2.93876E-001	3.98548E-002	3.23516E+001	11	...........	6.63975E-002	-5.08306E-003	5.93270E-001	5.58238E-001	-2.79962E-002	-3.90147E-002	6.90257E-001	-4.39429E-002	-1.97086E-003	1.50879E-004	-1.76098E-002	-1.65700E-002	8.31004E-004	1.15806E-003	-2.04887E-002	1.30434E-003
	36	36	4.99734E-002	-2.93963E-002	0.00000E+000	-1.46903E-003	-2.91039E-001	3.98852E-002	3.23866E+001	11	...........	6.64529E-002	-5.08944E-003	5.93223E-001	5.58460E-001	-2.80112E-002	-3.90032E-002	6.90210E-001	-4.39350E-002	-1.95347E-003	1.49611E-004	-1.74386E-002	-1.64167E-002	8.23428E-004	1.14655E-003	-2.02896E-002	1.29153E-003
	37	37	4.99731E-002	-2.90015E-002	0.00000E+000	-1.44929E-003	-2.87105E-001	3.99228E-002	3.24390E+001	11	...........	6.65153E-002	-5.11125E-003	5.93265E-001	5.58521E-001	-2.80189E-002	-3.89903E-002	6.90094E-001	-4.40760E-002	-1.92904E-003	1.48234E-004	-1.72056E-002	-1.61979E-002	8.12589E-004	1.13077E-003	-2.00137E-002	1.27827E-003
	38	38	4.99723E-002	-2.86399E-002	0.00000E+000	-1.43120E-003	-2.83505E-001	3.99518E-002	3.24865E+001	11	...........	6.65746E-002	-5.15500E-003	5.93167E-001	5.58610E-001	-2.80279E-002	-3.89790E-002	6.90148E-001	-4.40765E-002	-1.90669E-003	1.47639E-004	-1.69883E-002	-1.59986E-002	8.02718E-004	1.11636E-003	-1.97658E-002	1.26235E-003
	39	39	4.99726E-002	-2.82121E-002	0.00000E+000	-1.40983E-003	-2.79264E-001	3.99787E-002	3.25346E+001	11	...........	6.66276E-002	-5.18097E-003	5.93353E-001	5.58668E-001	-2.80214E-002	-3.89986E-002	6.90167E-001	-4.40362E-002	-1.87971E-003	1.46166E-004	-1.67398E-002	-1.57612E-002	7.90543E-004	1.10023E-003	-1.94711E-002	1.24236E-003
	40	40	4.99738E-002	-2.78435E-002	0.00000E+000	-1.39144E-003	-2.75593E-001	4.00178E-002	3.25769E+001	11	...........	6.66731E-002	-5.23625E-003	5.93618E-001	5.58503E-001	-2.80011E-002	-3.89882E-002	6.90222E-001	-4.40311E-002	-1.85641E-003	1.45795E-004	-1.65284E-002	-1.55507E-002	7.79648E-004	1.08557E-003	-1.92182E-002	1.22598E-003
	41	41	4.99722E-002	-2.74735E-002	0.00000E+000	-1.37291E-003	-2.71907E-001	4.00553E-002	3.26169E+001	11	...........	6.67346E-002	-5.30653E-003	5.93665E-001	5.58470E-001	-2.80082E-002	-3.89699E-002	6.90105E-001	-4.40547E-002	-1.83343E-003	1.45789E-004	-1.63101E-002	-1.53431E-002	7.69484E-004	1.07064E-003	-1.89596E-002	1.21034E-003
	42	42	4.99735E-002	-2.70899E-002	0.00000E+000	-1.35378E-003	-2.68089E-001	4.00848E-002	3.26517E+001	11	...........	6.67775E-002	-5.25431E-003	5.93479E-001	5.58327E-001	-2.80303E-002	-3.89694E-002	6.90106E-001	-4.41153E-002	-1.80900E-003	1.42339E-004	-1.60773E-002	-1.51250E-002	7.59337E-004	1.05568E-003	-1.86949E-002	1.19508E-003
	43	43	4.99742E-002	-2.67841E-002	0.00000E+000	-1.33851E-003	-2.65054E-001	4.01182E-002	3.26877E+001	11	...........	6.68346E-002	-5.14528E-003	5.93245E-001	5.58251E-001	-2.80324E-002	-3.89685E-002	6.90243E-001	-4.41479E-002	-1.79010E-003	1.37811E-004	-1.58895E-002	-1.49522E-002	7.50821E-004	1.04373E-003	-1.84875E-002	1.18246E-003
	44	44	4.99729E-002	-2.64313E-002	0.00000E+000	-1.32085E-003	-2.61544E-001	4.01410E-002	3.27442E+001	11	...........	6.68711E-002	-5.11819E-003	5.93235E-001	5.58285E-001	-2.80128E-002	-3.89800E-002	6.90208E-001	-4.41236E-002	-1.76749E-003	1.35281E-004	-1.56800E-002	-1.47562E-002	7.40415E-004	1.03029E-003	-1.82431E-002	1.16625E-003
	45	45	4.99721E-002	-2.60673E-002	0.00000E+000	-1.30264E-003	-2.57922E-001	4.01632E-002	3.27689E+001	11	...........	6.68982E-002	-5.12597E-003	5.93232E-001	5.58247E-001	-2.80515E-002	-3.89571E-002	6.90175E-001	-4.41222E-002	-1.74386E-003	1.33620E-004	-1.54640E-002	-1.45520E-002	7.31228E-004	1.01551E-003	-1.79910E-002	1.15015E-003
	46	46	4.99744E-002	-2.56759E-002	0.00000E+000	-1.28314E-003	-2.54040E-001	4.01883E-002	3.27880E+001	11	...........	6.69562E-002	-5.14278E-003	5.93386E-001	5.58193E-001	-2.80433E-002	-3.89881E-002	6.90082E-001	-4.40187E-002	-1.71916E-003	1.32046E-004	-1.52357E-002	-1.43321E-002	7.20038E-004	1.00105E-003	-1.77185E-002	1.13022E-003
	47	47	4.99729E-002	-2.54048E-002	0.00000E+000	-1.26955E-003	-2.51339E-001	4.02150E-002	3.28023E+001	11	...........	6.70069E-002	-5.21514E-003	5.93479E-001	5.58198E-001	-2.80444E-002	-3.90171E-002	6.90089E-001	-4.40350E-002	-1.70230E-003	1.32490E-004	-1.50772E-002	-1.41809E-002	7.12465E-004	9.91223E-004	-1.75316E-002	1.11870E-003
	48	48	4.99735E-002	-2.50480E-002	0.00000E+000	-1.25173E-003	-2.47781E-001	4.02506E-002	3.28218E+001	11	...........	6.70587E-002	-5.21472E-003	5.93315E-001	5.58188E-001	-2.80664E-002	-3.90246E-002	6.90050E-001	-4.40522E-002	-1.67968E-003	1.30618E-004	-1.48613E-002	-1.39815E-002	7.03006E-004	9.77486E-004	-1.72843E-002	1.10342E-003
	49	49	4.99732E-002	-2.46924E-002	0.00000E+000	-1.23396E-003	-2.44238E-001	4.02863E-002	3.28615E+001	11	...........	6.71122E-002	-5.06944E-003	5.93447E-001	5.58129E-001	-2.80417E-002	-3.90335E-002	6.90152E-001	-4.41269E-002	-1.65716E-003	1.25177E-004	-1.46536E-002	-1.37815E-002	6.92415E-004	9.63829E-004	-1.70415E-002	1.08960E-003
	50	50	4.99738E-002	-2.43500E-002	0.00000E+000	-1.21686E-003	-2.40850E-001	4.03087E-002	3.28915E+001	11	...........	6.71557E-002	-5.12278E-003	5.93444E-001	5.58056E-001	-2.80157E-002	-3.90146E-002	6.90118E-001	-4.40789E-002	-1.63524E-003	1.24740E-004	-1.44504E-002	-1.35887E-002	6.82183E-004	9.50006E-004	-1.68044E-002	1.07332E-003
	51	51	4.99743E-002	-2.40694E-002	0.00000E+000	-1.20285E-003	-2.38058E-001	4.03414E-002	3.29081E+001	11	...........	6.72035E-002	-5.14486E-003	5.93426E-001	5.58077E-001	-2.80194E-002	-3.90217E-002	6.90088E-001	-4.42624E-002	-1.61754E-003	1.23834E-004	-1.42834E-002	-1.34326E-002	6.74410E-004	9.39227E-004	-1.66100E-002	1.06537E-003
	52	52	4.99728E-002	-2.37341E-002	0.00000E+000	-1.18606E-003	-2.34718E-001	4.03628E-002	3.29431E+001	11	...........	6.72567E-002	-5.11139E-003	5.93546E-001	5.58038E-001	-2.80136E-002	-3.90119E-002	6.90153E-001	-4.42322E-002	-1.59627E-003	1.21314E-004	-1.40873E-002	-1.32445E-002	6.64877E-004	9.25913E-004	-1.63802E-002	1.04981E-003
	53	53	4.99736E-002	-2.34189E-002	0.00000E+000	-1.17033E-003	-2.31587E-001	4.03932E-002	3.29849E+001	11	...........	6.72972E-002	-5.09222E-003	5.93473E-001	5.58034E-001	-2.79992E-002	-3.89924E-002	6.90205E-001	-4.41103E-002	-1.57603E-003	1.19254E-004	-1.38985E-002	-1.30685E-002	6.55710E-004	9.13158E-004	-1.61638E-002	1.03301E-003
	54	54	4.99740E-002	-2.31233E-002	0.00000E+000	-1.15556E-003	-2.28659E-001	4.04161E-002	3.29899E+001	11	...........	6.73490E-002	-5.15222E-003	5.93430E-001	5.57877E-001	-2.79808E-002	-3.90008E-002	6.90052E-001	-4.41432E-002	-1.55733E-003	1.19136E-004	-1.37220E-002	-1.28999E-002	6.47008E-004	9.01827E-004	-1.59563E-002	1.02074E-003
	55	55	4.99742E-002	-2.27989E-002	0.00000E+000	-1.13936E-003	-2.25421E-001	4.04393E-002	3.30056E+001	11	...........	6.73819E-002	-5.24847E-003	5.93404E-001	5.57782E-001	-2.79847E-002	-3.90265E-002	6.89969E-001	-4.42812E-002	-1.53624E-003	1.19660E-004	-1.35290E-002	-1.27168E-002	6.38022E-004	8.89763E-004	-1.57306E-002	1.00957E-003
	56	56	4.99728E-002	-2.25200E-002	0.00000E+000	-1.12539E-003	-2.22643E-001	4.04630E-002	3.30191E+001	11	...........	6.74199E-002	-5.29778E-003	5.93471E-001	5.57756E-001	-2.79787E-002	-3.90158E-002	6.90085E-001	-4.41728E-002	-1.51830E-003	1.19306E-004	-1.33650E-002	-1.25607E-002	6.30083E-004	8.78638E-004	-1.55407E-002	9.94773E-004
	57	57	4.99742E-002	-2.22029E-002	0.00000E+000	-1.10957E-003	-2.19486E-001	4.04871E-002	3.30499E+001	11	...........	6.74710E-002	-5.26750E-003	5.93517E-001	5.57596E-001	-2.79765E-002	-3.90257E-002	6.90145E-001	-4.41511E-002	-1.49805E-003	1.16954E-004	-1.31778E-002	-1.23803E-002	6.21160E-004	8.66483E-004	-1.53232E-002	9.80283E-004
	58	58	4.99744E-002	-2.19083E-002	0.00000E+000	-1.09485E-003	-2.16563E-001	4.05094E-002	3.30641E+001	11	...........	6.74968E-002	-5.15597E-003	5.93456E-001	5.57516E-001	-2.79736E-002	-3.90246E-002	6.90151E-001	-4.42000E-002	-1.47874E-003	1.12958E-004	-1.30016E-002	-1.22142E-002	6.12853E-004	8.54960E-004	-1.51200E-002	9.68345E-004
	59	59	4.99735E-002	-2.16167E-002	0.00000E+000	-1.08027E-003	-2.13668E-001	4.05362E-002	3.30936E+001	11	...........	6.75286E-002	-5.17667E-003	5.93578E-001	5.57427E-001	-2.79615E-002	-3.90000E-002	6.90166E-001	-4.40449E-002	-1.45975E-003	1.11903E-004	-1.28312E-002	-1.20498E-002	6.04437E-004	8.43053E-004	-1.49191E-002	9.52107E-004
	60	60	4.99746E-002	-2.13485E-002	0.00000E+000	-1.06688E-003	-2.10996E-001	4.05525E-002	3.31335E+001	11	...........	6.75636E-002	-5.15611E-003	5.93605E-001	5.57374E-001	-2.79806E-002	-3.89765E-002	6.90067E-001	-4.40986E-002	-1.44238E-003	1.10075E-004	-1.26726E-002	-1.18991E-002	5.97342E-004	8.32088E-004	-1.47319E-002	9.41437E-004
	61	61	4.99736E-002	-2.10838E-002	0.00000E+000	-1.05363E-003	-2.08362E-001	4.05876E-002	3.31900E+001	11	...........	6.76043E-002	-5.13403E-003	5.93383E-001	5.57259E-001	-2.79990E-002	-3.89921E-002	6.90014E-001	-4.41425E-002	-1.42535E-003	1.08245E-004	-1.25108E-002	-1.17491E-002	5.90325E-004	8.22100E-004	-1.45481E-002	9.30690E-004
	62	62	4.99741E-002	-2.07912E-002	0.00000E+000	-1.03902E-003	-2.05456E-001	4.05967E-002	3.32288E+001	11	...........	6.76411E-002	-5.10625E-003	5.93385E-001	5.57051E-001	-2.79997E-002	-3.90071E-002	6.89968E-001	-4.39844E-002	-1.40634E-003	1.06165E-004	-1.23372E-002	-1.15818E-002	5.82148E-004	8.11005E-004	-1.43453E-002	9.14490E-004
	63	63	4.99746E-002	-2.05228E-002	0.00000E+000	-1.02562E-003	-2.02805E-001	4.06132E-002	3.32448E+001	11	...........	6.76715E-002	-5.07819E-003	5.93510E-001	5.57046E-001	-2.80033E-002	-3.90046E-002	6.89771E-001	-4.40681E-002	-1.38881E-003	1.04219E-004	-1.21805E-002	-1.14321E-002	5.74707E-004	8.00483E-004	-1.41560E-002	9.04400E-004
	64	64	4.99745E-002	-2.02566E-002	0.00000E+000	-1.01232E-003	-2.00149E-001	4.06410E-002	3.32641E+001	11	...........	6.77075E-002	-5.11139E-003	5.93508E-001	5.57181E-001	-2.79810E-002	-3.90212E-002	6.89791E-001	-4.41093E-002	-1.37153E-003	1.03540E-004	-1.20225E-002	-1.12866E-002	5.66800E-004	7.90439E-004	-1.39728E-002	8.93506E-004
	65	65	4.99736E-002	-1.99787E-002	0.00000E+000	-9.98408E-004	-1.97385E-001	4.06668E-002	3.32881E+001	11	...........	6.77525E-002	-5.10931E-003	5.93424E-001	5.57336E-001	-2.79792E-002	-3.90358E-002	6.89710E-001	-4.39950E-002	-1.35361E-003	1.02077E-004	-1.18558E-002	-1.11349E-002	5.58988E-004	7.79886E-004	-1.37795E-002	8.78964E-004
	66	66	4.99749E-002	-1.97112E-002	0.00000E+000	-9.85065E-004	-1.94721E-001	4.06933E-002	3.33405E+001	11	...........	6.77806E-002	-5.11569E-003	5.93361E-001	5.57458E-001	-2.79797E-002	-3.90328E-002	6.89782E-001	-4.39106E-002	-1.33604E-003	1.00836E-004	-1.16958E-002	-1.09882E-002	5.51514E-004	7.69383E-004	-1.35964E-002	8.65529E-004
	67	67	4.99745E-002	-1.94804E-002	0.00000E+000	-9.73524E-004	-1.92415E-001	4.07085E-002	3.33771E+001	11	...........	6.78200E-002	-5.13319E-003	5.93386E-001	5.57561E-001	-2.79981E-002	-3.90451E-002	6.89890E-001	-4.39064E-002	-1.32116E-003	9.99967E-005	-1.15594E-002	-1.08615E-002	5.45413E-004	7.60615E-004	-1.34393E-002	8.55314E-004
	68	68	4.99739E-002	-1.92320E-002	0.00000E+000	-9.61099E-004	-1.89966E-001	4.07305E-002	3.34127E+001	11	...........	6.78532E-002	-5.03903E-003	5.93633E-001	5.57709E-001	-2.79919E-002	-3.90271E-002	6.89733E-001	-4.39124E-002	-1.30495E-003	9.69106E-005	-1.14168E-002	-1.07259E-002	5.38341E-004	7.50569E-004	-1.32649E-002	8.44523E-004
	69	69	4.99744E-002	-1.89776E-002	0.00000E+000	-9.48397E-004	-1.87432E-001	4.07468E-002	3.34414E+001	11	...........	6.78872E-002	-5.06597E-003	5.93621E-001	5.57754E-001	-2.79840E-002	-3.90364E-002	6.89752E-001	-4.39744E-002	-1.28834E-003	9.61402E-005	-1.12655E-002	-1.05849E-002	5.31071E-004	7.40818E-004	-1.30899E-002	8.34531E-004
	70	70	4.99752E-002	-1.87092E-002	0.00000E+000	-9.34994E-004	-1.84758E-001	4.07762E-002	3.34701E+001	11	...........	6.79332E-002	-5.19611E-003	5.93535E-001	5.57734E-001	-2.79758E-002	-3.90236E-002	6.89863E-001	-4.39539E-002	-1.27097E-003	9.72149E-005	-1.11046E-002	-1.04347E-002	5.23405E-004	7.30099E-004	-1.29068E-002	8.22341E-004
	71	71	4.99737E-002	-1.84832E-002	0.00000E+000	-9.23674E-004	-1.82509E-001	4.05432E-002	3.34964E+001	11	...........	6.79681E-002	-5.16681E-003	5.93497E-001	5.57601E-001	-2.79433E-002	-3.90117E-002	6.89848E-001	-4.39261E-002	-1.25627E-003	9.54991E-005	-1.09697E-002	-1.03063E-002	5.16482E-004	7.21060E-004	-1.27506E-002	8.11895E-004
	72	72	4.99748E-002	-1.82202E-002	0.00000E+000	-9.10551E-004	-1.79896E-001	4.08070E-002	3.35476E+001	11	...........	6.79967E-002	-5.09542E-003	5.93527E-001	5.57586E-001	-2.79500E-002	-3.90160E-002	6.89795E-001	-4.39049E-002	-1.23891E-003	9.28395E-005	-1.08142E-002	-1.01593E-002	5.09255E-004	7.10879E-004	-1.25682E-002	7.99955E-004
	73	73	4.99749E-002	-1.79798E-002	0.00000E+000	-8.98536E-004	-1.77521E-001	4.08312E-002	3.35705E+001	11	...........	6.80235E-002	-4.98847E-003	5.93629E-001	5.57650E-001	-2.79468E-002	-3.90283E-002	6.89826E-001	-4.39600E-002	-1.22305E-003	8.96915E-005	-1.06733E-002	-1.00264E-002	5.02477E-004	7.01720E-004	-1.24029E-002	7.90390E-004
	74	74	4.99744E-002	-1.77786E-002	0.00000E+000	-8.88472E-004	-1.75505E-001	4.08312E-002	3.35915E+001	11	...........	6.80486E-002	-5.13583E-003	5.93771E-001	5.57658E-001	-2.79778E-002	-3.90465E-002	6.89887E-001	-4.40376E-002	-1.20981E-003	9.13077E-005	-1.05564E-002	-9.91435E-003	4.97404E-004	6.94191E-004	-1.22652E-002	7.82925E-004
	75	75	4.99750E-002	-1.75159E-002	0.00000E+000	-8.75359E-004	-1.72889E-001	4.08522E-002	3.36136E+001	11	...........	6.80618E-002	-5.07639E-003	5.93686E-001	5.57682E-001	-2.80006E-002	-3.90515E-002	6.89943E-001	-4.40904E-002	-1.19217E-003	8.89178E-005	-1.03990E-002	-9.76832E-003	4.90456E-004	6.84025E-004	-1.20850E-002	7.72286E-004
	76	76	4.99751E-002	-1.72942E-002	0.00000E+000	-8.64278E-004	-1.70682E-001	4.08673E-002	3.36358E+001	11	...........	6.81000E-002	-5.15111E-003	5.93748E-001	5.57760E-001	-2.80111E-002	-3.90733E-002	6.89955E-001	-4.40532E-002	-1.17773E-003	8.90842E-005	-1.02684E-002	-9.64600E-003	4.84429E-004	6.75741E-004	-1.19322E-002	7.61863E-004
	77	77	4.99739E-002	-1.70784E-002	0.00000E+000	-8.53475E-004	-1.68530E-001	4.08992E-002	3.36319E+001	11	...........	6.81419E-002	-5.12125E-003	5.93624E-001	5.57580E-001	-2.80111E-002	-3.90662E-002	6.89959E-001	-4.39042E-002	-1.16376E-003	8.74627E-005	-1.01382E-002	-9.52258E-003	4.78385E-004	6.67189E-004	-1.17834E-002	7.49813E-004
	78	78	4.99750E-002	-1.68375E-002	0.00000E+000	-8.41454E-004	-1.66134E-001	4.09191E-002	3.36465E+001	11	...........	6.81579E-002	-5.15347E-003	5.93677E-001	5.57435E-001	-2.80100E-002	-3.90672E-002	6.89951E-001	-4.38253E-002	-1.14761E-003	8.67716E-005	-9.99604E-003	-9.38582E-003	4.71619E-004	6.57795E-004	-1.16171E-002	7.37908E-004
	79	79	4.99750E-002	-1.66257E-002	0.00000E+000	-8.30869E-004	-1.64039E-001	4.09428E-002	3.36735E+001	11	...........	6.81962E-002	-5.07181E-003	5.93675E-001	5.57614E-001	-2.79944E-002	-3.90940E-002	6.89995E-001	-4.38388E-002	-1.13381E-003	8.43223E-005	-9.87026E-003	-9.27073E-003	4.65427E-004	6.49965E-004	-1.14716E-002	7.28850E-004
	80	80	4.99747E-002	-1.64021E-002	0.00000E+000	-8.19689E-004	-1.61814E-001	4.09478E-002	3.37012E+001	11	...........	6.82242E-002	-5.02306E-003	5.93801E-001	5.57852E-001	-2.79996E-002	-3.90729E-002	6.90074E-001	-4.39158E-002	-1.11902E-003	8.23885E-005	-9.73957E-003	-9.14993E-003	4.59251E-004	6.40877E-004	-1.13186E-002	7.20311E-004
	81	81	4.99753E-002	-1.62193E-002	0.00000E+000	-8.10567E-004	-1.59991E-001	4.09638E-002	3.37231E+001	11	...........	6.82564E-002	-5.13111E-003	5.93844E-001	5.57833E-001	-2.80028E-002	-3.90775E-002	6.90096E-001	-4.39200E-002	-1.10707E-003	8.32232E-005	-9.63176E-003	-9.04768E-003	4.54187E-004	6.33811E-004	-1.11929E-002	7.12353E-004
	82	82	4.99749E-002	-1.60200E-002	0.00000E+000	-8.00598E-004	-1.58010E-001	4.09689E-002	3.37632E+001	11	...........	6.82571E-002	-5.11542E-003	5.93811E-001	5.57869E-001	-2.79669E-002	-3.90590E-002	6.90122E-001	-4.39796E-002	-1.09348E-003	8.19490E-005	-9.51285E-003	-8.93706E-003	4.48030E-004	6.25726E-004	-1.10558E-002	7.04553E-004
	83	83	4.99745E-002	-1.57693E-002	0.00000E+000	-7.88064E-004	-1.55514E-001	4.09897E-002	3.37746E+001	11	...........	6.82980E-002	-5.12847E-003	5.93854E-001	5.57890E-001	-2.79407E-002	-3.90558E-002	6.90068E-001	-4.39318E-002	-1.07701E-003	8.08726E-005	-9.36468E-003	-8.79755E-003	4.40606E-004	6.15884E-004	-1.08819E-002	6.92775E-004
	84	84	4.99751E-002	-1.55694E-002	0.00000E+000	-7.78085E-004	-1.53531E-001	4.10132E-002	3.37978E+001	11	...........	6.83260E-002	-5.21389E-003	5.93820E-001	5.57875E-001	-2.79642E-002	-3.90708E-002	6.90010E-001	-4.39140E-002	-1.06380E-003	8.11773E-005	-9.24544E-003	-8.68580E-003	4.35386E-004	6.08311E-004	-1.07431E-002	6.83717E-004
	85	85	4.99751E-002	-1.53782E-002	0.00000E+000	-7.68530E-004	-1.51632E-001	4.10344E-002	3.37988E+001	11	...........	6.83568E-002	-5.11333E-003	5.93788E-001	5.57936E-001	-2.79869E-002	-3.90574E-002	6.89996E-001	-4.40147E-002	-1.05121E-003	7.86341E-005	-9.13142E-003	-8.58008E-003	4.30390E-004	6.00634E-004	-1.06109E-002	6.76869E-004
	86	86	4.99756E-002	-1.51824E-002	0.00000E+000	-7.58749E-004	-1.49681E-001	4.10363E-002	3.38075E+001	11	...........	6.83906E-002	-5.09667E-003	5.93721E-001	5.57767E-001	-2.79701E-002	-3.90424E-002	6.89956E-001	-4.40492E-002	-1.03833E-003	7.73796E-005	-9.01411E-003	-8.46824E-003	4.24654E-004	5.92756E-004	-1.04752E-002	6.68772E-004
	87	87	4.99747E-002	-1.50006E-002	0.00000E+000	-7.49650E-004	-1.47871E-001	4.10592E-002	3.38311E+001	11	...........	6.84160E-002	-5.10681E-003	5.93765E-001	5.57649E-001	-2.79537E-002	-3.90618E-002	6.89974E-001	-4.40036E-002	-1.02628E-003	7.66051E-005	-8.90682E-003	-8.36506E-003	4.19323E-004	5.85950E-004	-1.03500E-002	6.60080E-004
	88	88	4.99758E-002	-1.48042E-002	0.00000E+000	-7.39852E-004	-1.45918E-001	4.11281E-002	3.37853E+001	11	...........	6.85224E-002	-5.22653E-003	5.93783E-001	5.57703E-001	-2.79475E-002	-3.90464E-002	6.89897E-001	-4.40329E-002	-1.01442E-003	7.73746E-005	-8.79049E-003	-8.25635E-003	4.13741E-004	5.78051E-004	-1.02134E-002	6.51872E-004
	89	89	4.99745E-002	-1.46150E-002	0.00000E+000	-7.30375E-004	-1.44029E-001	4.11115E-002	3.38162E+001	11	...........	6.84967E-002	-5.15222E-003	5.93769E-001	5.57743E-001	-2.79586E-002	-3.90196E-002	6.89804E-001	-4.41156E-002	-1.00108E-003	7.52995E-005	-8.67790E-003	-8.15139E-003	4.08614E-004	5.70269E-004	-1.00814E-002	6.44747E-004
	90	90	4.99758E-002	-1.44309E-002	0.00000E+000	-7.21196E-004	-1.42196E-001	4.11089E-002	3.38777E+001	11	...........	6.85004E-002	-5.07167E-003	5.93803E-001	5.57838E-001	-2.79637E-002	-3.90164E-002	6.89752E-001	-4.40651E-002	-9.88523E-004	7.31887E-005	-8.56911E-003	-8.05011E-003	4.03542E-004	5.63042E-004	-9.95374E-003	6.35899E-004
	91	91	4.99757E-002	-1.42774E-002	0.00000E+000	-7.13521E-004	-1.40662E-001	4.11332E-002	3.39098E+001	11	...........	6.85232E-002	-5.13139E-003	5.93757E-001	5.57707E-001	-2.79678E-002	-3.90162E-002	6.89743E-001	-4.40182E-002	-9.78330E-004	7.32627E-005	-8.47728E-003	-7.96258E-003	3.99306E-004	5.57049E-004	-9.84770E-003	6.28464E-004
	92	92	4.99749E-002	-1.40941E-002	0.00000E+000	-7.04351E-004	-1.38866E-001	4.11439E-002	3.39370E+001	11	...........	6.85503E-002	-5.13028E-003	5.93729E-001	5.57676E-001	-2.79686E-002	-3.90132E-002	6.89671E-001	-4.40522E-002	-9.66155E-004	7.23067E-005	-8.36808E-003	-7.85995E-003	3.94192E-004	5.49856E-004	-9.72029E-003	6.20877E-004
	93	93	4.99752E-002	-1.39082E-002	0.00000E+000	-6.95065E-004	-1.37012E-001	4.11540E-002	3.39644E+001	11	...........	6.85732E-002	-5.14986E-003	5.93688E-001	5.57838E-001	-2.79701E-002	-3.90193E-002	6.89751E-001	-4.39162E-002	-9.53730E-004	7.16253E-005	-8.25714E-003	-7.75853E-003	3.89015E-004	5.42689E-004	-9.59320E-003	6.10796E-004
	94	94	4.99753E-002	-1.37285E-002	0.00000E+000	-6.86087E-004	-1.35223E-001	4.11664E-002	3.39814E+001	11	...........	6.85921E-002	-5.16083E-003	5.93560E-001	5.57768E-001	-2.79647E-002	-3.90283E-002	6.89930E-001	-4.40751E-002	-9.41667E-004	7.08506E-005	-8.14870E-003	-7.65733E-003	3.83914E-004	5.35801E-004	-9.47171E-003	6.05086E-004
	95	95	4.99751E-002	-1.35403E-002	0.00000E+000	-6.76677E-004	-1.33347E-001	4.11752E-002	3.40119E+001	11	...........	6.86189E-002	-5.19000E-003	5.93571E-001	5.57523E-001	-2.79804E-002	-3.90431E-002	6.89895E-001	-4.41207E-002	-9.29119E-004	7.02740E-005	-8.03712E-003	-7.54901E-003	3.78862E-004	5.28654E-004	-9.34136E-003	5.97406E-004
	96	96	4.99752E-002	-1.33363E-002	0.00000E+000	-6.66485E-004	-1.31320E-001	4.11953E-002	3.40053E+001	11	...........	6.86349E-002	-5.14847E-003	5.93507E-001	5.57471E-001	-2.79965E-002	-3.90458E-002	6.90006E-001	-4.39965E-002	-9.15336E-004	6.86616E-005	-7.91519E-003	-7.43460E-003	3.73370E-004	5.20727E-004	-9.20213E-003	5.86751E-004
	97	97	4.99753E-002	-1.31447E-002	0.00000E+000	-6.56911E-004	-1.29413E-001	4.12004E-002	3.40025E+001	11	...........	6.86500E-002	-5.18417E-003	5.93680E-001	5.57425E-001	-2.79965E-002	-3.90344E-002	6.89991E-001	-4.39024E-002	-9.02384E-004	6.81443E-005	-7.80375E-003	-7.32718E-003	3.68006E-004	5.13096E-004	-9.06973E-003	5.77083E-004
	98	98	4.99754E-002	-1.29853E-002	0.00000E+000	-6.48946E-004	-1.27842E-001	4.12246E-002	3.40168E+001	11	...........	6.86769E-002	-5.08611E-003	5.93731E-001	5.57382E-001	-2.79950E-002	-3.90194E-002	6.89907E-001	-4.39576E-002	-8.91791E-004	6.60447E-005	-7.70978E-003	-7.23778E-003	3.63524E-004	5.06679E-004	-8.95866E-003	5.70803E-004
	99	99	4.99756E-002	-1.28127E-002	0.00000E+000	-6.40324E-004	-1.26127E-001	4.12388E-002	3.40097E+001	11	...........	6.86958E-002	-5.01806E-003	5.93698E-001	5.57331E-001	-2.80119E-002	-3.90031E-002	6.89979E-001	-4.40142E-002	-8.80181E-004	6.42950E-005	-7.60688E-003	-7.14093E-003	3.58909E-004	4.99735E-004	-8.84050E-003	5.63941E-004
	100	100	4.99749E-002	-1.26176E-002	0.00000E+000	-6.30565E-004	-1.24179E-001	4.12475E-002	3.40263E+001	11	...........	6.87149E-002	-5.07917E-003	5.93756E-001	5.57503E-001	-2.80429E-002	-3.90444E-002	6.89891E-001	-4.40176E-002	-8.67018E-004	6.40870E-005	-7.49179E-003	-7.03436E-003	3.53835E-004	4.92648E-004	-8.70478E-003	5.55398E-004
	101	101	4.99757E-002	-1.24574E-002	0.00000E+000	-6.22567E-004	-1.22584E-001	4.12567E-002	3.40588E+001	11	...........	6.87278E-002	-5.16875E-003	5.93643E-001	5.57499E-001	-2.80469E-002	-3.90557E-002	6.89954E-001	-4.38910E-002	-8.56170E-004	6.43892E-005	-7.39526E-003	-6.94499E-003	3.49392E-004	4.86533E-004	-8.59503E-003	5.46768E-004
	102	102	4.99757E-002	-1.23140E-002	0.00000E+000	-6.15402E-004	-1.21153E-001	4.12665E-002	3.40821E+001	11	...........	6.87465E-002	-5.12958E-003	5.93612E-001	5.57485E-001	-2.80476E-002	-3.90253E-002	6.90187E-001	-4.38018E-002	-8.46546E-004	6.31658E-005	-7.30975E-003	-6.86488E-003	3.45379E-004	4.80558E-004	-8.49898E-003	5.39376E-004
	103	103	4.99757E-002	-1.21553E-002	0.00000E+000	-6.07470E-004	-1.19575E-001	4.12732E-002	3.40981E+001	11	...........	6.87700E-002	-5.09347E-003	5.93624E-001	5.57361E-001	-2.80318E-002	-3.90237E-002	6.90193E-001	-4.39067E-002	-8.35920E-004	6.19127E-005	-7.21567E-003	-6.77489E-003	3.40735E-004	4.74345E-004	-8.38950E-003	5.33699E-004
	104	104	4.99751E-002	-1.19697E-002	0.00000E+000	-5.98188E-004	-1.17722E-001	4.12803E-002	3.41165E+001	11	...........	6.87837E-002	-5.18500E-003	5.93539E-001	5.57374E-001	-2.80449E-002	-3.90269E-002	6.90055E-001	-4.39592E-002	-8.23321E-004	6.20629E-005	-7.10448E-003	-6.67160E-003	3.35689E-004	4.67141E-004	-8.25975E-003	5.26178E-004
	105	105	4.99761E-002	-1.18168E-002	0.00000E+000	-5.90555E-004	-1.16203E-001	4.12961E-002	3.41377E+001	11	...........	6.88076E-002	-5.14667E-003	5.93523E-001	5.57282E-001	-2.80089E-002	-3.90122E-002	6.90062E-001	-4.39828E-002	-8.13083E-004	6.08169E-005	-7.01352E-003	-6.58527E-003	3.30974E-004	4.60998E-004	-8.15430E-003	5.19734E-004
	106	106	4.99754E-002	-1.16951E-002	0.00000E+000	-5.84465E-004	-1.14990E-001	4.13089E-002	3.41416E+001	11	...........	6.88149E-002	-5.16958E-003	5.93497E-001	5.57318E-001	-2.80115E-002	-3.90047E-002	6.90154E-001	-4.39185E-002	-8.04794E-004	6.04586E-005	-6.94099E-003	-6.51787E-003	3.27597E-004	4.56163E-004	-8.07140E-003	5.13629E-004
	107	107	4.99755E-002	-1.15179E-002	0.00000E+000	-5.75611E-004	-1.13247E-001	4.13196E-002	3.41472E+001	11	...........	6.88482E-002	-5.20667E-003	5.93519E-001	5.57465E-001	-2.79843E-002	-3.89862E-002	6.90155E-001	-4.38994E-002	-7.92985E-004	5.99698E-005	-6.83608E-003	-6.42081E-003	3.22320E-004	4.49039E-004	-7.94913E-003	5.05628E-004
	108	108	4.99758E-002	-1.13716E-002	0.00000E+000	-5.68306E-004	-1.11788E-001	4.13307E-002	3.41393E+001	11	...........	6.88462E-002	-5.14264E-003	5.93590E-001	5.57518E-001	-2.79744E-002	-3.90029E-002	6.90134E-001	-4.39231E-002	-7.82894E-004	5.84801E-005	-6.75009E-003	-6.33988E-003	3.18115E-004	4.43526E-004	-7.84794E-003	4.99476E-004
	109	109	4.99757E-002	-1.12208E-002	0.00000E+000	-5.60769E-004	-1.10283E-001	4.13385E-002	3.41692E+001	11	...........	6.88737E-002	-5.16792E-003	5.93665E-001	5.57476E-001	-2.79669E-002	-3.90099E-002	6.90036E-001	-4.38681E-002	-7.72821E-004	5.79884E-005	-6.66141E-003	-6.25535E-003	3.13813E-004	4.37723E-004	-7.74278E-003	4.92236E-004
	110	110	4.99757E-002	-1.10796E-002	0.00000E+000	-5.53712E-004	-1.08873E-001	4.13515E-002	3.41668E+001	11	...........	6.88925E-002	-5.18528E-003	5.93562E-001	5.57415E-001	-2.79769E-002	-3.90114E-002	6.90142E-001	-4.39690E-002	-7.63303E-004	5.74509E-005	-6.57644E-003	-6.17595E-003	3.09974E-004	4.32231E-004	-7.64651E-003	4.87160E-004
	111	111	4.99761E-002	-1.09480E-002	0.00000E+000	-5.47141E-004	-1.07564E-001	4.13636E-002	3.41846E+001	11	...........	6.89175E-002	-5.11361E-003	5.93450E-001	5.57424E-001	-2.79714E-002	-3.90175E-002	6.90136E-001	-4.39846E-002	-7.54512E-004	5.59840E-005	-6.49711E-003	-6.10271E-003	3.06232E-004	4.27165E-004	-7.55563E-003	4.81545E-004
	112	112	4.99757E-002	-1.08030E-002	0.00000E+000	-5.39886E-004	-1.06122E-001	4.13768E-002	3.41842E+001	11	...........	6.89275E-002	-4.98472E-003	5.93234E-001	5.57568E-001	-2.79732E-002	-3.90324E-002	6.90104E-001	-4.39460E-002	-7.44622E-004	5.38498E-005	-6.40869E-003	-6.02340E-003	3.02194E-004	4.21666E-004	-7.45518E-003	4.74747E-004
	113	113	4.99758E-002	-1.06680E-002	0.00000E+000	-5.33143E-004	-1.04779E-001	4.13912E-002	3.41910E+001	11	...........	6.89369E-002	-5.13667E-003	5.93118E-001	5.57733E-001	-2.79740E-002	-3.90346E-002	6.89961E-001	-4.39571E-002	-7.35420E-004	5.47980E-005	-6.32739E-003	-5.94990E-003	2.98427E-004	4.16421E-004	-7.36051E-003	4.68935E-004
	114	114	4.99759E-002	-1.05568E-002	0.00000E+000	-5.27587E-004	-1.03674E-001	4.14769E-002	3.40262E+001	11	...........	6.91187E-002	-5.18736E-003	5.93028E-001	5.57855E-001	-2.79714E-002	-3.90362E-002	6.89993E-001	-4.40815E-002	-7.29675E-004	5.47621E-005	-6.26050E-003	-5.88918E-003	2.95289E-004	4.12099E-004	-7.28414E-003	4.65361E-004
	115	115	4.99763E-002	-1.04078E-002	0.00000E+000	-5.20145E-004	-1.02224E-001	4.13827E-002	3.41733E+001	11	...........	6.89447E-002	-5.10111E-003	5.93057E-001	5.58011E-001	-2.79561E-002	-3.90237E-002	6.90007E-001	-4.42119E-002	-7.17564E-004	5.30915E-005	-6.17243E-003	-5.80768E-003	2.90962E-004	4.06152E-004	-7.18147E-003	4.60150E-004
	116	116	4.99761E-002	-1.03200E-002	0.00000E+000	-5.15754E-004	-1.01368E-001	4.14134E-002	3.41557E+001	11	...........	6.89753E-002	-5.09792E-003	5.93101E-001	5.58089E-001	-2.79482E-002	-3.90151E-002	6.89942E-001	-4.41082E-002	-7.11827E-004	5.26106E-005	-6.12082E-003	-5.75949E-003	2.88426E-004	4.02637E-004	-7.12022E-003	4.55198E-004
	117	117	4.99761E-002	-1.02000E-002	0.00000E+000	-5.09754E-004	-1.00169E-001	4.14542E-002	3.41216E+001	11	...........	6.90712E-002	-5.17903E-003	5.93187E-001	5.58174E-001	-2.79472E-002	-3.90197E-002	6.89918E-001	-4.39953E-002	-7.04524E-004	5.28259E-005	-6.05048E-003	-5.69335E-003	2.85060E-004	3.97999E-004	-7.03714E-003	4.48750E-004
	118	118	4.99775E-002	-1.01398E-002	0.00000E+000	-5.06760E-004	-9.95667E-002	4.14172E-002	3.41739E+001	11	...........	6.90055E-002	-5.23819E-003	5.93340E-001	5.58191E-001	-2.79528E-002	-3.90226E-002	6.89987E-001	-4.41472E-002	-6.99700E-004	5.31140E-005	-6.01633E-003	-5.65993E-003	2.83434E-004	3.95680E-004	-6.99630E-003	4.47642E-004
	119	119	4.99757E-002	-1.00697E-002	0.00000E+000	-5.03242E-004	-9.88677E-002	4.14362E-002	3.42484E+001	11	...........	6.90447E-002	-5.15750E-003	5.93245E-001	5.58182E-001	-2.79817E-002	-3.90544E-002	6.89984E-001	-4.40306E-002	-6.95261E-004	5.19346E-005	-5.97381E-003	-5.62074E-003	2.81768E-004	3.93267E-004	-6.94795E-003	4.43376E-004
	120	120	4.99758E-002	-9.92336E-003	0.00000E+000	-4.95928E-004	-9.74143E-002	4.14462E-002	3.42909E+001	11	...........	6.90575E-002	-5.16847E-003	5.93180E-001	5.58156E-001	-2.79992E-002	-3.90608E-002	6.89932E-001	-4.39585E-002	-6.85283E-004	5.12886E-005	-5.88634E-003	-5.53879E-003	2.77846E-004	3.87615E-004	-6.84644E-003	4.36216E-004
	121	121	4.99763E-002	-9.79009E-003	0.00000E+000	-4.89272E-004	-9.60807E-002	4.14705E-002	3.43175E+001	11	...........	6.90861E-002	-5.15403E-003	5.93301E-001	5.58081E-001	-2.80104E-002	-3.90469E-002	6.89949E-001	-4.39003E-002	-6.76359E-004	5.04584E-005	-5.80847E-003	-5.46366E-003	2.74225E-004	3.82273E-004	-6.75466E-003	4.29788E-004
	122	122	4.99757E-002	-9.68023E-003	0.00000E+000	-4.83776E-004	-9.49877E-002	4.14755E-002	3.43469E+001	11	...........	6.91075E-002	-5.20736E-003	5.93349E-001	5.58096E-001	-2.80287E-002	-3.90383E-002	6.89892E-001	-4.39382E-002	-6.68977E-004	5.04085E-005	-5.74375E-003	-5.40250E-003	2.71325E-004	3.77900E-004	-6.67832E-003	4.25332E-004
	123	123	4.99761E-002	-9.55406E-003	0.00000E+000	-4.77475E-004	-9.37333E-002	4.14808E-002	3.43651E+001	11	...........	6.91115E-002	-5.16361E-003	5.93217E-001	5.58080E-001	-2.80353E-002	-3.90282E-002	6.89851E-001	-4.40486E-002	-6.60296E-004	4.93335E-005	-5.66763E-003	-5.33193E-003	2.67851E-004	3.72878E-004	-6.59088E-003	4.20843E-004
	124	124	4.99757E-002	-9.42004E-003	0.00000E+000	-4.70773E-004	-9.23953E-002	4.14890E-002	3.43530E+001	11	...........	6.91311E-002	-5.12958E-003	5.93157E-001	5.58068E-001	-2.80376E-002	-3.90381E-002	6.89973E-001	-4.40261E-002	-6.51218E-004	4.83209E-005	-5.58757E-003	-5.25703E-003	2.64116E-004	3.67740E-004	-6.49957E-003	4.14728E-004
	125	125	4.99754E-002	-9.25607E-003	0.00000E+000	-4.62575E-004	-9.07653E-002	4.15091E-002	3.43437E+001	11	...........	6.91472E-002	-5.13333E-003	5.93115E-001	5.58102E-001	-2.80485E-002	-3.90424E-002	6.90058E-001	-4.41486E-002	-6.40031E-004	4.75145E-005	-5.48992E-003	-5.16583E-003	2.59619E-004	3.61379E-004	-6.38723E-003	4.08643E-004
	126	126	4.99759E-002	-9.07263E-003	0.00000E+000	-4.53413E-004	-8.89460E-002	4.15104E-002	3.40391E+001	11	...........	6.91582E-002	-5.05417E-003	5.93134E-001	5.58128E-001	-2.80358E-002	-3.90365E-002	6.90033E-001	-4.42147E-002	-6.27447E-004	4.58546E-005	-5.38128E-003	-5.06369E-003	2.54359E-004	3.54164E-004	-6.26041E-003	4.01144E-004
	127	127	4.99745E-002	-8.88511E-003	0.00000E+000	-4.44029E-004	-8.70877E-002	4.13569E-002	3.31223E+001	11	...........	6.89178E-002	-5.02097E-003	5.93086E-001	5.58085E-001	-2.80469E-002	-3.90440E-002	6.90029E-001	-4.41167E-002	-6.12342E-004	4.46119E-005	-5.26963E-003	-4.95864E-003	2.49200E-004	3.46911E-004	-6.13098E-003	3.91982E-004
	128	128	4.99806E-002	-8.96913E-003	0.00000E+000	-4.48283E-004	-8.79237E-002	4.15160E-002	3.41890E+001	11	...........	6.91772E-002	-5.09528E-003	5.93024E-001	5.57972E-001	-2.80283E-002	-3.90292E-002	6.89996E-001	-4.40619E-002	-6.20459E-004	4.57002E-005	-5.31891E-003	-5.00453E-003	2.51390E-004	3.50058E-004	-6.18867E-003	3.95197E-004
	129	129	4.99770E-002	-9.03991E-003	0.00000E+000	-4.51788E-004	-8.86223E-002	4.15031E-002	3.44242E+001	11	...........	6.91415E-002	-5.12639E-003	5.93065E-001	5.57952E-001	-2.80304E-002	-3.90321E-002	6.89999E-001	-4.39642E-002	-6.25033E-004	4.63421E-005	-5.36126E-003	-5.04384E-003	2.53392E-004	3.52847E-004	-6.23753E-003	3.97432E-004
	130	130	4.99768E-002	-8.96281E-003	0.00000E+000	-4.47932E-004	-8.78643E-002	4.14777E-002	3.44595E+001	11	...........	6.91169E-002	-5.09528E-003	5.93172E-001	5.57977E-001	-2.80181E-002	-3.90021E-002	6.89880E-001	-4.40894E-002	-6.19482E-004	4.56680E-005	-5.31649E-003	-5.00104E-003	2.51121E-004	3.49568E-004	-6.18327E-003	3.95165E-004
	131	131	4.99761E-002	-8.89643E-003	0.00000E+000	-4.44609E-004	-8.72080E-002	4.14703E-002	3.44945E+001	11	...........	6.90928E-002	-5.08764E-003	5.93189E-001	5.57767E-001	-2.80068E-002	-3.90056E-002	6.89894E-001	-4.41946E-002	-6.14679E-004	4.52618E-005	-5.27726E-003	-4.96214E-003	2.49161E-004	3.47010E-004	-6.13760E-003	3.93174E-004
	132	132	4.99761E-002	-8.78259E-003	0.00000E+000	-4.38919E-004	-8.60667E-002	4.14846E-002	3.45199E+001	11	...........	6.91164E-002	-5.00736E-003	5.93195E-001	5.57820E-001	-2.80003E-002	-3.89840E-002	6.89979E-001	-4.41178E-002	-6.07021E-004	4.39776E-005	-5.20978E-003	-4.89910E-003	2.45915E-004	3.42381E-004	-6.05980E-003	3.87468E-004
	133	133	4.99763E-002	-8.66457E-003	0.00000E+000	-4.33023E-004	-8.48963E-002	4.14972E-002	3.45730E+001	11	...........	6.91394E-002	-5.01028E-003	5.93193E-001	5.57827E-001	-2.79853E-002	-3.89639E-002	6.89994E-001	-4.40846E-002	-5.99063E-004	4.34119E-005	-5.13976E-003	-4.83333E-003	2.42480E-004	3.37605E-004	-5.97850E-003	3.81974E-004
	134	134	4.99763E-002	-8.55899E-003	0.00000E+000	-4.27746E-004	-8.38433E-002	4.15202E-002	3.45990E+001	11	...........	6.91667E-002	-4.98014E-003	5.93096E-001	5.57844E-001	-2.79860E-002	-3.89835E-002	6.89906E-001	-4.41525E-002	-5.91997E-004	4.26250E-005	-5.07630E-003	-4.77459E-003	2.39532E-004	3.33659E-004	-5.90490E-003	3.77901E-004
	135	135	4.99762E-002	-8.46491E-003	0.00000E+000	-4.23044E-004	-8.29063E-002	4.15280E-002	3.45899E+001	11	...........	6.91969E-002	-5.06569E-003	5.93017E-001	5.58035E-001	-2.79974E-002	-3.89807E-002	6.90065E-001	-4.40262E-002	-5.85746E-004	4.28806E-005	-5.01984E-003	-4.72372E-003	2.36995E-004	3.29968E-004	-5.84134E-003	3.72678E-004
	136	136	4.99762E-002	-8.35172E-003	0.00000E+000	-4.17387E-004	-8.17827E-002	4.15525E-002	3.45818E+001	11	...........	6.92299E-002	-5.06653E-003	5.92961E-001	5.58107E-001	-2.79887E-002	-3.89928E-002	6.90051E-001	-4.39978E-002	-5.78188E-004	4.23142E-005	-4.95224E-003	-4.66115E-003	2.33754E-004	3.25657E-004	-5.76311E-003	3.67457E-004
	137	137	4.99755E-002	-8.22008E-003	0.00000E+000	-4.10803E-004	-8.04703E-002	4.15741E-002	3.45953E+001	11	...........	6.92642E-002	-5.11444E-003	5.93071E-001	5.58123E-001	-2.79860E-002	-3.90069E-002	6.90018E-001	-4.40836E-002	-5.69357E-004	4.20412E-005	-4.87509E-003	-4.58782E-003	2.30047E-004	3.20640E-004	-5.67201E-003	3.62371E-004
	138	138	4.99765E-002	-8.10018E-003	0.00000E+000	-4.04819E-004	-7.92763E-002	4.15921E-002	3.46126E+001	11	...........	6.92957E-002	-5.21597E-003	5.93119E-001	5.58065E-001	-2.79658E-002	-3.90044E-002	6.89865E-001	-4.40062E-002	-5.61308E-004	4.22503E-005	-4.80437E-003	-4.52043E-003	2.26528E-004	3.15943E-004	-5.58803E-003	3.56459E-004
	139	139	4.99765E-002	-8.01827E-003	0.00000E+000	-4.00725E-004	-7.84620E-002	4.15976E-002	3.46141E+001	11	...........	6.93103E-002	-5.21667E-003	5.93161E-001	5.57965E-001	-2.79629E-002	-3.89924E-002	6.89836E-001	-4.40292E-002	-5.55748E-004	4.18286E-005	-4.75612E-003	-4.47391E-003	2.24214E-004	3.12651E-004	-5.53129E-003	3.53038E-004
	140	140	4.99761E-002	-7.90882E-003	0.00000E+000	-3.95252E-004	-7.73757E-002	4.16134E-002	3.46421E+001	11	...........	6.93250E-002	-5.19028E-003	5.93027E-001	5.57882E-001	-2.79489E-002	-3.89664E-002	6.89883E-001	-4.39443E-002	-5.48279E-004	4.10490E-005	-4.69014E-003	-4.41219E-003	2.21043E-004	3.08178E-004	-5.45616E-003	3.47548E-004
	141	141	4.99762E-002	-7.79792E-003	0.00000E+000	-3.89710E-004	-7.62930E-002	4.16157E-002	3.46313E+001	11	...........	6.93508E-002	-5.13583E-003	5.93027E-001	5.57859E-001	-2.79661E-002	-3.89761E-002	6.89948E-001	-4.38958E-002	-5.40792E-004	4.00488E-005	-4.62438E-003	-4.35013E-003	2.18077E-004	3.03932E-004	-5.38016E-003	3.42296E-004
	142	142	4.99764E-002	-7.69434E-003	0.00000E+000	-3.84535E-004	-7.52550E-002	4.16374E-002	3.46360E+001	11	...........	6.93554E-002	-5.11333E-003	5.92892E-001	5.57966E-001	-2.79528E-002	-3.89806E-002	6.89852E-001	-4.39092E-002	-5.33644E-004	3.93437E-005	-4.56192E-003	-4.29318E-003	2.15078E-004	2.99930E-004	-5.30795E-003	3.37852E-004
	143	143	4.99761E-002	-7.59024E-003	0.00000E+000	-3.79331E-004	-7.42147E-002	4.16377E-002	3.46486E+001	11	...........	6.93650E-002	-5.05556E-003	5.92846E-001	5.57982E-001	-2.79419E-002	-3.89840E-002	6.89851E-001	-4.39099E-002	-5.26497E-004	3.83729E-005	-4.49984E-003	-4.23522E-003	2.12086E-004	2.95898E-004	-5.23613E-003	3.33286E-004
	144	144	4.99764E-002	-7.49437E-003	0.00000E+000	-3.74542E-004	-7.32583E-002	4.16386E-002	3.46419E+001	11	...........	6.93779E-002	-5.15069E-003	5.92857E-001	5.57922E-001	-2.79622E-002	-3.90071E-002	6.89886E-001	-4.39797E-002	-5.19944E-004	3.86012E-005	-4.44309E-003	-4.18127E-003	2.09559E-004	2.92333E-004	-5.17026E-003	3.29600E-004
	145	145	4.99766E-002	-7.41464E-003	0.00000E+000	-3.70558E-004	-7.24663E-002	4.16508E-002	3.46251E+001	11	...........	6.93815E-002	-5.11111E-003	5.92654E-001	5.57842E-001	-2.79679E-002	-3.90114E-002	6.89984E-001	-4.38869E-002	-5.14439E-004	3.78970E-005	-4.39431E-003	-4.13620E-003	2.07372E-004	2.89255E-004	-5.11598E-003	3.25406E-004
	146	146	4.99762E-002	-7.33540E-003	0.00000E+000	-3.66596E-004	-7.16790E-002	4.16562E-002	3.46301E+001	11	...........	6.94235E-002	-5.17125E-003	5.92620E-001	5.57989E-001	-2.79583E-002	-3.90051E-002	6.90099E-001	-4.39533E-002	-5.09249E-004	3.79332E-005	-4.34711E-003	-4.09307E-003	2.05085E-004	2.86118E-004	-5.06215E-003	3.22415E-004
	147	147	4.99766E-002	-7.25088E-003	0.00000E+000	-3.62374E-004	-7.08327E-002	4.16547E-002	3.46267E+001	11	...........	6.94137E-002	-5.12361E-003	5.92552E-001	5.58111E-001	-2.79731E-002	-3.90006E-002	6.90141E-001	-4.39804E-002	-5.03311E-004	3.71507E-005	-4.29652E-003	-4.04680E-003	2.02829E-004	2.82788E-004	-5.00413E-003	3.18897E-004
	148	148	4.99765E-002	-7.15867E-003	0.00000E+000	-3.57765E-004	-6.99137E-002	4.16618E-002	3.46188E+001	11	...........	6.94261E-002	-5.11125E-003	5.92547E-001	5.58007E-001	-2.79860E-002	-3.89967E-002	6.89979E-001	-4.39625E-002	-4.96999E-004	3.65898E-005	-4.24185E-003	-3.99459E-003	2.00342E-004	2.79164E-004	-4.93933E-003	3.14713E-004
	149	149	4.99767E-002	-7.08441E-003	0.00000E+000	-3.54055E-004	-6.91743E-002	4.16722E-002	3.46609E+001	11	...........	6.94375E-002	-5.11194E-003	5.92468E-001	5.57931E-001	-2.80044E-002	-3.89704E-002	6.90002E-001	-4.39567E-002	-4.91924E-004	3.62151E-005	-4.19729E-003	-3.95261E-003	1.98395E-004	2.76082E-004	-4.88825E-003	3.11407E-004
	150	150	4.99763E-002	-7.00512E-003	0.00000E+000	-3.50090E-004	-6.83893E-002	4.16852E-002	3.46917E+001	11	...........	6.94503E-002	-5.17917E-003	5.92493E-001	5.57892E-001	-2.80061E-002	-3.89844E-002	6.89967E-001	-4.40492E-002	-4.86507E-004	3.62807E-005	-4.15049E-003	-3.90810E-003	1.96186E-004	2.73091E-004	-4.83330E-003	3.08570E-004
	151	151	4.99765E-002	-6.91302E-003	0.00000E+000	-3.45488E-004	-6.74697E-002	4.16875E-002	3.47015E+001	11	...........	6.94476E-002	-5.21375E-003	5.92364E-001	5.57744E-001	-2.80144E-002	-3.89822E-002	6.89833E-001	-4.39717E-002	-4.80093E-004	3.60427E-005	-4.09502E-003	-3.85569E-003	1.93664E-004	2.69485E-004	-4.76883E-003	3.03977E-004
	152	152	4.99763E-002	-6.81666E-003	0.00000E+000	-3.40672E-004	-6.65103E-002	4.16942E-002	3.47234E+001	11	...........	6.94628E-002	-5.22833E-003	5.92514E-001	5.57795E-001	-2.79918E-002	-3.89685E-002	6.90098E-001	-4.39168E-002	-4.73504E-004	3.56398E-005	-4.03897E-003	-3.80230E-003	1.90811E-004	2.65635E-004	-4.70416E-003	2.99366E-004
	153	153	4.99766E-002	-6.74737E-003	0.00000E+000	-3.37210E-004	-6.58137E-002	4.16967E-002	3.47238E+001	11	...........	6.94692E-002	-5.17014E-003	5.92615E-001	5.57851E-001	-2.79617E-002	-3.89814E-002	6.90141E-001	-4.40119E-002	-4.68734E-004	3.48848E-005	-3.99859E-003	-3.76402E-003	1.88668E-004	2.63022E-004	-4.65664E-003	2.96965E-004
	154	154	4.99764E-002	-6.65029E-003	0.00000E+000	-3.32357E-004	-6.48513E-002	4.17038E-002	3.47230E+001	11	...........	6.94846E-002	-5.14194E-003	5.92795E-001	5.57909E-001	-2.79542E-002	-3.89896E-002	6.89988E-001	-4.40583E-002	-4.62092E-004	3.41954E-005	-3.94225E-003	-3.71025E-003	1.85903E-004	2.59292E-004	-4.58862E-003	2.93001E-004
	155	155	4.99767E-002	-6.58056E-003	0.00000E+000	-3.28874E-004	-6.41447E-002	4.17077E-002	3.47380E+001	11	...........	6.95029E-002	-5.15681E-003	5.92791E-001	5.57982E-001	-2.79808E-002	-3.90139E-002	6.90073E-001	-4.40260E-002	-4.57368E-004	3.39347E-005	-3.90090E-003	-3.67183E-003	1.84130E-004	2.56733E-004	-4.54107E-003	2.89716E-004
	156	156	4.99764E-002	-6.48735E-003	0.00000E+000	-3.24214E-004	-6.32327E-002	4.17123E-002	3.47311E+001	11	...........	6.94967E-002	-5.22208E-003	5.92726E-001	5.58004E-001	-2.79742E-002	-3.89983E-002	6.90020E-001	-4.40283E-002	-4.50849E-004	3.38775E-005	-3.84523E-003	-3.61997E-003	1.81478E-004	2.52996E-004	-4.47640E-003	2.85627E-004
	157	157	4.99768E-002	-6.40505E-003	0.00000E+000	-3.20103E-004	-6.24243E-002	4.17154E-002	3.46992E+001	11	...........	6.95130E-002	-5.25875E-003	5.92579E-001	5.57977E-001	-2.79589E-002	-3.89618E-002	6.90089E-001	-4.40165E-002	-4.45234E-004	3.36825E-005	-3.79550E-003	-3.57387E-003	1.79078E-004	2.49552E-004	-4.42005E-003	2.81928E-004
	158	158	4.99763E-002	-6.32729E-003	0.00000E+000	-3.16214E-004	-6.16543E-002	4.17285E-002	3.46993E+001	11	...........	6.95128E-002	-5.21111E-003	5.92511E-001	5.58061E-001	-2.79354E-002	-3.89253E-002	6.90002E-001	-4.39465E-002	-4.39827E-004	3.29722E-005	-3.74899E-003	-3.53101E-003	1.76755E-004	2.46291E-004	-4.36584E-003	2.78062E-004
	159	159	4.99767E-002	-6.24233E-003	0.00000E+000	-3.11971E-004	-6.08043E-002	4.17379E-002	3.47032E+001	11	...........	6.95401E-002	-5.14972E-003	5.92437E-001	5.58163E-001	-2.79422E-002	-3.89236E-002	6.90097E-001	-4.38812E-002	-4.34093E-004	3.21463E-005	-3.69819E-003	-3.48424E-003	1.74425E-004	2.42974E-004	-4.30782E-003	2.73921E-004
	160	160	4.99766E-002	-6.17763E-003	0.00000E+000	-3.08737E-004	-6.01607E-002	4.17424E-002	3.47075E+001	11	...........	6.95290E-002	-5.20153E-003	5.92348E-001	5.58132E-001	-2.79596E-002	-3.89276E-002	6.90038E-001	-4.37910E-002	-4.29525E-004	3.21331E-005	-3.65931E-003	-3.44793E-003	1.72724E-004	2.40481E-004	-4.26280E-003	2.70525E-004
	161	161	4.99766E-002	-6.09978E-003	0.00000E+000	-3.04847E-004	-5.93867E-002	4.17487E-002	3.47263E+001	11	...........	6.95589E-002	-5.15667E-003	5.92221E-001	5.58081E-001	-2.79890E-002	-3.89432E-002	6.89925E-001	-4.39104E-002	-4.24294E-004	3.14546E-005	-3.61242E-003	-3.40417E-003	1.70727E-004	2.37545E-004	-4.20839E-003	2.67844E-004
	162	162	4.99765E-002	-6.03034E-003	0.00000E+000	-3.01375E-004	-5.86950E-002	4.17536E-002	3.47294E+001	11	...........	6.95546E-002	-5.17472E-003	5.92259E-001	5.58132E-001	-2.80006E-002	-3.89307E-002	6.89824E-001	-4.38932E-002	-4.19438E-004	3.12053E-005	-3.57152E-003	-3.36572E-003	1.68853E-004	2.34765E-004	-4.15987E-003	2.64691E-004
	163	163	4.99770E-002	-5.96304E-003	0.00000E+000	-2.98015E-004	-5.80247E-002	4.17573E-002	3.47334E+001	11	...........	6.95737E-002	-5.28917E-003	5.92327E-001	5.58070E-001	-2.79949E-002	-3.89257E-002	6.89810E-001	-4.39840E-002	-4.14871E-004	3.15395E-005	-3.53207E-003	-3.32779E-003	1.66934E-004	2.32115E-004	-4.11336E-003	2.62278E-004
	164	164	4.99764E-002	-5.89434E-003	0.00000E+000	-2.94578E-004	-5.73360E-002	4.17659E-002	3.47558E+001	11	...........	6.95800E-002	-5.19097E-003	5.92245E-001	5.58058E-001	-2.79711E-002	-3.89364E-002	6.89837E-001	-4.40001E-002	-4.10128E-004	3.05974E-005	-3.49089E-003	-3.28939E-003	1.64871E-004	2.29504E-004	-4.06614E-003	2.59352E-004
	165	165	4.99768E-002	-5.82282E-003	0.00000E+000	-2.91005E-004	-5.66247E-002	4.17698E-002	3.47485E+001	11	...........	6.95914E-002	-5.15861E-003	5.92206E-001	5.58139E-001	-2.79311E-002	-3.89419E-002	6.89923E-001	-4.40542E-002	-4.05218E-004	3.00376E-005	-3.44831E-003	-3.24994E-003	1.62638E-004	2.26752E-004	-4.01729E-003	2.56519E-004
	166	166	4.99767E-002	-5.75778E-003	0.00000E+000	-2.87755E-004	-5.59810E-002	4.17760E-002	3.47654E+001	11	...........	6.96060E-002	-5.21222E-003	5.92121E-001	5.58150E-001	-2.79511E-002	-3.89447E-002	6.89794E-001	-4.40479E-002	-4.00776E-004	3.00109E-005	-3.40930E-003	-3.21371E-003	1.60936E-004	2.24235E-004	-3.97168E-003	2.53618E-004
	167	167	4.99768E-002	-5.69046E-003	0.00000E+000	-2.84391E-004	-5.53193E-002	4.17918E-002	3.47814E+001	11	...........	6.96122E-002	-5.20528E-003	5.92168E-001	5.58027E-001	-2.79712E-002	-3.89346E-002	6.89823E-001	-4.40242E-002	-3.96125E-004	2.96204E-005	-3.36971E-003	-3.17543E-003	1.59169E-004	2.21556E-004	-3.92541E-003	2.50518E-004
	168	168	4.99766E-002	-5.64856E-003	0.00000E+000	-2.82296E-004	-5.48933E-002	4.17878E-002	3.48028E+001	11	...........	6.96168E-002	-5.12444E-003	5.92221E-001	5.58175E-001	-2.80019E-002	-3.89546E-002	6.89783E-001	-4.40019E-002	-3.93235E-004	2.89457E-005	-3.34519E-003	-3.15289E-003	1.58171E-004	2.20037E-004	-3.89628E-003	2.48548E-004
	169	169	4.99766E-002	-5.57031E-003	0.00000E+000	-2.78385E-004	-5.41117E-002	4.17914E-002	3.48268E+001	11	...........	6.96251E-002	-5.15458E-003	5.92223E-001	5.58192E-001	-2.80119E-002	-3.89425E-002	6.89891E-001	-4.40000E-002	-3.87833E-004	2.87126E-005	-3.29887E-003	-3.10930E-003	1.56035E-004	2.16922E-004	-3.84291E-003	2.45094E-004
	170	170	4.99770E-002	-5.50782E-003	0.00000E+000	-2.75264E-004	-5.34890E-002	4.17917E-002	3.48433E+001	11	...........	6.96283E-002	-5.17431E-003	5.92266E-001	5.58239E-001	-2.80075E-002	-3.89382E-002	6.89839E-001	-4.39747E-002	-3.83500E-004	2.84991E-005	-3.26209E-003	-3.07468E-003	1.54260E-004	2.14464E-004	-3.79951E-003	2.42205E-004
	171	171	4.99767E-002	-5.44928E-003	0.00000E+000	-2.72337E-004	-5.29087E-002	4.17847E-002	3.48618E+001	11	...........	6.96290E-002	-5.22194E-003	5.92175E-001	5.58361E-001	-2.79935E-002	-3.89592E-002	6.89815E-001	-4.39826E-002	-3.79428E-004	2.84558E-005	-3.22693E-003	-3.04266E-003	1.52544E-004	2.12299E-004	-3.75899E-003	2.39674E-004
	172	172	4.99769E-002	-5.38566E-003	0.00000E+000	-2.69158E-004	-5.22820E-002	4.17936E-002	3.48609E+001	11	...........	6.96325E-002	-5.24278E-003	5.92327E-001	5.58402E-001	-2.79964E-002	-3.89511E-002	6.89905E-001	-4.40028E-002	-3.75017E-004	2.82358E-005	-3.19007E-003	-3.00736E-003	1.50779E-004	2.09777E-004	-3.71559E-003	2.36984E-004
	173	173	4.99767E-002	-5.32682E-003	0.00000E+000	-2.66217E-004	-5.16880E-002	4.16218E-002	3.48464E+001	11	...........	6.96458E-002	-5.16597E-003	5.92329E-001	5.58261E-001	-2.80157E-002	-3.89393E-002	6.90022E-001	-4.39856E-002	-3.70991E-004	2.75182E-005	-3.15523E-003	-2.97376E-003	1.49235E-004	2.07423E-004	-3.67562E-003	2.34303E-004
	174	174	4.99768E-002	-5.26756E-003	0.00000E+000	-2.63256E-004	-5.11130E-002	4.18040E-002	3.48357E+001	11	...........	6.96483E-002	-5.19583E-003	5.92241E-001	5.58346E-001	-2.80174E-002	-3.89485E-002	6.90109E-001	-4.40657E-002	-3.66876E-004	2.73693E-005	-3.11966E-003	-2.94112E-003	1.47583E-004	2.05163E-004	-3.63519E-003	2.32119E-004
	175	175	4.99768E-002	-5.21172E-003	0.00000E+000	-2.60465E-004	-5.05660E-002	4.18192E-002	3.48253E+001	11	...........	6.96637E-002	-5.24389E-003	5.92194E-001	5.58396E-001	-2.80414E-002	-3.89610E-002	6.90093E-001	-4.39882E-002	-3.63068E-004	2.73297E-005	-3.08635E-003	-2.91020E-003	1.46144E-004	2.03053E-004	-3.59657E-003	2.29254E-004
	176	176	4.99768E-002	-5.15746E-003	0.00000E+000	-2.57753E-004	-5.00223E-002	4.18150E-002	3.48089E+001	11	...........	6.96675E-002	-5.23681E-003	5.92114E-001	5.58279E-001	-2.80543E-002	-3.89432E-002	6.89975E-001	-4.40308E-002	-3.59308E-004	2.70086E-005	-3.05380E-003	-2.87930E-003	1.44689E-004	2.00848E-004	-3.55852E-003	2.27087E-004
	177	177	4.99770E-002	-5.10899E-003	0.00000E+000	-2.55332E-004	-4.95400E-002	4.18606E-002	3.48178E+001	11	...........	6.97425E-002	-5.21292E-003	5.92116E-001	5.58257E-001	-2.80558E-002	-3.89660E-002	6.90055E-001	-4.39624E-002	-3.56314E-004	2.66327E-005	-3.02511E-003	-2.85213E-003	1.43337E-004	1.99077E-004	-3.52548E-003	2.24603E-004
	178	177.913	4.99767E-002	-5.06058E-003	0.00000E+000	-2.52911E-004	-4.90580E-002	4.18184E-002	3.47909E+001	11	...........	6.96665E-002	-5.27129E-003	5.92313E-001	5.58222E-001	-2.80315E-002	-3.89728E-002	6.90210E-001	-4.39200E-002	-3.52553E-004	2.66758E-005	-2.99745E-003	-2.82493E-003	1.41856E-004	1.97225E-004	-3.49287E-003	2.22261E-004
STARTTIMEOFFSET	QUANT	551794.5	Start Time Offset (s)
