EXPLAIN
TAG	PWR800_DISCHARGE
TITLE	LABEL	PWR Discharge	Test Identifier
DATE	LABEL	10/14/2022	Date
TIME	LABEL	19:40:28	Time
NOTES	NOTES	1	Notes...
	
PSTAT	PSTAT	REF3000-21114	Potentiostat
CAPACITY	QUANT	5.30000E-002	Capacity (A-hr)
CELLTYPE	SELECTOR	1	Cell Type
WORKINGCONNECTION	SELECTOR	0	Working Connection
MAXDISCHARGETIME	VARIABLEANDUNITS	7.20000E+003	s	2.00000E+000	hour(s)	Max Discharge Time
DISCHARGEMODE	MULTIPARAM	0	1.00000E-001	Discharge Mode	Constant Current	Amp(s)
VOLTAGEFINISH	TWOPARAM	T	5.00000E-003	7.20000E+003	Voltage Finish	I (A) <	Max Time(s)
SAMPLETIME	QUANT	1.00000E+000	Sample Period (s)
DISCHARGESTOPAT1	MULTIPARAM	1	5.00000E-002	Stop At 1	|Voltage| < Limit	V
DISCHARGESTOPAT2	MULTIPARAM	0	0.00000E+000	Stop At 2	None	N/A
AESELECTOR	AESELECTOR	0x1	T	Set Limits	AE Channels
AESBHCSELECTOR	TOGGLE	F	Save Both Half Cells
IRCOMP	TOGGLE	F	IR Measure
EOC	QUANT	0.5721026	Open Circuit (V)
SEQUENCER	TOGGLE	TRUE	Run as Sequence
PSTATMODEL	IQUANT	5	Pstat Model
PSTATSECTION	LABEL	REF3000-21114	Pstat Section
PSTATSERIALNO	LABEL	21114	Pstat Serial Number
CTRLMODE	IQUANT	0	Control Mode
ELECTROMETER	IQUANT	0	RE=0 or CS=1
IESTAB	IQUANT	0	I/E Stability
CASPEED	IQUANT	4	Control Amp Speed
CONVENTION	IQUANT	1	Current Convention
ICHRANGE	IQUANT	2	Ich Range
ICHRANGEMODE	TOGGLE	T	Ich Auto Range
ICHOFFSETENABLE	TOGGLE	F	Ich Offset Enable
ICHOFFSET	QUANT	0	Ich Offset (V)
ICHFILTER	IQUANT	1	Ich Filter
VCHRANGE	IQUANT	3	Vch Range
VCHRANGEMODE	TOGGLE	T	Vch Auto Range
VCHOFFSETENABLE	TOGGLE	F	Vch Offset Enable
VCHOFFSET	QUANT	0	Vch Offset (V)
VCHFILTER	IQUANT	1	Vch Filter
ACHRANGE	IQUANT	2	Ach Range
ACHOFFSETENABLE	TOGGLE	F	Ach Offset Enable
ACHOFFSET	QUANT	0	Ach Offset (V)
ACHFILTER	IQUANT	1	Ach Filter
IERANGELOWERLIMIT	IQUANT	9	I/E Range Lower Limit
IERANGEMODE	TOGGLE	F	I/E AutoRange
IERANGE	IQUANT	9	I/E Range
POSFEEDENABLE	TOGGLE	F	Positive Feedback IR Comp
POSFEEDRESISTANCE	QUANT	0	Positive Feedback Resistance (ohm)
ACHSELECT	IQUANT	1	Ach Select
SENSECABLEID	IQUANT	13	Sense Cable ID
PWRCABLEID	IQUANT	13	Power Cable ID
DCCALDATE	LABEL		DC Calibration Date
ACCALDATE	LABEL		AC Calibration Date
THERMOSELECT	IQUANT	1	Thermo Select
FRAMEWORKVERSION	LABEL	7.8.6	Framework Version
INSTRUMENTVERSION	LABEL	4.50	Instrument Version
COMPLIANCEVOLTAGE	IQUANT	0	Compliance Voltage
CURVE	TABLE	235
	Pt	T	Vf	Im	Vu	Pwr	Sig	Ach	Temp	IERange	Over	Vf1	Vf2	Vf3	Vf4	Vf5	Vf6	Vf7	Vf8	Pwr1	Pwr2	Pwr3	Pwr4	Pwr5	Pwr6	Pwr7	Pwr8
	#	s	V	A	V	W	V	V	deg C	#	bits	V	V	V	V	V	V	V	V	W	W	W	W	W	W	W	W
	0	1	3.47426E-001	-1.00096E-001	0.00000E+000	-3.47758E-002	-9.94000E-001	3.64306E-002	3.22732E+001	11	...........	6.05414E-002	-5.20903E-003	6.09745E-001	5.27374E-001	-2.58039E-002	-3.69321E-002	7.07957E-001	-4.37599E-002	-6.05994E-003	5.21402E-004	-6.10329E-002	-5.27880E-002	2.58286E-003	3.69675E-003	-7.08635E-002	4.38018E-003
	1	2	2.59854E-001	-1.00096E-001	0.00000E+000	-2.60104E-002	-9.94000E-001	3.64071E-002	3.09496E+001	11	...........	6.04932E-002	-5.13806E-003	6.09568E-001	5.27177E-001	-2.57778E-002	-3.69315E-002	7.07967E-001	-4.36361E-002	-6.05514E-003	5.14300E-004	-6.10154E-002	-5.27684E-002	2.58026E-003	3.69671E-003	-7.08649E-002	4.36781E-003
	2	3	1.95389E-001	-1.00097E-001	0.00000E+000	-1.95577E-002	-9.94000E-001	3.63981E-002	3.05840E+001	11	...........	6.04578E-002	-5.18889E-003	6.09455E-001	5.27228E-001	-2.57756E-002	-3.69278E-002	7.07930E-001	-4.37533E-002	-6.05161E-003	5.19390E-004	-6.10043E-002	-5.27737E-002	2.58004E-003	3.69634E-003	-7.08613E-002	4.37956E-003
	3	4	1.43290E-001	-1.00097E-001	0.00000E+000	-1.43428E-002	-9.94000E-001	3.62930E-002	2.97281E+001	11	...........	6.03131E-002	-5.20972E-003	6.09483E-001	5.27316E-001	-2.57826E-002	-3.69358E-002	7.07838E-001	-4.38464E-002	-6.03714E-003	5.21476E-004	-6.10073E-002	-5.27826E-002	2.58076E-003	3.69716E-003	-7.08522E-002	4.38888E-003
	4	5	1.00881E-001	-1.00097E-001	0.00000E+000	-1.00979E-002	-9.94000E-001	3.62973E-002	2.94003E+001	11	...........	6.03125E-002	-5.24083E-003	6.09545E-001	5.27411E-001	-2.57918E-002	-3.69053E-002	7.07893E-001	-4.37774E-002	-6.03709E-003	5.24591E-004	-6.10136E-002	-5.27922E-002	2.58168E-003	3.69410E-003	-7.08579E-002	4.38198E-003
	5	6	6.67918E-002	-1.00097E-001	0.00000E+000	-6.68565E-003	-9.94000E-001	3.62288E-002	2.84898E+001	11	...........	6.02107E-002	-5.30069E-003	6.09482E-001	5.27399E-001	-2.57860E-002	-3.68989E-002	7.07831E-001	-4.37640E-002	-6.02690E-003	5.30583E-004	-6.10072E-002	-5.27909E-002	2.58109E-003	3.69346E-003	-7.08516E-002	4.38064E-003
	6	6.08667	5.08840E-002	-1.00097E-001	0.00000E+000	-5.09333E-003	-9.94000E-001	3.62163E-002	2.87553E+001	11	...........	6.01490E-002	-5.33494E-003	6.09329E-001	5.27409E-001	-2.59167E-002	-3.68478E-002	7.07857E-001	-4.36875E-002	-6.02073E-003	5.34010E-004	-6.09919E-002	-5.27919E-002	2.59418E-003	3.68834E-003	-7.08543E-002	4.37298E-003
	7	7	4.97870E-002	-9.21520E-002	0.00000E+000	-4.58797E-003	-9.14989E-001	3.64330E-002	2.92288E+001	11	...........	6.05674E-002	-5.38291E-003	6.09269E-001	5.27472E-001	-2.57918E-002	-3.69197E-002	7.07846E-001	-4.37664E-002	-5.58140E-003	4.96046E-004	-5.61454E-002	-4.86076E-002	2.37677E-003	3.40222E-003	-6.52294E-002	4.03316E-003
	8	8	4.98711E-002	-8.13668E-002	0.00000E+000	-4.05785E-003	-8.07759E-001	3.65157E-002	2.96940E+001	11	...........	6.06946E-002	-5.39111E-003	6.09429E-001	5.27379E-001	-2.57851E-002	-3.69542E-002	7.07896E-001	-4.37019E-002	-4.93852E-003	4.38657E-004	-4.95873E-002	-4.29111E-002	2.09805E-003	3.00684E-003	-5.75993E-002	3.55589E-003
	9	9	4.99054E-002	-7.54499E-002	0.00000E+000	-3.76536E-003	-7.48923E-001	3.66582E-002	3.02529E+001	11	...........	6.09289E-002	-5.33569E-003	6.09723E-001	5.27576E-001	-2.57811E-002	-3.69511E-002	7.07877E-001	-4.36876E-002	-4.59708E-003	4.02578E-004	-4.60035E-002	-3.98056E-002	1.94518E-003	2.78796E-003	-5.34093E-002	3.29623E-003
	10	10	4.99307E-002	-7.08057E-002	0.00000E+000	-3.53538E-003	-7.02765E-001	3.67613E-002	2.97958E+001	11	...........	6.10985E-002	-5.26819E-003	6.09857E-001	5.27588E-001	-2.57635E-002	-3.69529E-002	7.07804E-001	-4.37865E-002	-4.32612E-003	3.73018E-004	-4.31813E-002	-3.73562E-002	1.82420E-003	2.61648E-003	-5.01165E-002	3.10033E-003
	11	11	4.99305E-002	-6.70078E-002	0.00000E+000	-3.34573E-003	-6.65000E-001	3.66252E-002	2.97741E+001	11	...........	6.08693E-002	-5.26000E-003	6.09947E-001	5.27546E-001	-2.57850E-002	-3.69531E-002	7.07889E-001	-4.38769E-002	-4.07872E-003	3.52461E-004	-4.08712E-002	-3.53497E-002	1.72780E-003	2.47614E-003	-4.74341E-002	2.94010E-003
	12	12	4.99652E-002	-6.65397E-002	0.00000E+000	-3.32467E-003	-6.60343E-001	3.69707E-002	3.09139E+001	11	...........	6.14460E-002	-5.32222E-003	6.10278E-001	5.27547E-001	-2.58103E-002	-3.69578E-002	7.07771E-001	-4.38079E-002	-4.08859E-003	3.54139E-004	-4.06077E-002	-3.51028E-002	1.71741E-003	2.45916E-003	-4.70949E-002	2.91496E-003
	13	13	4.99426E-002	-6.49137E-002	0.00000E+000	-3.24196E-003	-6.44174E-001	3.69895E-002	3.06885E+001	11	...........	6.14446E-002	-5.25167E-003	6.10220E-001	5.27728E-001	-2.57944E-002	-3.69364E-002	7.07885E-001	-4.37026E-002	-3.98860E-003	3.40905E-004	-3.96116E-002	-3.42568E-002	1.67441E-003	2.39768E-003	-4.59514E-002	2.83690E-003
	14	14	4.99597E-002	-6.30974E-002	0.00000E+000	-3.15233E-003	-6.26110E-001	3.70528E-002	3.06423E+001	11	...........	6.15899E-002	-5.20236E-003	6.10030E-001	5.27892E-001	-2.57915E-002	-3.69137E-002	7.07887E-001	-4.35806E-002	-3.88616E-003	3.28256E-004	-3.84913E-002	-3.33086E-002	1.62738E-003	2.32916E-003	-4.46659E-002	2.74982E-003
	15	15	4.99647E-002	-6.18403E-002	0.00000E+000	-3.08983E-003	-6.13624E-001	3.70725E-002	3.11782E+001	11	...........	6.16121E-002	-5.23056E-003	6.09982E-001	5.28009E-001	-2.58028E-002	-3.69407E-002	7.07811E-001	-4.37263E-002	-3.81011E-003	3.23459E-004	-3.77215E-002	-3.26523E-002	1.59565E-003	2.28442E-003	-4.37713E-002	2.70405E-003
	16	16	4.99437E-002	-6.09918E-002	0.00000E+000	-3.04616E-003	-6.05186E-001	3.71750E-002	3.11213E+001	11	...........	6.17844E-002	-5.36083E-003	6.10134E-001	5.27947E-001	-2.57712E-002	-3.69276E-002	7.07785E-001	-4.37436E-002	-3.76834E-003	3.26967E-004	-3.72132E-002	-3.22004E-002	1.57183E-003	2.25228E-003	-4.31691E-002	2.66800E-003
	17	17	4.99653E-002	-5.92947E-002	0.00000E+000	-2.96268E-003	-5.88313E-001	3.71113E-002	3.05305E+001	11	...........	6.16837E-002	-5.34597E-003	6.10142E-001	5.27796E-001	-2.57768E-002	-3.69475E-002	7.07916E-001	-4.37290E-002	-3.65752E-003	3.16988E-004	-3.61782E-002	-3.12955E-002	1.52843E-003	2.19079E-003	-4.19757E-002	2.59290E-003
	18	18	4.99709E-002	-5.92550E-002	0.00000E+000	-2.96103E-003	-5.87925E-001	3.73587E-002	3.14562E+001	11	...........	6.20754E-002	-5.29806E-003	6.10042E-001	5.27857E-001	-2.57768E-002	-3.69547E-002	7.07931E-001	-4.37725E-002	-3.67828E-003	3.13936E-004	-3.61480E-002	-3.12782E-002	1.52741E-003	2.18975E-003	-4.19485E-002	2.59374E-003
	19	19	4.99619E-002	-5.87050E-002	0.00000E+000	-2.93301E-003	-5.82449E-001	3.73358E-002	3.14737E+001	11	...........	6.20651E-002	-5.34708E-003	6.09870E-001	5.27727E-001	-2.57547E-002	-3.69675E-002	7.07995E-001	-4.37633E-002	-3.64353E-003	3.13901E-004	-3.58024E-002	-3.09802E-002	1.51193E-003	2.17018E-003	-4.15628E-002	2.56913E-003
	20	20	4.99573E-002	-5.71929E-002	0.00000E+000	-2.85721E-003	-5.67404E-001	3.72399E-002	3.10847E+001	11	...........	6.20439E-002	-5.40111E-003	6.09849E-001	5.27602E-001	-2.57635E-002	-3.69697E-002	7.07997E-001	-4.37111E-002	-3.54847E-003	3.08905E-004	-3.48790E-002	-3.01751E-002	1.47349E-003	2.11441E-003	-4.04925E-002	2.49997E-003
	21	21	4.99653E-002	-5.69798E-002	0.00000E+000	-2.84702E-003	-5.65285E-001	3.73497E-002	3.16065E+001	11	...........	6.23218E-002	-5.29694E-003	6.09938E-001	5.27496E-001	-2.57660E-002	-3.69942E-002	7.08168E-001	-4.38685E-002	-3.55109E-003	3.01819E-004	-3.47541E-002	-3.00566E-002	1.46814E-003	2.10792E-003	-4.03513E-002	2.49962E-003
	22	22	4.99636E-002	-5.64649E-002	0.00000E+000	-2.82119E-003	-5.60165E-001	3.73152E-002	3.17917E+001	11	...........	6.22596E-002	-5.34681E-003	6.09988E-001	5.27525E-001	-2.57751E-002	-3.69900E-002	7.07933E-001	-4.37779E-002	-3.51548E-003	3.01907E-004	-3.44429E-002	-2.97867E-002	1.45539E-003	2.08864E-003	-3.99734E-002	2.47192E-003
	23	23	4.99590E-002	-5.51070E-002	0.00000E+000	-2.75309E-003	-5.46651E-001	3.73607E-002	3.12284E+001	11	...........	6.23385E-002	-5.36528E-003	6.09984E-001	5.27403E-001	-2.57694E-002	-3.69925E-002	7.08069E-001	-4.39151E-002	-3.43529E-003	2.95665E-004	-3.36144E-002	-2.90636E-002	1.42008E-003	2.03855E-003	-3.90196E-002	2.42003E-003
	24	24	4.99516E-002	-5.41587E-002	0.00000E+000	-2.70531E-003	-5.37221E-001	3.74048E-002	3.08225E+001	11	...........	6.24005E-002	-5.38056E-003	6.10054E-001	5.27287E-001	-2.57633E-002	-3.69894E-002	7.07985E-001	-4.38806E-002	-3.37953E-003	2.91404E-004	-3.30397E-002	-2.85572E-002	1.39531E-003	2.00330E-003	-3.83436E-002	2.37651E-003
	25	25	4.99828E-002	-5.40880E-002	0.00000E+000	-2.70347E-003	-5.36526E-001	3.74942E-002	3.16921E+001	11	...........	6.25736E-002	-5.40681E-003	6.09956E-001	5.27144E-001	-2.57874E-002	-3.70165E-002	7.07882E-001	-4.37960E-002	-3.38448E-003	2.92443E-004	-3.29913E-002	-2.85121E-002	1.39479E-003	2.00215E-003	-3.82879E-002	2.36883E-003
	26	26	4.99630E-002	-5.38414E-002	0.00000E+000	-2.69008E-003	-5.34070E-001	3.75427E-002	3.18480E+001	11	...........	6.26597E-002	-5.40403E-003	6.09871E-001	5.26925E-001	-2.57733E-002	-3.70468E-002	7.08032E-001	-4.37000E-002	-3.37369E-003	2.90961E-004	-3.28363E-002	-2.83704E-002	1.38767E-003	1.99465E-003	-3.81214E-002	2.35287E-003
	27	27	4.99633E-002	-5.31035E-002	0.00000E+000	-2.65323E-003	-5.26718E-001	3.76108E-002	3.20405E+001	11	...........	6.27618E-002	-5.47903E-003	6.09910E-001	5.27052E-001	-2.57954E-002	-3.70693E-002	7.08042E-001	-4.37539E-002	-3.33287E-003	2.90956E-004	-3.23884E-002	-2.79883E-002	1.36983E-003	1.96851E-003	-3.75995E-002	2.32349E-003
	28	28	4.99668E-002	-5.25237E-002	0.00000E+000	-2.62444E-003	-5.20963E-001	3.76284E-002	3.17908E+001	11	...........	6.27843E-002	-5.51361E-003	6.09824E-001	5.27173E-001	-2.58010E-002	-3.70490E-002	7.07890E-001	-4.38683E-002	-3.29767E-003	2.89595E-004	-3.20302E-002	-2.76891E-002	1.35516E-003	1.94595E-003	-3.71810E-002	2.30413E-003
	29	29	4.99546E-002	-5.18424E-002	0.00000E+000	-2.58977E-003	-5.14199E-001	3.76741E-002	3.18167E+001	11	...........	6.28562E-002	-5.32139E-003	6.09785E-001	5.27228E-001	-2.58029E-002	-3.70474E-002	7.07942E-001	-4.38410E-002	-3.25862E-003	2.75874E-004	-3.16128E-002	-2.73328E-002	1.33769E-003	1.92063E-003	-3.67014E-002	2.27282E-003
	30	30	4.99751E-002	-5.08278E-002	0.00000E+000	-2.54013E-003	-5.04131E-001	3.77665E-002	3.11667E+001	11	...........	6.30093E-002	-5.32069E-003	6.09733E-001	5.27163E-001	-2.57962E-002	-3.70319E-002	7.07767E-001	-4.37826E-002	-3.20263E-003	2.70439E-004	-3.09914E-002	-2.67945E-002	1.31117E-003	1.88225E-003	-3.59743E-002	2.22538E-003
	31	31	4.99593E-002	-4.97322E-002	0.00000E+000	-2.48459E-003	-4.93236E-001	3.75947E-002	3.12485E+001	11	...........	6.27624E-002	-5.35931E-003	6.09655E-001	5.27136E-001	-2.58044E-002	-3.69987E-002	7.07828E-001	-4.38906E-002	-3.12131E-003	2.66530E-004	-3.03195E-002	-2.62156E-002	1.28331E-003	1.84003E-003	-3.52018E-002	2.18277E-003
	32	32	4.99748E-002	-5.03740E-002	0.00000E+000	-2.51743E-003	-4.99603E-001	3.79354E-002	3.21454E+001	11	...........	6.32969E-002	-5.32861E-003	6.09760E-001	5.27208E-001	-2.57908E-002	-3.69865E-002	7.07755E-001	-4.38628E-002	-3.18852E-003	2.68423E-004	-3.07160E-002	-2.65576E-002	1.29919E-003	1.86316E-003	-3.56525E-002	2.20954E-003
	33	33	4.99502E-002	-4.96236E-002	0.00000E+000	-2.47871E-003	-4.92156E-001	3.78300E-002	3.18408E+001	11	...........	6.31260E-002	-5.32986E-003	6.09772E-001	5.27138E-001	-2.57865E-002	-3.69971E-002	7.07951E-001	-4.38361E-002	-3.13254E-003	2.64487E-004	-3.02591E-002	-2.61585E-002	1.27962E-003	1.83593E-003	-3.51311E-002	2.17530E-003
	34	34	4.99740E-002	-4.91008E-002	0.00000E+000	-2.45376E-003	-4.86964E-001	3.79500E-002	3.22413E+001	11	...........	6.33297E-002	-5.25569E-003	6.09896E-001	5.26940E-001	-2.58174E-002	-3.70067E-002	7.08085E-001	-4.37118E-002	-3.10954E-003	2.58059E-004	-2.99463E-002	-2.58732E-002	1.26765E-003	1.81706E-003	-3.47675E-002	2.14628E-003
	35	35	4.99708E-002	-4.88749E-002	0.00000E+000	-2.44232E-003	-4.84723E-001	3.79278E-002	3.23396E+001	11	...........	6.33017E-002	-5.27361E-003	6.09926E-001	5.27022E-001	-2.58017E-002	-3.70101E-002	7.07941E-001	-4.36985E-002	-3.09387E-003	2.57747E-004	-2.98101E-002	-2.57582E-002	1.26105E-003	1.80887E-003	-3.46006E-002	2.13576E-003
	36	36	4.99458E-002	-4.80544E-002	0.00000E+000	-2.40012E-003	-4.76543E-001	3.79852E-002	3.18012E+001	11	...........	6.33846E-002	-5.37139E-003	6.09728E-001	5.26968E-001	-2.57887E-002	-3.70129E-002	7.07938E-001	-4.38212E-002	-3.04591E-003	2.58119E-004	-2.93001E-002	-2.53231E-002	1.23926E-003	1.77864E-003	-3.40196E-002	2.10581E-003
	37	37	4.99756E-002	-4.68947E-002	0.00000E+000	-2.34359E-003	-4.65013E-001	3.79198E-002	3.16858E+001	11	...........	6.32649E-002	-5.37333E-003	6.09604E-001	5.26866E-001	-2.58071E-002	-3.70071E-002	7.07865E-001	-4.39293E-002	-2.96679E-003	2.51981E-004	-2.85872E-002	-2.47072E-002	1.21022E-003	1.73544E-003	-3.31951E-002	2.06005E-003
	38	38	4.99741E-002	-4.71813E-002	0.00000E+000	-2.35784E-003	-4.67865E-001	3.80629E-002	3.24661E+001	11	...........	6.34981E-002	-5.28403E-003	6.09413E-001	5.26873E-001	-2.58087E-002	-3.70314E-002	7.07896E-001	-4.38862E-002	-2.99592E-003	2.49307E-004	-2.87529E-002	-2.48585E-002	1.21769E-003	1.74719E-003	-3.33994E-002	2.07061E-003
	39	39	4.99639E-002	-4.66697E-002	0.00000E+000	-2.33180E-003	-4.62779E-001	3.80891E-002	3.23972E+001	11	...........	6.35300E-002	-5.28181E-003	6.09470E-001	5.26841E-001	-2.57839E-002	-3.70503E-002	7.08037E-001	-4.38689E-002	-2.96493E-003	2.46500E-004	-2.84438E-002	-2.45875E-002	1.20333E-003	1.72913E-003	-3.30439E-002	2.04735E-003
	40	40	4.99496E-002	-4.60681E-002	0.00000E+000	-2.30108E-003	-4.56796E-001	3.81264E-002	3.19655E+001	11	...........	6.36104E-002	-5.29000E-003	6.09401E-001	5.26844E-001	-2.58010E-002	-3.70647E-002	7.07934E-001	-4.38500E-002	-2.93041E-003	2.43700E-004	-2.80740E-002	-2.42707E-002	1.18860E-003	1.70750E-003	-3.26132E-002	2.02009E-003
	41	41	4.99774E-002	-4.54261E-002	0.00000E+000	-2.27028E-003	-4.50399E-001	3.81723E-002	3.25168E+001	11	...........	6.36983E-002	-5.38000E-003	6.09377E-001	5.26856E-001	-2.57819E-002	-3.70625E-002	7.07906E-001	-4.38146E-002	-2.89357E-003	2.44393E-004	-2.76817E-002	-2.39330E-002	1.17117E-003	1.68361E-003	-3.21575E-002	1.99033E-003
	42	42	4.99562E-002	-4.48098E-002	0.00000E+000	-2.23852E-003	-4.44277E-001	3.80613E-002	3.16374E+001	11	...........	6.35060E-002	-5.43736E-003	6.09601E-001	5.26713E-001	-2.57842E-002	-3.70378E-002	7.07839E-001	-4.37324E-002	-2.84569E-003	2.43647E-004	-2.73161E-002	-2.36019E-002	1.15538E-003	1.65965E-003	-3.17181E-002	1.95964E-003
	43	43	4.99776E-002	-4.42645E-002	0.00000E+000	-2.21223E-003	-4.38861E-001	3.81805E-002	3.23880E+001	11	...........	6.37047E-002	-5.43986E-003	6.09594E-001	5.26770E-001	-2.57475E-002	-3.70379E-002	7.07878E-001	-4.38022E-002	-2.81986E-003	2.40793E-004	-2.69834E-002	-2.33172E-002	1.13970E-003	1.63947E-003	-3.13339E-002	1.93888E-003
	44	44	4.99675E-002	-4.43541E-002	0.00000E+000	-2.21626E-003	-4.39747E-001	3.82322E-002	3.29557E+001	11	...........	6.38057E-002	-5.33681E-003	6.09593E-001	5.26709E-001	-2.57764E-002	-3.70264E-002	7.07957E-001	-4.38742E-002	-2.83004E-003	2.36709E-004	-2.70379E-002	-2.33617E-002	1.14329E-003	1.64227E-003	-3.14008E-002	1.94600E-003
	45	45	4.99626E-002	-4.38067E-002	0.00000E+000	-2.18870E-003	-4.34312E-001	3.82591E-002	3.25737E+001	11	...........	6.38531E-002	-5.26264E-003	6.09712E-001	5.26632E-001	-2.57617E-002	-3.70264E-002	7.08074E-001	-4.38236E-002	-2.79719E-003	2.30539E-004	-2.67095E-002	-2.30700E-002	1.12853E-003	1.62200E-003	-3.10184E-002	1.91977E-003
	46	46	4.99671E-002	-4.27187E-002	0.00000E+000	-2.13453E-003	-4.23487E-001	3.82142E-002	3.21210E+001	11	...........	6.37676E-002	-5.34139E-003	6.09707E-001	5.26686E-001	-2.57547E-002	-3.70340E-002	7.08202E-001	-4.37792E-002	-2.72407E-003	2.28177E-004	-2.60459E-002	-2.24994E-002	1.10021E-003	1.58205E-003	-3.02535E-002	1.87019E-003
	47	47	4.99661E-002	-4.26319E-002	0.00000E+000	-2.13015E-003	-4.22625E-001	3.82980E-002	3.23179E+001	11	...........	6.39201E-002	-5.35444E-003	6.09505E-001	5.26656E-001	-2.57444E-002	-3.70207E-002	7.08143E-001	-4.37546E-002	-2.72504E-003	2.28270E-004	-2.59844E-002	-2.24524E-002	1.09754E-003	1.57826E-003	-3.01895E-002	1.86534E-003
	48	48	4.99695E-002	-4.21224E-002	0.00000E+000	-2.10484E-003	-4.17561E-001	3.82646E-002	3.24779E+001	11	...........	6.38485E-002	-5.39722E-003	6.09372E-001	5.26631E-001	-2.57390E-002	-3.70200E-002	7.07967E-001	-4.37415E-002	-2.68945E-003	2.27344E-004	-2.56682E-002	-2.21830E-002	1.08419E-003	1.55937E-003	-2.98213E-002	1.84250E-003
	49	49	4.99638E-002	-4.19774E-002	0.00000E+000	-2.09735E-003	-4.16117E-001	3.84579E-002	3.29268E+001	11	...........	6.41782E-002	-5.41375E-003	6.09408E-001	5.26455E-001	-2.57556E-002	-3.70400E-002	7.07931E-001	-4.37397E-002	-2.69404E-003	2.27255E-004	-2.55814E-002	-2.20992E-002	1.08115E-003	1.55484E-003	-2.97171E-002	1.83608E-003
	50	50	4.99534E-002	-4.12184E-002	0.00000E+000	-2.05900E-003	-4.08584E-001	3.84352E-002	3.21468E+001	11	...........	6.41378E-002	-5.34389E-003	6.09392E-001	5.26291E-001	-2.57510E-002	-3.70257E-002	7.07873E-001	-4.37969E-002	-2.64365E-003	2.20266E-004	-2.51181E-002	-2.16928E-002	1.06141E-003	1.52614E-003	-2.91774E-002	1.80524E-003
	51	51	4.99686E-002	-4.00607E-002	0.00000E+000	-2.00177E-003	-3.97075E-001	3.83348E-002	3.17030E+001	11	...........	6.39737E-002	-5.42514E-003	6.09402E-001	5.26188E-001	-2.57287E-002	-3.70310E-002	7.07837E-001	-4.37492E-002	-2.56283E-003	2.17335E-004	-2.44130E-002	-2.10794E-002	1.03071E-003	1.48349E-003	-2.83564E-002	1.75262E-003
	52	52	4.99791E-002	-4.00895E-002	0.00000E+000	-2.00364E-003	-3.97364E-001	3.84638E-002	3.27763E+001	11	...........	6.41871E-002	-5.35306E-003	6.09382E-001	5.26322E-001	-2.57414E-002	-3.70208E-002	7.07826E-001	-4.38175E-002	-2.57323E-003	2.14601E-004	-2.44298E-002	-2.11000E-002	1.03196E-003	1.48415E-003	-2.83764E-002	1.75662E-003
	53	53	4.99630E-002	-4.01317E-002	0.00000E+000	-2.00510E-003	-3.97781E-001	3.85647E-002	3.31262E+001	11	...........	6.43471E-002	-5.27236E-003	6.09479E-001	5.26570E-001	-2.57447E-002	-3.70175E-002	7.07807E-001	-4.37814E-002	-2.58236E-003	2.11589E-004	-2.44594E-002	-2.11322E-002	1.03318E-003	1.48558E-003	-2.84055E-002	1.75702E-003
	54	54	4.99590E-002	-3.94863E-002	0.00000E+000	-1.97270E-003	-3.91377E-001	3.85510E-002	3.25866E+001	11	...........	6.43454E-002	-5.22444E-003	6.09479E-001	5.26764E-001	-2.57458E-002	-3.70175E-002	7.07708E-001	-4.37654E-002	-2.54076E-003	2.06294E-004	-2.40660E-002	-2.08000E-002	1.01661E-003	1.46168E-003	-2.79447E-002	1.72813E-003
	55	55	4.99698E-002	-3.84732E-002	0.00000E+000	-1.92250E-003	-3.81303E-001	3.85558E-002	3.18976E+001	11	...........	6.43374E-002	-5.26403E-003	6.09668E-001	5.26789E-001	-2.57425E-002	-3.70182E-002	7.07839E-001	-4.38264E-002	-2.47527E-003	2.02524E-004	-2.34559E-002	-2.02673E-002	9.90397E-004	1.42421E-003	-2.72328E-002	1.68614E-003
	56	56	4.99736E-002	-3.82691E-002	0.00000E+000	-1.91244E-003	-3.79272E-001	3.85526E-002	3.25610E+001	11	...........	6.43264E-002	-5.30528E-003	6.09625E-001	5.26754E-001	-2.57426E-002	-3.70232E-002	7.07825E-001	-4.38150E-002	-2.46171E-003	2.03028E-004	-2.33298E-002	-2.01584E-002	9.85147E-004	1.41684E-003	-2.70878E-002	1.67676E-003
	57	57	4.99661E-002	-3.84846E-002	0.00000E+000	-1.92293E-003	-3.81420E-001	3.86637E-002	3.33617E+001	11	...........	6.45092E-002	-5.39208E-003	6.09639E-001	5.26822E-001	-2.57425E-002	-3.70143E-002	7.07927E-001	-4.37508E-002	-2.48261E-003	2.07512E-004	-2.34617E-002	-2.02746E-002	9.90691E-004	1.42448E-003	-2.72443E-002	1.68374E-003
	58	58	4.99584E-002	-3.79739E-002	0.00000E+000	-1.89712E-003	-3.76332E-001	3.86609E-002	3.25780E+001	11	...........	6.45222E-002	-5.40514E-003	6.09682E-001	5.26881E-001	-2.57321E-002	-3.70471E-002	7.07823E-001	-4.36612E-002	-2.45016E-003	2.05254E-004	-2.31520E-002	-2.00077E-002	9.77148E-004	1.40682E-003	-2.68788E-002	1.65799E-003
	59	59	4.99725E-002	-3.71089E-002	0.00000E+000	-1.85443E-003	-3.67729E-001	3.86420E-002	3.31045E+001	11	...........	6.44896E-002	-5.38278E-003	6.09789E-001	5.26828E-001	-2.57342E-002	-3.70514E-002	7.07775E-001	-4.36260E-002	-2.39314E-003	1.99749E-004	-2.26286E-002	-1.95500E-002	9.54967E-004	1.37494E-003	-2.62647E-002	1.61891E-003
	60	60	4.99632E-002	-3.68305E-002	0.00000E+000	-1.84017E-003	-3.64962E-001	3.87058E-002	3.29973E+001	11	...........	6.45985E-002	-5.33972E-003	6.09795E-001	5.26709E-001	-2.57400E-002	-3.70469E-002	7.07800E-001	-4.36847E-002	-2.37919E-003	1.96665E-004	-2.24591E-002	-1.93989E-002	9.48017E-004	1.36446E-003	-2.60686E-002	1.60893E-003
	61	61	4.99649E-002	-3.64147E-002	0.00000E+000	-1.81946E-003	-3.60817E-001	3.86698E-002	3.26228E+001	11	...........	6.45340E-002	-5.46278E-003	6.09781E-001	5.26681E-001	-2.57626E-002	-3.70356E-002	7.07776E-001	-4.37960E-002	-2.34999E-003	1.98926E-004	-2.22050E-002	-1.91789E-002	9.38140E-004	1.34864E-003	-2.57735E-002	1.59482E-003
	62	62	4.99749E-002	-3.61501E-002	0.00000E+000	-1.80660E-003	-3.58191E-001	3.87069E-002	3.34217E+001	11	...........	6.46037E-002	-5.47403E-003	6.09924E-001	5.26683E-001	-2.57994E-002	-3.70253E-002	7.07910E-001	-4.38924E-002	-2.33543E-003	1.97887E-004	-2.20488E-002	-1.90397E-002	9.32654E-004	1.33847E-003	-2.55910E-002	1.58672E-003
	63	63	4.99696E-002	-3.60355E-002	0.00000E+000	-1.80068E-003	-3.57051E-001	3.87681E-002	3.36192E+001	11	...........	6.47082E-002	-5.39153E-003	6.10007E-001	5.26661E-001	-2.58035E-002	-3.69978E-002	7.07972E-001	-4.38726E-002	-2.33179E-003	1.94287E-004	-2.19819E-002	-1.89785E-002	9.29842E-004	1.33323E-003	-2.55122E-002	1.58097E-003
	64	64	4.99472E-002	-3.53142E-002	0.00000E+000	-1.76385E-003	-3.49872E-001	3.88064E-002	3.27207E+001	11	...........	6.47565E-002	-5.38903E-003	6.10032E-001	5.26604E-001	-2.58058E-002	-3.69886E-002	7.07999E-001	-4.38615E-002	-2.28683E-003	1.90309E-004	-2.15428E-002	-1.85966E-002	9.11313E-004	1.30622E-003	-2.50024E-002	1.54894E-003
	65	65	4.99774E-002	-3.46114E-002	0.00000E+000	-1.72979E-003	-3.42885E-001	3.87363E-002	3.23397E+001	11	...........	6.46454E-002	-5.40764E-003	6.10113E-001	5.26618E-001	-2.57825E-002	-3.69725E-002	7.07944E-001	-4.38756E-002	-2.23747E-003	1.87166E-004	-2.11169E-002	-1.82270E-002	8.92368E-004	1.27967E-003	-2.45029E-002	1.51859E-003
	66	66	4.99735E-002	-3.45261E-002	0.00000E+000	-1.72539E-003	-3.42036E-001	3.88350E-002	3.35399E+001	11	...........	6.48014E-002	-5.43736E-003	6.10150E-001	5.26738E-001	-2.57808E-002	-3.69876E-002	7.07936E-001	-4.38261E-002	-2.23734E-003	1.87731E-004	-2.10661E-002	-1.81862E-002	8.90111E-004	1.27704E-003	-2.44423E-002	1.51314E-003
	67	67	4.99674E-002	-3.44965E-002	0.00000E+000	-1.72370E-003	-3.41745E-001	3.88572E-002	3.37441E+001	11	...........	6.48322E-002	-5.32917E-003	6.10313E-001	5.26708E-001	-2.57900E-002	-3.70094E-002	7.07899E-001	-4.37994E-002	-2.23648E-003	1.83838E-004	-2.10537E-002	-1.81696E-002	8.89664E-004	1.27670E-003	-2.44200E-002	1.51093E-003
	68	68	4.99652E-002	-3.40181E-002	0.00000E+000	-1.69972E-003	-3.36989E-001	3.89102E-002	3.33744E+001	11	...........	6.49286E-002	-5.35653E-003	6.10409E-001	5.26702E-001	-2.57857E-002	-3.70140E-002	7.07837E-001	-4.37972E-002	-2.20875E-003	1.82219E-004	-2.07650E-002	-1.79174E-002	8.77182E-004	1.25915E-003	-2.40793E-002	1.48990E-003
	69	69	4.99645E-002	-3.32139E-002	0.00000E+000	-1.65951E-003	-3.28995E-001	3.88342E-002	3.28400E+001	11	...........	6.48217E-002	-5.33750E-003	6.10358E-001	5.26705E-001	-2.57925E-002	-3.69928E-002	7.07994E-001	-4.38887E-002	-2.15298E-003	1.77279E-004	-2.02723E-002	-1.74939E-002	8.56668E-004	1.22867E-003	-2.35152E-002	1.45771E-003
	70	70	4.99734E-002	-3.30508E-002	0.00000E+000	-1.65166E-003	-3.27366E-001	3.89417E-002	3.36605E+001	11	...........	6.49725E-002	-5.43667E-003	6.10337E-001	5.26723E-001	-2.57962E-002	-3.69764E-002	7.07983E-001	-4.38140E-002	-2.14739E-003	1.79686E-004	-2.01721E-002	-1.74086E-002	8.52586E-004	1.22210E-003	-2.33994E-002	1.44809E-003
	71	71	4.99507E-002	-3.29361E-002	0.00000E+000	-1.64518E-003	-3.26227E-001	3.89321E-002	3.29330E+001	11	...........	6.49669E-002	-5.38694E-003	6.10408E-001	5.26803E-001	-2.58078E-002	-3.69772E-002	7.07920E-001	-4.38869E-002	-2.13976E-003	1.77425E-004	-2.01045E-002	-1.73508E-002	8.50009E-004	1.21789E-003	-2.33162E-002	1.44547E-003
	72	72	4.99794E-002	-3.21708E-002	0.00000E+000	-1.60788E-003	-3.18616E-001	3.89532E-002	3.34922E+001	11	...........	6.50018E-002	-5.41250E-003	6.10599E-001	5.26831E-001	-2.58014E-002	-3.69696E-002	7.07985E-001	-4.38094E-002	-2.09116E-003	1.74125E-004	-1.96435E-002	-1.69486E-002	8.30052E-004	1.18934E-003	-2.27764E-002	1.40939E-003
	73	73	4.99637E-002	-3.17678E-002	0.00000E+000	-1.58724E-003	-3.14607E-001	3.89630E-002	3.30675E+001	11	...........	6.50332E-002	-5.39556E-003	6.10752E-001	5.26834E-001	-2.57869E-002	-3.69710E-002	7.08062E-001	-4.38001E-002	-2.06596E-003	1.71405E-004	-1.94022E-002	-1.67364E-002	8.19195E-004	1.17449E-003	-2.24936E-002	1.39143E-003
	74	74	4.99708E-002	-3.11552E-002	0.00000E+000	-1.55685E-003	-3.08527E-001	3.88544E-002	3.31924E+001	11	...........	6.48417E-002	-5.28306E-003	6.10740E-001	5.26840E-001	-2.57883E-002	-3.69858E-002	7.08001E-001	-4.37450E-002	-2.02016E-003	1.64595E-004	-1.90278E-002	-1.64138E-002	8.03441E-004	1.15230E-003	-2.20579E-002	1.36289E-003
	75	75	4.99680E-002	-3.13846E-002	0.00000E+000	-1.56822E-003	-3.10793E-001	3.90966E-002	3.36620E+001	11	...........	6.52400E-002	-5.29056E-003	6.10934E-001	5.26818E-001	-2.57929E-002	-3.70075E-002	7.07957E-001	-4.37937E-002	-2.04753E-003	1.66042E-004	-1.91739E-002	-1.65340E-002	8.09500E-004	1.16147E-003	-2.22189E-002	1.37445E-003
	76	76	4.99684E-002	-3.10242E-002	0.00000E+000	-1.55023E-003	-3.07230E-001	3.91002E-002	3.38914E+001	11	...........	6.52269E-002	-5.24542E-003	6.10810E-001	5.26785E-001	-2.57765E-002	-3.70158E-002	7.07842E-001	-4.37581E-002	-2.02361E-003	1.62735E-004	-1.89499E-002	-1.63431E-002	7.99696E-004	1.14839E-003	-2.19602E-002	1.35756E-003
	77	77	4.99671E-002	-3.05746E-002	0.00000E+000	-1.52772E-003	-3.02777E-001	3.90881E-002	3.32525E+001	11	...........	6.52336E-002	-5.33792E-003	6.10736E-001	5.26715E-001	-2.57775E-002	-3.70264E-002	7.07870E-001	-4.38349E-002	-1.99449E-003	1.63204E-004	-1.86730E-002	-1.61041E-002	7.88136E-004	1.13207E-003	-2.16428E-002	1.34023E-003
	78	78	4.99606E-002	-2.97594E-002	0.00000E+000	-1.48680E-003	-2.94666E-001	3.90587E-002	3.27731E+001	11	...........	6.51822E-002	-5.35583E-003	6.10749E-001	5.26715E-001	-2.57836E-002	-3.70232E-002	7.07872E-001	-4.38250E-002	-1.93978E-003	1.59386E-004	-1.81755E-002	-1.56747E-002	7.67305E-004	1.10179E-003	-2.10658E-002	1.30421E-003
	79	79	4.99646E-002	-2.92787E-002	0.00000E+000	-1.46290E-003	-2.89890E-001	3.89859E-002	3.28282E+001	11	...........	6.50608E-002	-5.36403E-003	6.10911E-001	5.26427E-001	-2.57601E-002	-3.70244E-002	7.07840E-001	-4.38671E-002	-1.90490E-003	1.57052E-004	-1.78867E-002	-1.54131E-002	7.54225E-004	1.08403E-003	-2.07247E-002	1.28437E-003
	80	80	4.99771E-002	-2.93631E-002	0.00000E+000	-1.46748E-003	-2.90730E-001	3.91518E-002	3.38382E+001	11	...........	6.53357E-002	-5.51153E-003	6.10841E-001	5.26451E-001	-2.57653E-002	-3.70329E-002	7.07852E-001	-4.38296E-002	-1.91846E-003	1.61835E-004	-1.79362E-002	-1.54582E-002	7.56547E-004	1.08740E-003	-2.07847E-002	1.28697E-003
	81	81	4.99659E-002	-2.92266E-002	0.00000E+000	-1.46033E-003	-2.89371E-001	3.91398E-002	3.40778E+001	11	...........	6.53143E-002	-5.52347E-003	6.10799E-001	5.26297E-001	-2.57504E-002	-3.70267E-002	7.07885E-001	-4.37553E-002	-1.90892E-003	1.61432E-004	-1.78516E-002	-1.53819E-002	7.52597E-004	1.08216E-003	-2.06891E-002	1.27882E-003
	82	82	4.99699E-002	-2.87556E-002	0.00000E+000	-1.43692E-003	-2.84685E-001	3.91346E-002	3.37029E+001	11	...........	6.53060E-002	-5.50792E-003	6.10626E-001	5.26152E-001	-2.57614E-002	-3.70393E-002	7.07938E-001	-4.38479E-002	-1.87792E-003	1.58384E-004	-1.75589E-002	-1.51298E-002	7.40785E-004	1.06509E-003	-2.03572E-002	1.26087E-003
	83	83	4.99641E-002	-2.83552E-002	0.00000E+000	-1.41674E-003	-2.80700E-001	3.91748E-002	3.32398E+001	11	...........	6.53724E-002	-5.38236E-003	6.10699E-001	5.26141E-001	-2.57947E-002	-3.70128E-002	7.07986E-001	-4.38758E-002	-1.85365E-003	1.52618E-004	-1.73165E-002	-1.49188E-002	7.31414E-004	1.04950E-003	-2.00751E-002	1.24411E-003
	84	84	4.99706E-002	-2.78972E-002	0.00000E+000	-1.39404E-003	-2.76147E-001	3.90807E-002	3.34249E+001	11	...........	6.52099E-002	-5.43861E-003	6.10666E-001	5.26096E-001	-2.58057E-002	-3.70360E-002	7.07950E-001	-4.38426E-002	-1.81917E-003	1.51722E-004	-1.70359E-002	-1.46766E-002	7.19907E-004	1.03320E-003	-1.97498E-002	1.22309E-003
	85	85	4.99690E-002	-2.79524E-002	0.00000E+000	-1.39675E-003	-2.76697E-001	3.92523E-002	3.41683E+001	11	...........	6.55036E-002	-5.39597E-003	6.10759E-001	5.26168E-001	-2.58039E-002	-3.70400E-002	7.07747E-001	-4.38206E-002	-1.83098E-003	1.50830E-004	-1.70722E-002	-1.47076E-002	7.21279E-004	1.03536E-003	-1.97832E-002	1.22489E-003
	86	86	4.99665E-002	-2.75962E-002	0.00000E+000	-1.37888E-003	-2.73145E-001	3.92125E-002	3.37232E+001	11	...........	6.54306E-002	-5.39111E-003	6.10776E-001	5.26164E-001	-2.58207E-002	-3.70222E-002	7.07822E-001	-4.38458E-002	-1.80563E-003	1.48774E-004	-1.68551E-002	-1.45201E-002	7.12552E-004	1.02167E-003	-1.95332E-002	1.20998E-003
	87	87	4.99680E-002	-2.70280E-002	0.00000E+000	-1.35053E-003	-2.67486E-001	3.91726E-002	3.40526E+001	11	...........	6.53706E-002	-5.32875E-003	6.10846E-001	5.26166E-001	-2.58039E-002	-3.70196E-002	7.07768E-001	-4.38762E-002	-1.76683E-003	1.44025E-004	-1.65099E-002	-1.42212E-002	6.97427E-004	1.00056E-003	-1.91295E-002	1.18589E-003
	88	88	4.99654E-002	-2.69656E-002	0.00000E+000	-1.34735E-003	-2.66881E-001	3.92973E-002	3.41587E+001	11	...........	6.55819E-002	-5.31486E-003	6.10887E-001	5.26132E-001	-2.58072E-002	-3.70378E-002	7.07925E-001	-4.38799E-002	-1.76846E-003	1.43319E-004	-1.64729E-002	-1.41875E-002	6.95908E-004	9.98747E-004	-1.90896E-002	1.18325E-003
	89	89	4.99601E-002	-2.62702E-002	0.00000E+000	-1.31246E-003	-2.59961E-001	3.91693E-002	3.22652E+001	11	...........	6.53560E-002	-5.39153E-003	6.10851E-001	5.26119E-001	-2.57908E-002	-3.70703E-002	7.07864E-001	-4.36875E-002	-1.71691E-003	1.41636E-004	-1.60472E-002	-1.38212E-002	6.77529E-004	9.73842E-004	-1.85957E-002	1.14768E-003
	90	90	4.99770E-002	-2.58199E-002	0.00000E+000	-1.29040E-003	-2.55480E-001	3.92756E-002	3.39075E+001	11	...........	6.55275E-002	-5.34833E-003	6.10747E-001	5.26229E-001	-2.57762E-002	-3.70462E-002	7.07801E-001	-4.37168E-002	-1.69191E-003	1.38093E-004	-1.57694E-002	-1.35872E-002	6.65540E-004	9.56530E-004	-1.82753E-002	1.12876E-003
	91	91	4.99688E-002	-2.59974E-002	0.00000E+000	-1.29906E-003	-2.57248E-001	3.92902E-002	3.44753E+001	11	...........	6.55767E-002	-5.46944E-003	6.10748E-001	5.26226E-001	-2.57736E-002	-3.70600E-002	7.07949E-001	-4.37400E-002	-1.70482E-003	1.42191E-004	-1.58779E-002	-1.36805E-002	6.70047E-004	9.63463E-004	-1.84048E-002	1.13713E-003
	92	92	4.99630E-002	-2.55644E-002	0.00000E+000	-1.27727E-003	-2.52945E-001	3.92843E-002	3.33372E+001	11	...........	6.55624E-002	-5.38653E-003	6.10810E-001	5.26104E-001	-2.57694E-002	-3.70462E-002	7.07961E-001	-4.36458E-002	-1.67606E-003	1.37703E-004	-1.56150E-002	-1.34495E-002	6.58780E-004	9.47064E-004	-1.80986E-002	1.11578E-003
	93	93	4.99693E-002	-2.49656E-002	0.00000E+000	-1.24751E-003	-2.46984E-001	3.92954E-002	3.38772E+001	11	...........	6.55735E-002	-5.28181E-003	6.10771E-001	5.26079E-001	-2.57494E-002	-3.70392E-002	7.07859E-001	-4.37237E-002	-1.63708E-003	1.31863E-004	-1.52482E-002	-1.31339E-002	6.42850E-004	9.24704E-004	-1.76721E-002	1.09159E-003
	94	94	4.99725E-002	-2.49471E-002	0.00000E+000	-1.24667E-003	-2.46798E-001	3.93112E-002	3.45143E+001	11	...........	6.55993E-002	-5.29819E-003	6.10870E-001	5.26019E-001	-2.57646E-002	-3.70079E-002	7.07827E-001	-4.37843E-002	-1.63651E-003	1.32175E-004	-1.52394E-002	-1.31226E-002	6.42752E-004	9.23240E-004	-1.76582E-002	1.09229E-003
	95	95	4.99633E-002	-2.48435E-002	0.00000E+000	-1.24126E-003	-2.45765E-001	3.93982E-002	3.37296E+001	11	...........	6.57594E-002	-5.43153E-003	6.10926E-001	5.26087E-001	-2.57765E-002	-3.69937E-002	7.07682E-001	-4.36872E-002	-1.63369E-003	1.34938E-004	-1.51775E-002	-1.30698E-002	6.40378E-004	9.19053E-004	-1.75813E-002	1.08534E-003
	96	96	4.99713E-002	-2.40933E-002	0.00000E+000	-1.20397E-003	-2.38317E-001	3.92224E-002	3.38115E+001	11	...........	6.54553E-002	-5.32028E-003	6.10816E-001	5.26242E-001	-2.57785E-002	-3.69803E-002	7.07740E-001	-4.36378E-002	-1.57703E-003	1.28183E-004	-1.47166E-002	-1.26789E-002	6.21088E-004	8.90976E-004	-1.70518E-002	1.05138E-003
	97	97	4.99656E-002	-2.40087E-002	0.00000E+000	-1.19961E-003	-2.37475E-001	3.94502E-002	3.45083E+001	11	...........	6.58437E-002	-5.38069E-003	6.10734E-001	5.26296E-001	-2.57651E-002	-3.69924E-002	7.07884E-001	-4.36412E-002	-1.58083E-003	1.29184E-004	-1.46630E-002	-1.26357E-002	6.18589E-004	8.88140E-004	-1.69954E-002	1.04777E-003
	98	98	4.99649E-002	-2.36009E-002	0.00000E+000	-1.17922E-003	-2.33417E-001	3.93588E-002	3.35217E+001	11	...........	6.56713E-002	-5.36375E-003	6.10837E-001	5.26329E-001	-2.57653E-002	-3.69896E-002	7.07831E-001	-4.37811E-002	-1.54990E-003	1.26589E-004	-1.44163E-002	-1.24218E-002	6.08083E-004	8.72986E-004	-1.67054E-002	1.03327E-003
	99	99	4.99761E-002	-2.32928E-002	0.00000E+000	-1.16408E-003	-2.30367E-001	3.93679E-002	3.40859E+001	11	...........	6.56719E-002	-5.43653E-003	6.10746E-001	5.26233E-001	-2.57443E-002	-3.69712E-002	7.07889E-001	-4.37965E-002	-1.52969E-003	1.26632E-004	-1.42260E-002	-1.22575E-002	5.99658E-004	8.61165E-004	-1.64887E-002	1.02015E-003
	100	100	4.99677E-002	-2.32745E-002	0.00000E+000	-1.16297E-003	-2.30179E-001	3.94601E-002	3.41432E+001	11	...........	6.58610E-002	-5.38639E-003	6.10575E-001	5.26222E-001	-2.57146E-002	-3.69675E-002	7.07945E-001	-4.38740E-002	-1.53288E-003	1.25365E-004	-1.42108E-002	-1.22475E-002	5.98493E-004	8.60399E-004	-1.64770E-002	1.02114E-003
	101	101	4.99661E-002	-2.27169E-002	0.00000E+000	-1.13507E-003	-2.24629E-001	3.93697E-002	3.41410E+001	11	...........	6.57046E-002	-5.27083E-003	6.10583E-001	5.26252E-001	-2.57151E-002	-3.69561E-002	7.07848E-001	-4.37976E-002	-1.49260E-003	1.19737E-004	-1.38705E-002	-1.19548E-002	5.84167E-004	8.39527E-004	-1.60801E-002	9.94945E-004
	102	102	4.99687E-002	-2.26531E-002	0.00000E+000	-1.13195E-003	-2.23993E-001	3.95070E-002	3.43868E+001	11	...........	6.59257E-002	-5.40097E-003	6.10693E-001	5.26286E-001	-2.57124E-002	-3.69328E-002	7.07787E-001	-4.37936E-002	-1.49342E-003	1.22349E-004	-1.38341E-002	-1.19220E-002	5.82464E-004	8.36641E-004	-1.60336E-002	9.92061E-004
	103	103	4.99675E-002	-2.23507E-002	0.00000E+000	-1.11681E-003	-2.20981E-001	3.94607E-002	3.41855E+001	11	...........	6.58432E-002	-5.33778E-003	6.10779E-001	5.26238E-001	-2.57429E-002	-3.69517E-002	7.07883E-001	-4.37654E-002	-1.47164E-003	1.19303E-004	-1.36513E-002	-1.17618E-002	5.75372E-004	8.25895E-004	-1.58217E-002	9.78187E-004
	104	104	4.99648E-002	-2.17321E-002	0.00000E+000	-1.08584E-003	-2.14836E-001	3.93934E-002	3.34821E+001	11	...........	6.57471E-002	-5.32167E-003	6.10627E-001	5.26142E-001	-2.57567E-002	-3.69453E-002	7.08086E-001	-4.38771E-002	-1.42882E-003	1.15651E-004	-1.32702E-002	-1.14342E-002	5.59747E-004	8.02900E-004	-1.53882E-002	9.53543E-004
	105	105	4.99752E-002	-2.16994E-002	0.00000E+000	-1.08443E-003	-2.14515E-001	3.95059E-002	3.42561E+001	11	...........	6.59156E-002	-5.27958E-003	6.10801E-001	5.26147E-001	-2.57742E-002	-3.69142E-002	7.08037E-001	-4.38683E-002	-1.43033E-003	1.14564E-004	-1.32540E-002	-1.14171E-002	5.59284E-004	8.01016E-004	-1.53640E-002	9.51917E-004
	106	106	4.99690E-002	-2.16883E-002	0.00000E+000	-1.08374E-003	-2.14406E-001	3.95294E-002	3.46193E+001	11	...........	6.59640E-002	-5.36153E-003	6.10942E-001	5.26154E-001	-2.57911E-002	-3.69256E-002	7.08020E-001	-4.37418E-002	-1.43065E-003	1.16282E-004	-1.32503E-002	-1.14114E-002	5.59365E-004	8.00853E-004	-1.53557E-002	9.48686E-004
	107	107	4.99680E-002	-2.13966E-002	0.00000E+000	-1.06914E-003	-2.11499E-001	3.95472E-002	3.46441E+001	11	...........	6.60072E-002	-5.33667E-003	6.11015E-001	5.26020E-001	-2.57953E-002	-3.69719E-002	7.07901E-001	-4.36707E-002	-1.41233E-003	1.14186E-004	-1.30736E-002	-1.12550E-002	5.51930E-004	7.91072E-004	-1.51467E-002	9.34403E-004
	108	108	4.99699E-002	-2.11444E-002	0.00000E+000	-1.05658E-003	-2.08987E-001	3.95559E-002	3.47780E+001	11	...........	6.60049E-002	-5.26778E-003	6.11099E-001	5.26076E-001	-2.57728E-002	-3.69878E-002	7.07944E-001	-4.36406E-002	-1.39563E-003	1.11384E-004	-1.29213E-002	-1.11235E-002	5.44949E-004	7.82083E-004	-1.49690E-002	9.22752E-004
	109	109	4.99628E-002	-2.08040E-002	0.00000E+000	-1.03943E-003	-2.05603E-001	3.95300E-002	3.40155E+001	11	...........	6.59764E-002	-5.29972E-003	6.11186E-001	5.26325E-001	-2.57886E-002	-3.69833E-002	7.08079E-001	-4.37897E-002	-1.37257E-003	1.10255E-004	-1.27151E-002	-1.09497E-002	5.36506E-004	7.69400E-004	-1.47309E-002	9.11000E-004
	110	110	4.99716E-002	-2.04110E-002	0.00000E+000	-1.01997E-003	-2.01713E-001	3.95241E-002	3.40079E+001	11	...........	6.59686E-002	-5.30167E-003	6.11129E-001	5.26305E-001	-2.57735E-002	-3.69746E-002	7.08049E-001	-4.37503E-002	-1.34648E-003	1.08212E-004	-1.24737E-002	-1.07424E-002	5.26062E-004	7.54687E-004	-1.44520E-002	8.92986E-004
	111	111	4.99670E-002	-2.02574E-002	0.00000E+000	-1.01220E-003	-2.00180E-001	3.95466E-002	3.44424E+001	11	...........	6.59815E-002	-5.24111E-003	6.11147E-001	5.26193E-001	-2.57687E-002	-3.69603E-002	7.08013E-001	-4.37975E-002	-1.33662E-003	1.06171E-004	-1.23803E-002	-1.06593E-002	5.22009E-004	7.48721E-004	-1.43425E-002	8.87225E-004
	112	112	4.99728E-002	-2.01138E-002	0.00000E+000	-1.00514E-003	-1.98752E-001	3.95648E-002	3.43751E+001	11	...........	6.60321E-002	-5.27306E-003	6.11069E-001	5.26222E-001	-2.57757E-002	-3.69604E-002	7.07973E-001	-4.38392E-002	-1.32816E-003	1.06061E-004	-1.22909E-002	-1.05843E-002	5.18448E-004	7.43415E-004	-1.42400E-002	8.81773E-004
	113	113	4.99678E-002	-1.96080E-002	0.00000E+000	-9.79768E-004	-1.93714E-001	3.94538E-002	3.40716E+001	11	...........	6.58418E-002	-5.30347E-003	6.11072E-001	5.26395E-001	-2.57899E-002	-3.69733E-002	7.07921E-001	-4.38604E-002	-1.29103E-003	1.03990E-004	-1.19819E-002	-1.03215E-002	5.05688E-004	7.24973E-004	-1.38809E-002	8.60015E-004
	114	114	4.99663E-002	-1.94329E-002	0.00000E+000	-9.70990E-004	-1.91981E-001	3.96758E-002	3.47346E+001	11	...........	6.62118E-002	-5.28792E-003	6.11060E-001	5.26475E-001	-2.57678E-002	-3.69660E-002	7.07851E-001	-4.38299E-002	-1.28669E-003	1.02759E-004	-1.18747E-002	-1.02309E-002	5.00742E-004	7.18355E-004	-1.37556E-002	8.51741E-004
	115	115	4.99706E-002	-1.91631E-002	0.00000E+000	-9.57591E-004	-1.89287E-001	3.94812E-002	3.39007E+001	11	...........	6.58847E-002	-5.27347E-003	6.10949E-001	5.26453E-001	-2.57647E-002	-3.69286E-002	7.07892E-001	-4.38499E-002	-1.26255E-003	1.01056E-004	-1.17077E-002	-1.00885E-002	4.93732E-004	7.07666E-004	-1.35654E-002	8.40299E-004
	116	116	4.99705E-002	-1.90911E-002	0.00000E+000	-9.53995E-004	-1.88587E-001	3.96900E-002	3.47304E+001	11	...........	6.62239E-002	-5.32194E-003	6.10953E-001	5.26326E-001	-2.57754E-002	-3.69253E-002	7.07959E-001	-4.38308E-002	-1.26429E-003	1.01602E-004	-1.16638E-002	-1.00482E-002	4.92082E-004	7.04946E-004	-1.35158E-002	8.36781E-004
	117	117	4.99686E-002	-1.89375E-002	0.00000E+000	-9.46281E-004	-1.87056E-001	3.96600E-002	3.51701E+001	11	...........	6.61794E-002	-5.29542E-003	6.10871E-001	5.26274E-001	-2.58093E-002	-3.69426E-002	7.07855E-001	-4.38415E-002	-1.25327E-003	1.00282E-004	-1.15684E-002	-9.96632E-003	4.88764E-004	6.99601E-004	-1.34050E-002	8.30249E-004
	118	118	4.99605E-002	-1.86542E-002	0.00000E+000	-9.31970E-004	-1.84233E-001	3.96086E-002	3.39233E+001	11	...........	6.61008E-002	-5.33458E-003	6.10761E-001	5.26291E-001	-2.57862E-002	-3.69333E-002	7.07786E-001	-4.38475E-002	-1.23306E-003	9.95121E-005	-1.13932E-002	-9.81752E-003	4.81021E-004	6.88960E-004	-1.32032E-002	8.17938E-004
	119	119	4.99797E-002	-1.84064E-002	0.00000E+000	-9.19947E-004	-1.81769E-001	3.96763E-002	3.50438E+001	11	...........	6.62122E-002	-5.29347E-003	6.10861E-001	5.26411E-001	-2.57722E-002	-3.69324E-002	7.07805E-001	-4.38160E-002	-1.21873E-003	9.74337E-005	-1.12437E-002	-9.68933E-003	4.74373E-004	6.79791E-004	-1.30281E-002	8.06494E-004
	120	120	4.99685E-002	-1.82077E-002	0.00000E+000	-9.09813E-004	-1.79793E-001	3.96096E-002	3.49358E+001	11	...........	6.60987E-002	-5.31806E-003	6.10852E-001	5.26578E-001	-2.57581E-002	-3.69219E-002	7.07852E-001	-4.37187E-002	-1.20351E-003	9.68298E-005	-1.11222E-002	-9.58781E-003	4.68996E-004	6.72265E-004	-1.28884E-002	7.96020E-004
	121	121	4.99675E-002	-1.80053E-002	0.00000E+000	-8.99680E-004	-1.77796E-001	3.96817E-002	3.49351E+001	11	...........	6.62074E-002	-5.33444E-003	6.10915E-001	5.26468E-001	-2.57457E-002	-3.69029E-002	7.07844E-001	-4.38674E-002	-1.19208E-003	9.60482E-005	-1.09997E-002	-9.47921E-003	4.63559E-004	6.64448E-004	-1.27449E-002	7.89845E-004
	122	122	4.99614E-002	-1.76208E-002	0.00000E+000	-8.80359E-004	-1.73961E-001	3.96957E-002	3.43030E+001	11	...........	6.62461E-002	-5.31861E-003	6.10915E-001	5.26601E-001	-2.57594E-002	-3.69104E-002	7.07930E-001	-4.38254E-002	-1.16731E-003	9.37181E-005	-1.07648E-002	-9.27911E-003	4.53901E-004	6.50390E-004	-1.24743E-002	7.72238E-004
	123	123	4.99769E-002	-1.72727E-002	0.00000E+000	-8.63235E-004	-1.70490E-001	3.96081E-002	3.42499E+001	11	...........	6.60964E-002	-5.35083E-003	6.10956E-001	5.26730E-001	-2.57662E-002	-3.68882E-002	7.07957E-001	-4.38001E-002	-1.14166E-003	9.24233E-005	-1.05529E-002	-9.09804E-003	4.45052E-004	6.37158E-004	-1.22283E-002	7.56546E-004
	124	124	4.99694E-002	-1.73452E-002	0.00000E+000	-8.66730E-004	-1.71217E-001	3.97701E-002	3.51773E+001	11	...........	6.63560E-002	-5.40389E-003	6.10862E-001	5.26663E-001	-2.57822E-002	-3.68771E-002	7.07856E-001	-4.37724E-002	-1.15096E-003	9.37316E-005	-1.05955E-002	-9.13508E-003	4.47198E-004	6.39641E-004	-1.22779E-002	7.59241E-004
	125	125	4.99644E-002	-1.71548E-002	0.00000E+000	-8.57129E-004	-1.69313E-001	3.97739E-002	3.46143E+001	11	...........	6.63703E-002	-5.40153E-003	6.10786E-001	5.26664E-001	-2.58019E-002	-3.69006E-002	7.07787E-001	-4.37378E-002	-1.13857E-003	9.26620E-005	-1.04779E-002	-9.03480E-003	4.42627E-004	6.33021E-004	-1.21419E-002	7.50312E-004
	126	126	4.99754E-002	-1.68646E-002	0.00000E+000	-8.42816E-004	-1.66423E-001	3.97507E-002	3.50998E+001	11	...........	6.63325E-002	-5.35528E-003	6.10767E-001	5.26841E-001	-2.57869E-002	-3.68929E-002	7.07920E-001	-4.38219E-002	-1.11867E-003	9.03148E-005	-1.03004E-002	-8.88498E-003	4.34887E-004	6.22185E-004	-1.19388E-002	7.39041E-004
	127	127	4.99676E-002	-1.67052E-002	0.00000E+000	-8.34720E-004	-1.64844E-001	3.97507E-002	3.46932E+001	11	...........	6.63186E-002	-5.36514E-003	6.10885E-001	5.27098E-001	-2.58193E-002	-3.69078E-002	7.07819E-001	-4.38871E-002	-1.10787E-003	8.96258E-005	-1.02050E-002	-8.80528E-003	4.31317E-004	6.16552E-004	-1.18243E-002	7.33143E-004
	128	128	4.99701E-002	-1.64128E-002	0.00000E+000	-8.20151E-004	-1.61948E-001	3.96507E-002	3.43259E+001	11	...........	6.61789E-002	-5.38931E-003	6.10927E-001	5.27067E-001	-2.58186E-002	-3.69178E-002	7.07806E-001	-4.39811E-002	-1.08618E-003	8.84538E-005	-1.00270E-002	-8.65067E-003	4.23757E-004	6.05926E-004	-1.16171E-002	7.21855E-004
	129	129	4.99708E-002	-1.63561E-002	0.00000E+000	-8.17330E-004	-1.61384E-001	3.98383E-002	3.52862E+001	11	...........	6.64874E-002	-5.34361E-003	6.10872E-001	5.27124E-001	-2.58372E-002	-3.69269E-002	7.07870E-001	-4.38207E-002	-1.08748E-003	8.74008E-005	-9.99151E-003	-8.62172E-003	4.22597E-004	6.03982E-004	-1.15780E-002	7.16737E-004
	130	130	4.99683E-002	-1.61783E-002	0.00000E+000	-8.08403E-004	-1.59609E-001	3.97969E-002	3.54099E+001	11	...........	6.64190E-002	-5.37903E-003	6.10898E-001	5.27352E-001	-2.58212E-002	-3.69174E-002	7.07926E-001	-4.38240E-002	-1.07455E-003	8.70235E-005	-9.88329E-003	-8.53167E-003	4.17744E-004	5.97260E-004	-1.14530E-002	7.08998E-004
	131	131	4.99609E-002	-1.58617E-002	0.00000E+000	-7.92464E-004	-1.56459E-001	3.97606E-002	3.38938E+001	11	...........	6.63608E-002	-5.45917E-003	6.10804E-001	5.27355E-001	-2.58442E-002	-3.69408E-002	7.07899E-001	-4.38358E-002	-1.05259E-003	8.65915E-005	-9.68838E-003	-8.36474E-003	4.09932E-004	5.85944E-004	-1.12285E-002	6.95310E-004
	132	132	4.99759E-002	-1.54956E-002	0.00000E+000	-7.74407E-004	-1.52820E-001	3.97860E-002	3.43672E+001	11	...........	6.63814E-002	-5.54833E-003	6.10794E-001	5.27299E-001	-2.58589E-002	-3.69293E-002	7.07824E-001	-4.37965E-002	-1.02862E-003	8.59748E-005	-9.46462E-003	-8.17082E-003	4.00699E-004	5.72242E-004	-1.09682E-002	6.78654E-004
	133	133	4.99702E-002	-1.54159E-002	0.00000E+000	-7.70334E-004	-1.52036E-001	3.97152E-002	3.48225E+001	11	...........	6.62958E-002	-5.45514E-003	6.10832E-001	5.27113E-001	-2.58504E-002	-3.69603E-002	7.07819E-001	-4.38246E-002	-1.02201E-003	8.40956E-005	-9.41650E-003	-8.12589E-003	3.98506E-004	5.69774E-004	-1.09116E-002	6.75593E-004
	134	134	4.99705E-002	-1.53657E-002	0.00000E+000	-7.67829E-004	-1.51535E-001	3.98812E-002	3.54288E+001	11	...........	6.65222E-002	-5.42972E-003	6.10980E-001	5.26946E-001	-2.58329E-002	-3.69837E-002	7.07952E-001	-4.38228E-002	-1.02216E-003	8.34312E-005	-9.38811E-003	-8.09686E-003	3.96940E-004	5.68279E-004	-1.08782E-002	6.73366E-004
	135	135	4.99686E-002	-1.51916E-002	0.00000E+000	-7.59101E-004	-1.49799E-001	3.98935E-002	3.51591E+001	11	...........	6.65776E-002	-5.30708E-003	6.11059E-001	5.27052E-001	-2.58296E-002	-3.69904E-002	7.07886E-001	-4.38767E-002	-1.01142E-003	8.06229E-005	-9.28295E-003	-8.00673E-003	3.92392E-004	5.61942E-004	-1.07539E-002	6.66555E-004
	136	136	4.99709E-002	-1.48862E-002	0.00000E+000	-7.43877E-004	-1.46756E-001	3.97323E-002	3.46447E+001	11	...........	6.63153E-002	-5.26653E-003	6.11008E-001	5.27127E-001	-2.58506E-002	-3.69956E-002	7.07875E-001	-4.37697E-002	-9.87184E-004	7.83987E-005	-9.09560E-003	-7.84693E-003	3.84817E-004	5.50724E-004	-1.05376E-002	6.51566E-004
	137	137	4.99667E-002	-1.47542E-002	0.00000E+000	-7.37218E-004	-1.45439E-001	3.99607E-002	3.48186E+001	11	...........	6.66889E-002	-5.35458E-003	6.10947E-001	5.27136E-001	-2.58160E-002	-3.69751E-002	7.07861E-001	-4.38851E-002	-9.83941E-004	7.90026E-005	-9.01404E-003	-7.77748E-003	3.80894E-004	5.45539E-004	-1.04439E-002	6.47490E-004
	138	138	4.99691E-002	-1.43785E-002	0.00000E+000	-7.18481E-004	-1.41699E-001	3.97201E-002	3.42592E+001	11	...........	6.62779E-002	-5.34403E-003	6.10766E-001	5.27029E-001	-2.58107E-002	-3.69558E-002	7.07922E-001	-4.39097E-002	-9.52979E-004	7.68392E-005	-8.78191E-003	-7.57790E-003	3.71120E-004	5.31370E-004	-1.01789E-002	6.31357E-004
	139	139	4.99735E-002	-1.43923E-002	0.00000E+000	-7.19232E-004	-1.41829E-001	3.99507E-002	3.54234E+001	11	...........	6.66732E-002	-5.29611E-003	6.10681E-001	5.27124E-001	-2.58151E-002	-3.69553E-002	7.08001E-001	-4.38528E-002	-9.59578E-004	7.62230E-005	-8.78908E-003	-7.58651E-003	3.71538E-004	5.31870E-004	-1.01897E-002	6.31141E-004
	140	140	4.99630E-002	-1.42597E-002	0.00000E+000	-7.12456E-004	-1.40503E-001	3.98832E-002	3.47137E+001	11	...........	6.65590E-002	-5.36028E-003	6.10620E-001	5.26935E-001	-2.58294E-002	-3.69751E-002	7.07984E-001	-4.38239E-002	-9.49109E-004	7.64357E-005	-8.70724E-003	-7.51391E-003	3.68319E-004	5.27253E-004	-1.00956E-002	6.24914E-004
	141	141	4.99764E-002	-1.40448E-002	0.00000E+000	-7.01907E-004	-1.38397E-001	3.98802E-002	3.54209E+001	11	...........	6.65539E-002	-5.36861E-003	6.10709E-001	5.26966E-001	-2.58371E-002	-3.69631E-002	7.07996E-001	-4.37978E-002	-9.34734E-004	7.54009E-005	-8.57726E-003	-7.40112E-003	3.62876E-004	5.19137E-004	-9.94364E-003	6.15129E-004
	142	142	4.99691E-002	-1.39599E-002	0.00000E+000	-6.97565E-004	-1.37548E-001	3.99147E-002	3.55562E+001	11	...........	6.66061E-002	-5.40583E-003	6.10583E-001	5.26975E-001	-2.58260E-002	-3.69386E-002	7.07928E-001	-4.38646E-002	-9.29816E-004	7.54650E-005	-8.52370E-003	-7.35654E-003	3.60529E-004	5.15660E-004	-9.88263E-003	6.12346E-004
	143	143	4.99669E-002	-1.35935E-002	0.00000E+000	-6.79224E-004	-1.33904E-001	3.98642E-002	3.43582E+001	11	...........	6.65262E-002	-5.38764E-003	6.10630E-001	5.26975E-001	-2.58000E-002	-3.69132E-002	7.08201E-001	-4.38618E-002	-9.04323E-004	7.32367E-005	-8.30058E-003	-7.16342E-003	3.50712E-004	5.01779E-004	-9.62691E-003	5.96235E-004
	144	144	4.99722E-002	-1.34342E-002	0.00000E+000	-6.71334E-004	-1.32316E-001	3.98074E-002	3.46390E+001	11	...........	6.64397E-002	-5.34597E-003	6.10547E-001	5.26906E-001	-2.57814E-002	-3.69322E-002	7.08152E-001	-4.37946E-002	-8.92561E-004	7.18186E-005	-8.20219E-003	-7.07853E-003	3.46351E-004	4.96153E-004	-9.51342E-003	5.88343E-004
	145	145	4.99693E-002	-1.33466E-002	0.00000E+000	-6.66918E-004	-1.31447E-001	3.99329E-002	3.48234E+001	11	...........	6.66236E-002	-5.43458E-003	6.10707E-001	5.26924E-001	-2.57804E-002	-3.69632E-002	7.08150E-001	-4.37882E-002	-8.89196E-004	7.25330E-005	-8.15084E-003	-7.03263E-003	3.44080E-004	4.93332E-004	-9.45136E-003	5.84422E-004
	146	146	4.99714E-002	-1.32816E-002	0.00000E+000	-6.63699E-004	-1.30795E-001	4.00197E-002	3.55817E+001	11	...........	6.67800E-002	-5.41375E-003	6.10614E-001	5.26842E-001	-2.58000E-002	-3.69832E-002	7.08156E-001	-4.38556E-002	-8.86943E-004	7.19031E-005	-8.10991E-003	-6.99728E-003	3.42664E-004	4.91195E-004	-9.40542E-003	5.82470E-004
	147	147	4.99697E-002	-1.31092E-002	0.00000E+000	-6.55060E-004	-1.29079E-001	3.99393E-002	3.55438E+001	11	...........	6.66614E-002	-5.50139E-003	6.10469E-001	5.26873E-001	-2.58106E-002	-3.69590E-002	7.08131E-001	-4.38853E-002	-8.73875E-004	7.21186E-005	-8.00273E-003	-6.90687E-003	3.38355E-004	4.84502E-004	-9.28300E-003	5.75299E-004
	148	148	4.99690E-002	-1.29416E-002	0.00000E+000	-6.46682E-004	-1.27434E-001	3.99439E-002	3.56589E+001	11	...........	6.66578E-002	-5.44250E-003	6.10440E-001	5.26864E-001	-2.57829E-002	-3.69626E-002	7.08125E-001	-4.38458E-002	-8.62661E-004	7.04349E-005	-7.90010E-003	-6.81849E-003	3.33673E-004	4.78357E-004	-9.16430E-003	5.67437E-004
	149	149	4.99664E-002	-1.26992E-002	0.00000E+000	-6.34535E-004	-1.25015E-001	3.99311E-002	3.43590E+001	11	...........	6.66382E-002	-5.37931E-003	6.10334E-001	5.27005E-001	-2.57947E-002	-3.69587E-002	7.08084E-001	-4.37783E-002	-8.46254E-004	6.83131E-005	-7.75078E-003	-6.69256E-003	3.27573E-004	4.69348E-004	-8.99213E-003	5.55951E-004
	150	150	4.99745E-002	-1.25116E-002	0.00000E+000	-6.25260E-004	-1.23144E-001	3.99309E-002	3.54573E+001	11	...........	6.66286E-002	-5.36528E-003	6.10438E-001	5.27010E-001	-2.57842E-002	-3.69451E-002	7.08099E-001	-4.39060E-002	-8.33630E-004	6.71281E-005	-7.63755E-003	-6.59373E-003	3.22601E-004	4.62242E-004	-8.85944E-003	5.49333E-004
	151	151	4.99702E-002	-1.25308E-002	0.00000E+000	-6.26166E-004	-1.23339E-001	4.00058E-002	3.54386E+001	11	...........	6.67632E-002	-5.30597E-003	6.10480E-001	5.27021E-001	-2.57514E-002	-3.69503E-002	7.08042E-001	-4.39137E-002	-8.36596E-004	6.64881E-005	-7.64980E-003	-6.60400E-003	3.22686E-004	4.63017E-004	-8.87234E-003	5.50275E-004
	152	152	4.99700E-002	-1.23515E-002	0.00000E+000	-6.17203E-004	-1.21546E-001	3.99412E-002	3.55831E+001	11	...........	6.66440E-002	-5.25125E-003	6.10381E-001	5.26978E-001	-2.57510E-002	-3.69681E-002	7.07883E-001	-4.38543E-002	-8.23151E-004	6.48606E-005	-7.53909E-003	-6.50895E-003	3.18062E-004	4.56610E-004	-8.74339E-003	5.41665E-004
	153	153	4.99689E-002	-1.21336E-002	0.00000E+000	-6.06304E-004	-1.19379E-001	4.00302E-002	3.51900E+001	11	...........	6.68079E-002	-5.31222E-003	6.10314E-001	5.27030E-001	-2.57546E-002	-3.69715E-002	7.07941E-001	-4.37678E-002	-8.10622E-004	6.44565E-005	-7.40532E-003	-6.39478E-003	3.12496E-004	4.48598E-004	-8.58989E-003	5.31062E-004
	154	154	4.99700E-002	-1.18548E-002	0.00000E+000	-5.92384E-004	-1.16597E-001	3.98121E-002	3.44243E+001	11	...........	6.64386E-002	-5.37250E-003	6.10276E-001	5.26903E-001	-2.57512E-002	-3.69853E-002	7.08065E-001	-4.38129E-002	-7.87615E-004	6.36898E-005	-7.23469E-003	-6.24632E-003	3.05275E-004	4.38452E-004	-8.39396E-003	5.19393E-004
	155	155	4.99713E-002	-1.19231E-002	0.00000E+000	-5.95813E-004	-1.17283E-001	4.01451E-002	3.54748E+001	11	...........	6.70039E-002	-5.40750E-003	6.10185E-001	5.26971E-001	-2.57251E-002	-3.69810E-002	7.08151E-001	-4.36862E-002	-7.98894E-004	6.44741E-005	-7.27529E-003	-6.28312E-003	3.06723E-004	4.40928E-004	-8.44336E-003	5.20875E-004
	156	156	4.99689E-002	-1.17860E-002	0.00000E+000	-5.88936E-004	-1.15913E-001	4.00244E-002	3.57408E+001	11	...........	6.67939E-002	-5.36139E-003	6.10136E-001	5.27043E-001	-2.57043E-002	-3.69676E-002	7.08102E-001	-4.36928E-002	-7.87236E-004	6.31896E-005	-7.19109E-003	-6.21176E-003	3.02952E-004	4.35702E-004	-8.34572E-003	5.14965E-004
	157	157	4.99701E-002	-1.16091E-002	0.00000E+000	-5.80109E-004	-1.14163E-001	4.00092E-002	3.50503E+001	11	...........	6.67607E-002	-5.28958E-003	6.10069E-001	5.27159E-001	-2.57374E-002	-3.69710E-002	7.08075E-001	-4.37125E-002	-7.75033E-004	6.14075E-005	-7.08237E-003	-6.11986E-003	2.98788E-004	4.29201E-004	-8.22014E-003	5.07464E-004
	158	158	4.99698E-002	-1.13912E-002	0.00000E+000	-5.69217E-004	-1.12005E-001	4.01062E-002	3.54200E+001	11	...........	6.69096E-002	-5.36569E-003	6.10177E-001	5.27185E-001	-2.57528E-002	-3.69690E-002	7.08107E-001	-4.37187E-002	-7.62182E-004	6.11218E-005	-6.95066E-003	-6.00528E-003	2.93356E-004	4.21122E-004	-8.06621E-003	4.98010E-004
	159	159	4.99699E-002	-1.11738E-002	0.00000E+000	-5.58352E-004	-1.09841E-001	3.98405E-002	3.44437E+001	11	...........	6.64912E-002	-5.37083E-003	6.10126E-001	5.27130E-001	-2.57550E-002	-3.69862E-002	7.08089E-001	-4.37372E-002	-7.42958E-004	6.00124E-005	-6.81740E-003	-5.89003E-003	2.87780E-004	4.13276E-004	-7.91202E-003	4.88710E-004
	160	160	4.99722E-002	-1.11900E-002	0.00000E+000	-5.59187E-004	-1.10003E-001	4.00933E-002	3.55161E+001	11	...........	6.69175E-002	-5.38778E-003	6.10232E-001	5.27133E-001	-2.57261E-002	-3.70171E-002	7.08013E-001	-4.38200E-002	-7.48805E-004	6.02891E-005	-6.82848E-003	-5.89860E-003	2.87874E-004	4.14220E-004	-7.92265E-003	4.90345E-004
	161	161	4.99693E-002	-1.11046E-002	0.00000E+000	-5.54891E-004	-1.09151E-001	4.00955E-002	3.56453E+001	11	...........	6.69104E-002	-5.38694E-003	6.10117E-001	5.26999E-001	-2.57336E-002	-3.70307E-002	7.07937E-001	-4.38057E-002	-7.43015E-004	5.98200E-005	-6.77512E-003	-5.85213E-003	2.85762E-004	4.11212E-004	-7.86137E-003	4.86446E-004
	162	162	4.99710E-002	-1.09643E-002	0.00000E+000	-5.47899E-004	-1.07757E-001	4.00812E-002	3.58301E+001	11	...........	6.68925E-002	-5.47069E-003	6.09953E-001	5.26930E-001	-2.57344E-002	-3.70390E-002	7.07990E-001	-4.37265E-002	-7.33431E-004	5.99825E-005	-6.68772E-003	-5.77743E-003	2.82161E-004	4.06108E-004	-7.76264E-003	4.79432E-004
	163	163	4.99693E-002	-1.07960E-002	0.00000E+000	-5.39470E-004	-1.06076E-001	4.00882E-002	3.53310E+001	11	...........	6.69054E-002	-5.42097E-003	6.09758E-001	5.26802E-001	-2.57174E-002	-3.70437E-002	7.08064E-001	-4.38567E-002	-7.22311E-004	5.85249E-005	-6.58295E-003	-5.68736E-003	2.77645E-004	3.99925E-004	-7.64426E-003	4.73477E-004
	164	164	4.99691E-002	-1.04918E-002	0.00000E+000	-5.24267E-004	-1.03067E-001	3.98686E-002	3.40463E+001	11	...........	6.65181E-002	-5.41750E-003	6.09782E-001	5.26865E-001	-2.57233E-002	-3.70125E-002	7.08120E-001	-4.38447E-002	-6.97896E-004	5.68395E-005	-6.39773E-003	-5.52778E-003	2.69885E-004	3.88329E-004	-7.42947E-003	4.60011E-004
	165	165	4.99733E-002	-1.05577E-002	0.00000E+000	-5.27605E-004	-1.03705E-001	4.02342E-002	3.54465E+001	11	...........	6.71449E-002	-5.34278E-003	6.09820E-001	5.26874E-001	-2.57451E-002	-3.70196E-002	7.08013E-001	-4.37937E-002	-7.08898E-004	5.64077E-005	-6.43833E-003	-5.56260E-003	2.71811E-004	3.90843E-004	-7.47502E-003	4.62363E-004
	166	166	4.99701E-002	-1.04982E-002	0.00000E+000	-5.24598E-004	-1.03124E-001	4.00696E-002	3.57510E+001	11	...........	6.68836E-002	-5.33278E-003	6.09867E-001	5.26951E-001	-2.57561E-002	-3.70262E-002	7.08029E-001	-4.38214E-002	-7.02159E-004	5.59847E-005	-6.40252E-003	-5.53205E-003	2.70394E-004	3.88710E-004	-7.43305E-003	4.60047E-004
	167	167	4.99699E-002	-1.03511E-002	0.00000E+000	-5.17244E-004	-1.01697E-001	4.01387E-002	3.58378E+001	11	...........	6.69979E-002	-5.31611E-003	6.09915E-001	5.26906E-001	-2.57494E-002	-3.70260E-002	7.07907E-001	-4.38069E-002	-6.93502E-004	5.50276E-005	-6.31330E-003	-5.45405E-003	2.66535E-004	3.83260E-004	-7.32762E-003	4.53450E-004
	168	168	4.99705E-002	-1.02513E-002	0.00000E+000	-5.12262E-004	-1.00707E-001	4.01494E-002	3.59782E+001	11	...........	6.69719E-002	-5.35417E-003	6.09935E-001	5.26858E-001	-2.57257E-002	-3.70247E-002	7.08104E-001	-4.39090E-002	-6.86549E-004	5.48871E-005	-6.25262E-003	-5.40097E-003	2.63721E-004	3.79551E-004	-7.25898E-003	4.50124E-004
	169	169	4.99698E-002	-1.01026E-002	0.00000E+000	-5.04825E-004	-9.92247E-002	4.01608E-002	3.48867E+001	11	...........	6.70050E-002	-5.41486E-003	6.09958E-001	5.26933E-001	-2.57185E-002	-3.70165E-002	7.08031E-001	-4.38861E-002	-6.76925E-004	5.47042E-005	-6.16216E-003	-5.32339E-003	2.59823E-004	3.73963E-004	-7.15295E-003	4.43364E-004
	170	170	4.99690E-002	-9.75000E-003	0.00000E+000	-4.87198E-004	-9.57113E-002	3.99195E-002	3.42677E+001	11	...........	6.66193E-002	-5.38819E-003	6.10060E-001	5.27043E-001	-2.57801E-002	-3.70204E-002	7.08028E-001	-4.39365E-002	-6.49538E-004	5.25349E-005	-5.94808E-003	-5.13867E-003	2.51356E-004	3.60949E-004	-6.90328E-003	4.28381E-004
	171	171	4.99724E-002	-9.84393E-003	0.00000E+000	-4.91924E-004	-9.66427E-002	4.02435E-002	3.57782E+001	11	...........	6.71690E-002	-5.54375E-003	6.10127E-001	5.27035E-001	-2.57889E-002	-3.70022E-002	7.07957E-001	-4.39562E-002	-6.61207E-004	5.45723E-005	-6.00604E-003	-5.18809E-003	2.53864E-004	3.64247E-004	-6.96908E-003	4.32702E-004
	172	172	4.99671E-002	-9.75570E-003	0.00000E+000	-4.87464E-004	-9.57587E-002	4.01497E-002	3.54265E+001	11	...........	6.70087E-002	-5.51903E-003	6.10189E-001	5.27062E-001	-2.57981E-002	-3.69794E-002	7.07959E-001	-4.38924E-002	-6.53717E-004	5.38420E-005	-5.95283E-003	-5.14186E-003	2.51678E-004	3.60760E-004	-6.90664E-003	4.28201E-004
	173	173	4.99738E-002	-9.60114E-003	0.00000E+000	-4.79805E-004	-9.42253E-002	4.01366E-002	3.57196E+001	11	...........	6.69751E-002	-5.43389E-003	6.10352E-001	5.27049E-001	-2.58115E-002	-3.69937E-002	7.08130E-001	-4.37950E-002	-6.43038E-004	5.21715E-005	-5.86007E-003	-5.06027E-003	2.47820E-004	3.55182E-004	-6.79886E-003	4.20482E-004
	174	174	4.99691E-002	-9.49404E-003	0.00000E+000	-4.74408E-004	-9.31587E-002	4.01382E-002	3.51748E+001	11	...........	6.69714E-002	-5.36542E-003	6.10515E-001	5.27173E-001	-2.58160E-002	-3.69997E-002	7.08120E-001	-4.38061E-002	-6.35829E-004	5.09395E-005	-5.79625E-003	-5.00500E-003	2.45098E-004	3.51277E-004	-6.72292E-003	4.15897E-004
	175	175	4.99714E-002	-9.31020E-003	0.00000E+000	-4.65244E-004	-9.13233E-002	4.00787E-002	3.47403E+001	11	...........	6.68861E-002	-5.24403E-003	6.10414E-001	5.27305E-001	-2.58118E-002	-3.70037E-002	7.08169E-001	-4.37867E-002	-6.22723E-004	4.88229E-005	-5.68307E-003	-4.90932E-003	2.40313E-004	3.44512E-004	-6.59319E-003	4.07663E-004
	176	176	4.99711E-002	-9.27849E-003	0.00000E+000	-4.63657E-004	-9.10060E-002	4.01287E-002	3.58458E+001	11	...........	6.69567E-002	-5.38111E-003	6.10349E-001	5.27265E-001	-2.58199E-002	-3.70157E-002	7.08079E-001	-4.38197E-002	-6.21257E-004	4.99286E-005	-5.66312E-003	-4.89223E-003	2.39569E-004	3.43450E-004	-6.56991E-003	4.06581E-004
	177	177	4.99705E-002	-9.25181E-003	0.00000E+000	-4.62317E-004	-9.07393E-002	4.01848E-002	3.58585E+001	11	...........	6.70576E-002	-5.52292E-003	6.10301E-001	5.27326E-001	-2.58253E-002	-3.70599E-002	7.08034E-001	-4.38290E-002	-6.20404E-004	5.10969E-005	-5.64638E-003	-4.87872E-003	2.38930E-004	3.42871E-004	-6.55059E-003	4.05498E-004
	178	178	4.99696E-002	-9.09947E-003	0.00000E+000	-4.54697E-004	-8.92193E-002	4.01867E-002	3.57242E+001	11	...........	6.70739E-002	-5.44250E-003	6.10254E-001	5.27347E-001	-2.58282E-002	-3.70753E-002	7.08017E-001	-4.38304E-002	-6.10337E-004	4.95238E-005	-5.55299E-003	-4.79858E-003	2.35023E-004	3.37365E-004	-6.44258E-003	3.98833E-004
	179	179	4.99698E-002	-8.86288E-003	0.00000E+000	-4.42876E-004	-8.68907E-002	3.99962E-002	3.41944E+001	11	...........	6.67558E-002	-5.33514E-003	6.10207E-001	5.27335E-001	-2.58386E-002	-3.70729E-002	7.08043E-001	-4.39629E-002	-5.91649E-004	4.72847E-005	-5.40819E-003	-4.67370E-003	2.29004E-004	3.28573E-004	-6.27530E-003	3.89638E-004
	180	180	4.99714E-002	-8.77573E-003	0.00000E+000	-4.38536E-004	-8.60253E-002	4.01719E-002	3.51552E+001	11	...........	6.70372E-002	-5.39028E-003	6.10225E-001	5.27272E-001	-2.58303E-002	-3.70762E-002	7.08106E-001	-4.38922E-002	-5.88301E-004	4.73036E-005	-5.35517E-003	-4.62720E-003	2.26680E-004	3.25371E-004	-6.21414E-003	3.85186E-004
	181	181	4.99717E-002	-8.81268E-003	0.00000E+000	-4.40384E-004	-8.63907E-002	4.02415E-002	3.61928E+001	11	...........	6.71537E-002	-5.45417E-003	6.10408E-001	5.27250E-001	-2.57854E-002	-3.70683E-002	7.08113E-001	-4.38814E-002	-5.91804E-004	4.80658E-005	-5.37933E-003	-4.64649E-003	2.27239E-004	3.26671E-004	-6.24038E-003	3.86713E-004
	182	182	4.99698E-002	-8.71041E-003	0.00000E+000	-4.35257E-004	-8.53720E-002	4.01923E-002	3.56137E+001	11	...........	6.70814E-002	-5.43056E-003	6.10597E-001	5.26995E-001	-2.57892E-002	-3.70439E-002	7.08236E-001	-4.37987E-002	-5.84306E-004	4.73024E-005	-5.31855E-003	-4.59035E-003	2.24634E-004	3.22667E-004	-6.16903E-003	3.81505E-004
	183	183	4.99692E-002	-8.56323E-003	0.00000E+000	-4.27898E-004	-8.39067E-002	4.01747E-002	3.54774E+001	11	...........	6.70478E-002	-5.42403E-003	6.10664E-001	5.27229E-001	-2.58053E-002	-3.70746E-002	7.08072E-001	-4.38101E-002	-5.74145E-004	4.64472E-005	-5.22925E-003	-4.51478E-003	2.20976E-004	3.17478E-004	-6.06338E-003	3.75156E-004
	184	184	4.99708E-002	-8.38699E-003	0.00000E+000	-4.19105E-004	-8.21520E-002	4.00972E-002	3.48970E+001	11	...........	6.69097E-002	-5.51819E-003	6.10625E-001	5.27200E-001	-2.58068E-002	-3.70857E-002	7.08002E-001	-4.38407E-002	-5.61171E-004	4.62810E-005	-5.12131E-003	-4.42162E-003	2.16441E-004	3.11037E-004	-5.93801E-003	3.67692E-004
	185	185	4.99728E-002	-8.36989E-003	0.00000E+000	-4.18267E-004	-8.19813E-002	4.02095E-002	3.58620E+001	11	...........	6.70993E-002	-5.42972E-003	6.10762E-001	5.27109E-001	-2.58076E-002	-3.70651E-002	7.08081E-001	-4.38714E-002	-5.61614E-004	4.54462E-005	-5.11202E-003	-4.41184E-003	2.16007E-004	3.10231E-004	-5.92657E-003	3.67199E-004
	186	186	4.99705E-002	-8.35974E-003	0.00000E+000	-4.17741E-004	-8.18773E-002	4.02431E-002	3.61464E+001	11	...........	6.71704E-002	-5.36597E-003	6.10822E-001	5.27007E-001	-2.58029E-002	-3.70510E-002	7.08172E-001	-4.38272E-002	-5.61527E-004	4.48581E-005	-5.10631E-003	-4.40564E-003	2.15706E-004	3.09737E-004	-5.92013E-003	3.66384E-004
	187	187	4.99704E-002	-8.23046E-003	0.00000E+000	-4.11280E-004	-8.05907E-002	4.02268E-002	3.60646E+001	11	...........	6.71446E-002	-5.39764E-003	6.10928E-001	5.26985E-001	-2.58036E-002	-3.70593E-002	7.08126E-001	-4.38661E-002	-5.52631E-004	4.44251E-005	-5.02822E-003	-4.33733E-003	2.12376E-004	3.05015E-004	-5.82821E-003	3.61038E-004
	188	188	4.99710E-002	-8.10990E-003	0.00000E+000	-4.05260E-004	-7.93927E-002	4.01694E-002	3.50681E+001	11	...........	6.70168E-002	-5.42375E-003	6.10957E-001	5.26863E-001	-2.58078E-002	-3.70528E-002	7.07991E-001	-4.39090E-002	-5.43499E-004	4.39860E-005	-4.95480E-003	-4.27280E-003	2.09298E-004	3.00494E-004	-5.74174E-003	3.56098E-004
	189	189	4.99701E-002	-8.04961E-003	0.00000E+000	-4.02240E-004	-7.87927E-002	4.03544E-002	3.56627E+001	11	...........	6.73256E-002	-5.41514E-003	6.10813E-001	5.26768E-001	-2.58178E-002	-3.70483E-002	7.07920E-001	-4.40529E-002	-5.41944E-004	4.35897E-005	-4.91680E-003	-4.24028E-003	2.07823E-004	2.98225E-004	-5.69848E-003	3.54609E-004
	190	190	4.99699E-002	-7.86514E-003	0.00000E+000	-3.93020E-004	-7.69700E-002	4.00864E-002	3.50482E+001	11	...........	6.68962E-002	-5.34319E-003	6.10560E-001	5.26570E-001	-2.57943E-002	-3.70261E-002	7.08036E-001	-4.39929E-002	-5.26148E-004	4.20250E-005	-4.80214E-003	-4.14155E-003	2.02876E-004	2.91216E-004	-5.56881E-003	3.46010E-004
	191	191	4.99700E-002	-7.83380E-003	0.00000E+000	-3.91456E-004	-7.66580E-002	4.02853E-002	3.45167E+001	11	...........	6.72258E-002	-5.32500E-003	6.10667E-001	5.26586E-001	-2.57712E-002	-3.70315E-002	7.07911E-001	-4.39274E-002	-5.26634E-004	4.17150E-005	-4.78385E-003	-4.12517E-003	2.01887E-004	2.90098E-004	-5.54563E-003	3.44118E-004
	192	192	4.99729E-002	-7.75600E-003	0.00000E+000	-3.87590E-004	-7.58973E-002	4.02426E-002	3.61796E+001	11	...........	6.71487E-002	-5.27917E-003	6.10665E-001	5.26602E-001	-2.57839E-002	-3.70262E-002	7.07931E-001	-4.39410E-002	-5.20806E-004	4.09452E-005	-4.73632E-003	-4.08433E-003	1.99980E-004	2.87176E-004	-5.49072E-003	3.40806E-004
	193	193	4.99706E-002	-7.71001E-003	0.00000E+000	-3.85274E-004	-7.54320E-002	4.02432E-002	3.62204E+001	11	...........	6.71529E-002	-5.36514E-003	6.10784E-001	5.26641E-001	-2.58065E-002	-3.70183E-002	7.07967E-001	-4.39014E-002	-5.17750E-004	4.13653E-005	-4.70915E-003	-4.06041E-003	1.98969E-004	2.85412E-004	-5.45843E-003	3.38480E-004
	194	194	4.99711E-002	-7.60193E-003	0.00000E+000	-3.79877E-004	-7.43533E-002	4.02023E-002	3.58512E+001	11	...........	6.70946E-002	-5.40917E-003	6.10739E-001	5.26477E-001	-2.58200E-002	-3.70165E-002	7.07838E-001	-4.39139E-002	-5.10048E-004	4.11201E-005	-4.64280E-003	-4.00224E-003	1.96282E-004	2.81397E-004	-5.38093E-003	3.33830E-004
	195	195	4.99695E-002	-7.46200E-003	0.00000E+000	-3.72872E-004	-7.29600E-002	4.02066E-002	3.56329E+001	11	...........	6.70943E-002	-5.39889E-003	6.10835E-001	5.26543E-001	-2.58143E-002	-3.70219E-002	7.07798E-001	-4.38799E-002	-5.00658E-004	4.02865E-005	-4.55805E-003	-3.92906E-003	1.92626E-004	2.76258E-004	-5.28159E-003	3.27431E-004
	196	196	4.99690E-002	-7.34700E-003	0.00000E+000	-3.67123E-004	-7.18127E-002	4.01383E-002	3.44099E+001	11	...........	6.69692E-002	-5.53611E-003	6.10747E-001	5.26452E-001	-2.58014E-002	-3.70397E-002	7.07839E-001	-4.38524E-002	-4.92023E-004	4.06738E-005	-4.48716E-003	-3.86784E-003	1.89563E-004	2.72131E-004	-5.20050E-003	3.22183E-004
	197	197	4.99744E-002	-7.34535E-003	0.00000E+000	-3.67079E-004	-7.17940E-002	4.02784E-002	3.59263E+001	11	...........	6.72228E-002	-5.27431E-003	6.10690E-001	5.26311E-001	-2.57879E-002	-3.70404E-002	7.07816E-001	-4.37689E-002	-4.93775E-004	3.87416E-005	-4.48573E-003	-3.86594E-003	1.89421E-004	2.72075E-004	-5.19915E-003	3.21498E-004
	198	198	4.99713E-002	-7.33340E-003	0.00000E+000	-3.66460E-004	-7.16760E-002	4.02857E-002	3.60827E+001	11	...........	6.72229E-002	-5.25028E-003	6.10609E-001	5.26284E-001	-2.57994E-002	-3.70335E-002	7.07809E-001	-4.37929E-002	-4.92973E-004	3.85024E-005	-4.47784E-003	-3.85945E-003	1.89198E-004	2.71581E-004	-5.19065E-003	3.21151E-004
	199	199	4.99700E-002	-7.23459E-003	0.00000E+000	-3.61513E-004	-7.06913E-002	4.02860E-002	3.61509E+001	11	...........	6.72303E-002	-5.34125E-003	6.10555E-001	5.26106E-001	-2.57662E-002	-3.70058E-002	7.07806E-001	-4.38696E-002	-4.86383E-004	3.86417E-005	-4.41711E-003	-3.80616E-003	1.86408E-004	2.67722E-004	-5.12068E-003	3.17378E-004
	200	200	4.99712E-002	-7.09003E-003	0.00000E+000	-3.54297E-004	-6.92513E-002	4.01076E-002	3.55033E+001	11	...........	6.69400E-002	-5.38000E-003	6.10529E-001	5.26015E-001	-2.57693E-002	-3.70068E-002	7.07807E-001	-4.37383E-002	-4.74606E-004	3.81443E-005	-4.32867E-003	-3.72946E-003	1.82705E-004	2.62379E-004	-5.01837E-003	3.10106E-004
	201	201	4.99710E-002	-7.06557E-003	0.00000E+000	-3.53073E-004	-6.90087E-002	4.04372E-002	3.59213E+001	11	...........	6.74769E-002	-5.43972E-003	6.10611E-001	5.25926E-001	-2.57917E-002	-3.69900E-002	7.07998E-001	-4.37697E-002	-4.76763E-004	3.84347E-005	-4.31431E-003	-3.71597E-003	1.82233E-004	2.61355E-004	-5.00241E-003	3.09258E-004
	202	202	4.99696E-002	-6.90495E-003	0.00000E+000	-3.45037E-004	-6.74073E-002	4.00622E-002	3.48219E+001	11	...........	6.68507E-002	-5.33361E-003	6.10500E-001	5.25749E-001	-2.57932E-002	-3.69856E-002	7.07932E-001	-4.38312E-002	-4.61601E-004	3.68283E-005	-4.21547E-003	-3.63027E-003	1.78101E-004	2.55383E-004	-4.88824E-003	3.02653E-004
	203	203	4.99725E-002	-6.91369E-003	0.00000E+000	-3.45494E-004	-6.74920E-002	4.03752E-002	3.58210E+001	11	...........	6.73837E-002	-5.27986E-003	6.10498E-001	5.25770E-001	-2.57979E-002	-3.69693E-002	7.07959E-001	-4.38711E-002	-4.65870E-004	3.65033E-005	-4.22080E-003	-3.63501E-003	1.78359E-004	2.55594E-004	-4.89461E-003	3.03311E-004
	204	204	4.99711E-002	-6.84946E-003	0.00000E+000	-3.42275E-004	-6.68540E-002	4.02653E-002	3.62593E+001	11	...........	6.72097E-002	-5.38153E-003	6.10631E-001	5.25706E-001	-2.58142E-002	-3.69475E-002	7.07918E-001	-4.38400E-002	-4.60351E-004	3.68606E-005	-4.18249E-003	-3.60080E-003	1.76813E-004	2.53071E-004	-4.84886E-003	3.00281E-004
	205	205	4.99708E-002	-6.78784E-003	0.00000E+000	-3.39194E-004	-6.62433E-002	4.02822E-002	3.59465E+001	11	...........	6.72204E-002	-5.48750E-003	6.10768E-001	5.25642E-001	-2.58112E-002	-3.69542E-002	7.07744E-001	-4.37442E-002	-4.56281E-004	3.72483E-005	-4.14579E-003	-3.56797E-003	1.75203E-004	2.50839E-004	-4.80405E-003	2.96928E-004
	206	206	4.99708E-002	-6.73172E-003	0.00000E+000	-3.36389E-004	-6.56820E-002	4.03187E-002	3.62646E+001	11	...........	6.72815E-002	-5.47111E-003	6.10679E-001	5.25694E-001	-2.58046E-002	-3.69607E-002	7.07816E-001	-4.37400E-002	-4.52920E-004	3.68300E-005	-4.11092E-003	-3.53882E-003	1.73709E-004	2.48809E-004	-4.76482E-003	2.94445E-004
	207	207	4.99710E-002	-6.66308E-003	0.00000E+000	-3.32961E-004	-6.49940E-002	4.03008E-002	3.51387E+001	11	...........	6.72611E-002	-5.36792E-003	6.10624E-001	5.25794E-001	-2.57837E-002	-3.69625E-002	7.07895E-001	-4.37978E-002	-4.48166E-004	3.57669E-005	-4.06864E-003	-3.50341E-003	1.71799E-004	2.46284E-004	-4.71676E-003	2.91828E-004
	208	208	4.99706E-002	-6.47901E-003	0.00000E+000	-3.23760E-004	-6.31653E-002	4.01344E-002	3.53801E+001	11	...........	6.69681E-002	-5.33222E-003	6.10617E-001	5.26030E-001	-2.57661E-002	-3.69700E-002	7.07895E-001	-4.37781E-002	-4.33887E-004	3.45475E-005	-3.95620E-003	-3.40815E-003	1.66939E-004	2.39529E-004	-4.58646E-003	2.83639E-004
	209	209	4.99713E-002	-6.45865E-003	0.00000E+000	-3.22747E-004	-6.29733E-002	4.02552E-002	3.55822E+001	11	...........	6.71887E-002	-5.48514E-003	6.10490E-001	5.26102E-001	-2.57869E-002	-3.69489E-002	7.08009E-001	-4.37771E-002	-4.33949E-004	3.54266E-005	-3.94294E-003	-3.39791E-003	1.66549E-004	2.38640E-004	-4.57278E-003	2.82741E-004
	210	210	4.99710E-002	-6.45133E-003	0.00000E+000	-3.22379E-004	-6.28980E-002	4.03811E-002	3.56413E+001	11	...........	6.73758E-002	-5.41847E-003	6.10479E-001	5.26146E-001	-2.57829E-002	-3.69496E-002	7.08073E-001	-4.37557E-002	-4.34663E-004	3.49563E-005	-3.93840E-003	-3.39434E-003	1.66334E-004	2.38374E-004	-4.56801E-003	2.82282E-004
	211	211	4.99714E-002	-6.40905E-003	0.00000E+000	-3.20269E-004	-6.24900E-002	4.03791E-002	3.62573E+001	11	...........	6.73928E-002	-5.42347E-003	6.10455E-001	5.26158E-001	-2.57725E-002	-3.69597E-002	7.08145E-001	-4.37794E-002	-4.31924E-004	3.47593E-005	-3.91244E-003	-3.37218E-003	1.65177E-004	2.36877E-004	-4.53854E-003	2.80585E-004
	212	212	4.99709E-002	-6.31687E-003	0.00000E+000	-3.15660E-004	-6.15707E-002	4.03179E-002	3.62458E+001	11	...........	6.73022E-002	-5.37514E-003	6.10353E-001	5.26226E-001	-2.57561E-002	-3.69596E-002	7.08029E-001	-4.38287E-002	-4.25139E-004	3.39541E-005	-3.85552E-003	-3.32410E-003	1.62698E-004	2.33469E-004	-4.47253E-003	2.76861E-004
	213	213	4.99712E-002	-6.22403E-003	0.00000E+000	-3.11022E-004	-6.06427E-002	4.03550E-002	3.46100E+001	11	...........	6.73321E-002	-5.31250E-003	6.10364E-001	5.26328E-001	-2.57637E-002	-3.69517E-002	7.08164E-001	-4.38594E-002	-4.19077E-004	3.30651E-005	-3.79893E-003	-3.27588E-003	1.60354E-004	2.29988E-004	-4.40763E-003	2.72982E-004
	214	214	4.99714E-002	-6.08375E-003	0.00000E+000	-3.04014E-004	-5.92473E-002	4.01699E-002	3.57009E+001	11	...........	6.70336E-002	-5.28319E-003	6.10439E-001	5.26333E-001	-2.57561E-002	-3.69585E-002	7.08118E-001	-4.38849E-002	-4.07816E-004	3.21417E-005	-3.71376E-003	-3.20208E-003	1.56694E-004	2.24846E-004	-4.30802E-003	2.66985E-004
	215	215	4.99709E-002	-6.15383E-003	0.00000E+000	-3.07512E-004	-5.99447E-002	4.04173E-002	3.61770E+001	11	...........	6.74564E-002	-5.32236E-003	6.10508E-001	5.26336E-001	-2.57418E-002	-3.69597E-002	7.08126E-001	-4.38864E-002	-4.15115E-004	3.27529E-005	-3.75697E-003	-3.23898E-003	1.58411E-004	2.27444E-004	-4.35769E-003	2.70069E-004
	216	216	4.99688E-002	-6.07574E-003	0.00000E+000	-3.03598E-004	-5.91700E-002	4.03863E-002	3.55553E+001	11	...........	6.74068E-002	-5.37167E-003	6.10424E-001	5.26455E-001	-2.57361E-002	-3.69539E-002	7.08113E-001	-4.39207E-002	-4.09546E-004	3.26368E-005	-3.70878E-003	-3.19860E-003	1.56366E-004	2.24522E-004	-4.30231E-003	2.66851E-004
	217	217	4.99736E-002	-5.97149E-003	0.00000E+000	-2.98417E-004	-5.81300E-002	4.02949E-002	3.60993E+001	11	...........	6.72518E-002	-5.27778E-003	6.10260E-001	5.26511E-001	-2.57475E-002	-3.69364E-002	7.08064E-001	-4.38301E-002	-4.01593E-004	3.15162E-005	-3.64416E-003	-3.14405E-003	1.53751E-004	2.20565E-004	-4.22820E-003	2.61731E-004
	218	218	4.99709E-002	-5.94005E-003	0.00000E+000	-2.96829E-004	-5.78160E-002	4.03656E-002	3.61336E+001	11	...........	6.73511E-002	-5.28319E-003	6.10116E-001	5.26689E-001	-2.57522E-002	-3.69239E-002	7.08096E-001	-4.37599E-002	-4.00069E-004	3.13824E-005	-3.62412E-003	-3.12856E-003	1.52969E-004	2.19330E-004	-4.20613E-003	2.59936E-004
	219	219	4.99711E-002	-5.82378E-003	0.00000E+000	-2.91021E-004	-5.66573E-002	4.01629E-002	3.50153E+001	11	...........	6.70251E-002	-5.30167E-003	6.10070E-001	5.26641E-001	-2.57515E-002	-3.69217E-002	7.08091E-001	-4.38029E-002	-3.90340E-004	3.08757E-005	-3.55291E-003	-3.06704E-003	1.49971E-004	2.15024E-004	-4.12377E-003	2.55099E-004
	220	220	4.99715E-002	-5.82124E-003	0.00000E+000	-2.90896E-004	-5.66347E-002	4.04094E-002	3.62142E+001	11	...........	6.74337E-002	-5.32361E-003	6.10118E-001	5.26701E-001	-2.57244E-002	-3.69057E-002	7.08112E-001	-4.39353E-002	-3.92548E-004	3.09900E-005	-3.55164E-003	-3.06605E-003	1.49748E-004	2.14837E-004	-4.12209E-003	2.55758E-004
	221	221	4.99713E-002	-5.78524E-003	0.00000E+000	-2.89096E-004	-5.62773E-002	4.03742E-002	3.64535E+001	11	...........	6.73667E-002	-5.36639E-003	6.10239E-001	5.26651E-001	-2.57435E-002	-3.69293E-002	7.08135E-001	-4.37754E-002	-3.89732E-004	3.10458E-005	-3.53038E-003	-3.04680E-003	1.48932E-004	2.13645E-004	-4.09673E-003	2.53251E-004
	222	222	4.99705E-002	-5.70792E-003	0.00000E+000	-2.85228E-004	-5.55087E-002	4.03357E-002	3.54591E+001	11	...........	6.73099E-002	-5.34403E-003	6.10130E-001	5.26612E-001	-2.57533E-002	-3.69190E-002	7.07985E-001	-4.38221E-002	-3.84199E-004	3.05033E-005	-3.48257E-003	-3.00586E-003	1.46998E-004	2.10731E-004	-4.04112E-003	2.50133E-004
	223	223	4.99712E-002	-5.61894E-003	0.00000E+000	-2.80785E-004	-5.46213E-002	4.03192E-002	3.60174E+001	11	...........	6.72900E-002	-5.30347E-003	6.10090E-001	5.26735E-001	-2.57460E-002	-3.69011E-002	7.07860E-001	-4.38486E-002	-3.78099E-004	2.97999E-005	-3.42806E-003	-2.95969E-003	1.44665E-004	2.07345E-004	-3.97742E-003	2.46383E-004
	224	224	4.99716E-002	-5.59186E-003	0.00000E+000	-2.79434E-004	-5.43513E-002	4.04241E-002	3.56959E+001	11	...........	6.74629E-002	-5.26361E-003	6.10204E-001	5.26704E-001	-2.57621E-002	-3.69082E-002	7.07944E-001	-4.37921E-002	-3.77243E-004	2.94334E-005	-3.41218E-003	-2.94526E-003	1.44058E-004	2.06386E-004	-3.95872E-003	2.44879E-004
	225	225	4.99710E-002	-5.51056E-003	0.00000E+000	-2.75368E-004	-5.35420E-002	4.02558E-002	3.59033E+001	11	...........	6.71851E-002	-5.22153E-003	6.09966E-001	5.26802E-001	-2.57774E-002	-3.68975E-002	7.08089E-001	-4.39082E-002	-3.70227E-004	2.87735E-005	-3.36125E-003	-2.90297E-003	1.42048E-004	2.03326E-004	-3.90196E-003	2.41959E-004
	226	226	4.99716E-002	-5.51382E-003	0.00000E+000	-2.75535E-004	-5.35720E-002	4.04516E-002	3.53218E+001	11	...........	6.75103E-002	-5.37681E-003	6.09891E-001	5.26783E-001	-2.57874E-002	-3.68718E-002	7.08161E-001	-4.39254E-002	-3.72240E-004	2.96467E-005	-3.36283E-003	-2.90459E-003	1.42187E-004	2.03305E-004	-3.90468E-003	2.42197E-004
	227	227	4.99702E-002	-5.39880E-003	0.00000E+000	-2.69779E-004	-5.24267E-002	4.03302E-002	3.61320E+001	11	...........	6.73079E-002	-5.22083E-003	6.09936E-001	5.26718E-001	-2.57683E-002	-3.68951E-002	7.08084E-001	-4.38357E-002	-3.63382E-004	2.81862E-005	-3.29292E-003	-2.84364E-003	1.39118E-004	1.99189E-004	-3.82280E-003	2.36660E-004
	228	228	4.99708E-002	-5.35541E-003	0.00000E+000	-2.67614E-004	-5.19947E-002	4.04107E-002	3.54096E+001	11	...........	6.74415E-002	-5.19542E-003	6.10133E-001	5.26659E-001	-2.57950E-002	-3.69224E-002	7.07905E-001	-4.38249E-002	-3.61177E-004	2.78236E-005	-3.26751E-003	-2.82047E-003	1.38143E-004	1.97734E-004	-3.79112E-003	2.34700E-004
	229	229	4.99721E-002	-5.30808E-003	0.00000E+000	-2.65256E-004	-5.15280E-002	4.03651E-002	3.60370E+001	11	...........	6.73726E-002	-5.19917E-003	6.10374E-001	5.26681E-001	-2.58207E-002	-3.69454E-002	7.07912E-001	-4.38517E-002	-3.57619E-004	2.75976E-005	-3.23991E-003	-2.79567E-003	1.37058E-004	1.96109E-004	-3.75765E-003	2.32768E-004
	230	230	4.99716E-002	-5.30338E-003	0.00000E+000	-2.65018E-004	-5.14800E-002	4.04438E-002	3.61501E+001	11	...........	6.74964E-002	-5.30375E-003	6.10389E-001	5.26765E-001	-2.58285E-002	-3.69235E-002	7.07865E-001	-4.37568E-002	-3.57959E-004	2.81278E-005	-3.23713E-003	-2.79363E-003	1.36978E-004	1.95819E-004	-3.75408E-003	2.32059E-004
	231	231	4.99712E-002	-5.25430E-003	0.00000E+000	-2.62563E-004	-5.10020E-002	4.04506E-002	3.62730E+001	11	...........	6.75089E-002	-5.28556E-003	6.10460E-001	5.26920E-001	-2.58357E-002	-3.69349E-002	7.07823E-001	-4.37283E-002	-3.54712E-004	2.77719E-005	-3.20754E-003	-2.76860E-003	1.35748E-004	1.94067E-004	-3.71911E-003	2.29762E-004
	232	232	4.99710E-002	-5.17771E-003	0.00000E+000	-2.58736E-004	-5.02473E-002	4.03688E-002	3.55662E+001	11	...........	6.73601E-002	-5.30583E-003	6.10341E-001	5.26987E-001	-2.58289E-002	-3.69424E-002	7.07951E-001	-4.38008E-002	-3.48771E-004	2.74721E-005	-3.16017E-003	-2.72859E-003	1.33735E-004	1.91277E-004	-3.66557E-003	2.26788E-004
	233	233	4.99715E-002	-5.14657E-003	0.00000E+000	-2.57182E-004	-4.99347E-002	4.05316E-002	3.53280E+001	11	...........	6.76387E-002	-5.39653E-003	6.10474E-001	5.27165E-001	-2.58382E-002	-3.69396E-002	7.07976E-001	-4.38262E-002	-3.48108E-004	2.77736E-005	-3.14185E-003	-2.71309E-003	1.32978E-004	1.90112E-004	-3.64365E-003	2.25555E-004
	234	233.388	4.99683E-002	-5.06739E-003	0.00000E+000	-2.53209E-004	-4.91485E-002	4.02545E-002	3.42868E+001	11	...........	6.71380E-002	-5.35587E-003	6.10659E-001	5.27197E-001	-2.58197E-002	-3.69760E-002	7.08031E-001	-4.38183E-002	-3.40215E-004	2.71403E-005	-3.09445E-003	-2.67151E-003	1.30839E-004	1.87372E-004	-3.58787E-003	2.22045E-004
STARTTIMEOFFSET	QUANT	689388.3	Start Time Offset (s)
