EXPLAIN
TAG	PWR800_DISCHARGE
TITLE	LABEL	PWR Discharge	Test Identifier
DATE	LABEL	10/14/2022	Date
TIME	LABEL	11:47:53	Time
NOTES	NOTES	1	Notes...
	
PSTAT	PSTAT	REF3000-21114	Potentiostat
CAPACITY	QUANT	5.30000E-002	Capacity (A-hr)
CELLTYPE	SELECTOR	1	Cell Type
WORKINGCONNECTION	SELECTOR	0	Working Connection
MAXDISCHARGETIME	VARIABLEANDUNITS	7.20000E+003	s	2.00000E+000	hour(s)	Max Discharge Time
DISCHARGEMODE	MULTIPARAM	0	1.00000E-001	Discharge Mode	Constant Current	Amp(s)
VOLTAGEFINISH	TWOPARAM	T	5.00000E-003	7.20000E+003	Voltage Finish	I (A) <	Max Time(s)
SAMPLETIME	QUANT	1.00000E+000	Sample Period (s)
DISCHARGESTOPAT1	MULTIPARAM	1	5.00000E-002	Stop At 1	|Voltage| < Limit	V
DISCHARGESTOPAT2	MULTIPARAM	0	0.00000E+000	Stop At 2	None	N/A
AESELECTOR	AESELECTOR	0x1	T	Set Limits	AE Channels
AESBHCSELECTOR	TOGGLE	F	Save Both Half Cells
IRCOMP	TOGGLE	F	IR Measure
EOC	QUANT	0.5740615	Open Circuit (V)
SEQUENCER	TOGGLE	TRUE	Run as Sequence
PSTATMODEL	IQUANT	5	Pstat Model
PSTATSECTION	LABEL	REF3000-21114	Pstat Section
PSTATSERIALNO	LABEL	21114	Pstat Serial Number
CTRLMODE	IQUANT	0	Control Mode
ELECTROMETER	IQUANT	0	RE=0 or CS=1
IESTAB	IQUANT	0	I/E Stability
CASPEED	IQUANT	4	Control Amp Speed
CONVENTION	IQUANT	1	Current Convention
ICHRANGE	IQUANT	2	Ich Range
ICHRANGEMODE	TOGGLE	T	Ich Auto Range
ICHOFFSETENABLE	TOGGLE	F	Ich Offset Enable
ICHOFFSET	QUANT	0	Ich Offset (V)
ICHFILTER	IQUANT	1	Ich Filter
VCHRANGE	IQUANT	3	Vch Range
VCHRANGEMODE	TOGGLE	T	Vch Auto Range
VCHOFFSETENABLE	TOGGLE	F	Vch Offset Enable
VCHOFFSET	QUANT	0	Vch Offset (V)
VCHFILTER	IQUANT	1	Vch Filter
ACHRANGE	IQUANT	2	Ach Range
ACHOFFSETENABLE	TOGGLE	F	Ach Offset Enable
ACHOFFSET	QUANT	0	Ach Offset (V)
ACHFILTER	IQUANT	1	Ach Filter
IERANGELOWERLIMIT	IQUANT	9	I/E Range Lower Limit
IERANGEMODE	TOGGLE	F	I/E AutoRange
IERANGE	IQUANT	9	I/E Range
POSFEEDENABLE	TOGGLE	F	Positive Feedback IR Comp
POSFEEDRESISTANCE	QUANT	0	Positive Feedback Resistance (ohm)
ACHSELECT	IQUANT	1	Ach Select
SENSECABLEID	IQUANT	13	Sense Cable ID
PWRCABLEID	IQUANT	13	Power Cable ID
DCCALDATE	LABEL		DC Calibration Date
ACCALDATE	LABEL		AC Calibration Date
THERMOSELECT	IQUANT	1	Thermo Select
FRAMEWORKVERSION	LABEL	7.8.6	Framework Version
INSTRUMENTVERSION	LABEL	4.50	Instrument Version
COMPLIANCEVOLTAGE	IQUANT	0	Compliance Voltage
CURVE	TABLE	249
	Pt	T	Vf	Im	Vu	Pwr	Sig	Ach	Temp	IERange	Over	Vf1	Vf2	Vf3	Vf4	Vf5	Vf6	Vf7	Vf8	Pwr1	Pwr2	Pwr3	Pwr4	Pwr5	Pwr6	Pwr7	Pwr8
	#	s	V	A	V	W	V	V	deg C	#	bits	V	V	V	V	V	V	V	V	W	W	W	W	W	W	W	W
	0	1	3.50294E-001	-1.00104E-001	0.00000E+000	-3.50659E-002	-9.94000E-001	3.67428E-002	3.23258E+001	11	...........	6.09429E-002	-5.34903E-003	6.09490E-001	5.30721E-001	-2.57464E-002	-3.69710E-002	7.07100E-001	-4.39585E-002	-6.10064E-003	5.35460E-004	-6.10124E-002	-5.31273E-002	2.57732E-003	3.70095E-003	-7.07836E-002	4.40042E-003
	1	2	2.64328E-001	-1.00105E-001	0.00000E+000	-2.64605E-002	-9.94000E-001	3.67814E-002	3.15590E+001	11	...........	6.09815E-002	-5.36069E-003	6.09459E-001	5.30731E-001	-2.57269E-002	-3.69704E-002	7.07080E-001	-4.38465E-002	-6.10453E-003	5.36630E-004	-6.10096E-002	-5.31285E-002	2.57538E-003	3.70091E-003	-7.07819E-002	4.38923E-003
	2	3	2.01324E-001	-1.00105E-001	0.00000E+000	-2.01536E-002	-9.94000E-001	3.67047E-002	3.06489E+001	11	...........	6.08892E-002	-5.36528E-003	6.09445E-001	5.30802E-001	-2.57172E-002	-3.69446E-002	7.07029E-001	-4.39294E-002	-6.09533E-003	5.37093E-004	-6.10087E-002	-5.31361E-002	2.57443E-003	3.69835E-003	-7.07774E-002	4.39757E-003
	3	4	1.51904E-001	-1.00105E-001	0.00000E+000	-1.52065E-002	-9.94000E-001	3.66608E-002	3.00996E+001	11	...........	6.08240E-002	-5.54486E-003	6.09460E-001	5.30748E-001	-2.57460E-002	-3.69481E-002	7.07132E-001	-4.38649E-002	-6.08881E-003	5.55071E-004	-6.10102E-002	-5.31307E-002	2.57731E-003	3.69870E-003	-7.07877E-002	4.39111E-003
	4	5	1.11417E-001	-1.00105E-001	0.00000E+000	-1.11534E-002	-9.94000E-001	3.66003E-002	2.92325E+001	11	...........	6.07229E-002	-5.50653E-003	6.09350E-001	5.30533E-001	-2.57369E-002	-3.69772E-002	7.07128E-001	-4.37500E-002	-6.07865E-003	5.51230E-004	-6.09988E-002	-5.31089E-002	2.57639E-003	3.70160E-003	-7.07869E-002	4.37958E-003
	5	6	7.97476E-002	-1.00105E-001	0.00000E+000	-7.98316E-003	-9.94000E-001	3.66502E-002	2.89191E+001	11	...........	6.07985E-002	-5.62194E-003	6.09345E-001	5.30636E-001	-2.57328E-002	-3.69807E-002	7.07090E-001	-4.38049E-002	-6.08625E-003	5.62787E-004	-6.09987E-002	-5.31195E-002	2.57599E-003	3.70196E-003	-7.07835E-002	4.38510E-003
	6	6.815	5.77847E-002	-1.00105E-001	0.00000E+000	-5.78454E-003	-9.94000E-001	3.66947E-002	2.92004E+001	11	...........	6.08942E-002	-5.63633E-003	6.09504E-001	5.30642E-001	-2.57370E-002	-3.69635E-002	7.07115E-001	-4.38565E-002	-6.09582E-003	5.64226E-004	-6.10145E-002	-5.31200E-002	2.57641E-003	3.70024E-003	-7.07858E-002	4.39026E-003
	7	7	4.97578E-002	-9.84383E-002	0.00000E+000	-4.89807E-003	-9.77413E-001	3.67977E-002	2.93018E+001	11	...........	6.10833E-002	-5.70946E-003	6.09469E-001	5.30592E-001	-2.57778E-002	-3.69550E-002	7.07185E-001	-4.38326E-002	-6.01294E-003	5.62029E-004	-5.99951E-002	-5.22305E-002	2.53752E-003	3.63778E-003	-6.96140E-002	4.31480E-003
	8	8	4.98599E-002	-9.09131E-002	0.00000E+000	-4.53292E-003	-9.02593E-001	3.68097E-002	2.96583E+001	11	...........	6.10796E-002	-5.56167E-003	6.09456E-001	5.30704E-001	-2.57608E-002	-3.69669E-002	7.07163E-001	-4.38600E-002	-5.55294E-003	5.05629E-004	-5.54076E-002	-4.82480E-002	2.34200E-003	3.36078E-003	-6.42904E-002	3.98745E-003
	9	9	4.99193E-002	-8.33844E-002	0.00000E+000	-4.16249E-003	-8.27738E-001	3.69016E-002	2.98699E+001	11	...........	6.12450E-002	-5.47708E-003	6.09365E-001	5.30872E-001	-2.57726E-002	-3.69556E-002	7.07107E-001	-4.40039E-002	-5.10688E-003	4.56703E-004	-5.08115E-002	-4.42665E-002	2.14904E-003	3.08152E-003	-5.89617E-002	3.66924E-003
	10	10	4.99084E-002	-7.85393E-002	0.00000E+000	-3.91977E-003	-7.79576E-001	3.70339E-002	2.96566E+001	11	...........	6.14433E-002	-5.43347E-003	6.09296E-001	5.30953E-001	-2.57874E-002	-3.69561E-002	7.07142E-001	-4.39068E-002	-4.82572E-003	4.26741E-004	-4.78537E-002	-4.17007E-002	2.02532E-003	2.90251E-003	-5.55385E-002	3.44841E-003
	11	11	4.99809E-002	-7.51789E-002	0.00000E+000	-3.75751E-003	-7.46162E-001	3.70948E-002	3.01555E+001	11	...........	6.15472E-002	-5.43583E-003	6.09289E-001	5.30996E-001	-2.57699E-002	-3.69812E-002	7.07017E-001	-4.40153E-002	-4.62705E-003	4.08660E-004	-4.58057E-002	-3.99197E-002	1.93735E-003	2.78021E-003	-5.31528E-002	3.30902E-003
	12	12	4.99586E-002	-7.35710E-002	0.00000E+000	-3.67550E-003	-7.30173E-001	3.71982E-002	3.06387E+001	11	...........	6.17125E-002	-5.51528E-003	6.09274E-001	5.30974E-001	-2.57821E-002	-3.69808E-002	7.07208E-001	-4.40204E-002	-4.54025E-003	4.05764E-004	-4.48249E-002	-3.90643E-002	1.89681E-003	2.72072E-003	-5.20299E-002	3.23862E-003
	13	13	4.99651E-002	-7.18952E-002	0.00000E+000	-3.59225E-003	-7.13530E-001	3.73105E-002	3.01360E+001	11	...........	6.19185E-002	-5.47097E-003	6.09329E-001	5.30942E-001	-2.57835E-002	-3.69951E-002	7.07199E-001	-4.39349E-002	-4.45164E-003	3.93336E-004	-4.38078E-002	-3.81722E-002	1.85371E-003	2.65977E-003	-5.08442E-002	3.15870E-003
	14	14	4.99708E-002	-6.97600E-002	0.00000E+000	-3.48596E-003	-6.92302E-001	3.73747E-002	3.07889E+001	11	...........	6.20042E-002	-5.48000E-003	6.09274E-001	5.30946E-001	-2.57817E-002	-3.69931E-002	7.06993E-001	-4.38583E-002	-4.32541E-003	3.82285E-004	-4.25029E-002	-3.70388E-002	1.79853E-003	2.58064E-003	-4.93199E-002	3.05956E-003
	15	15	4.99617E-002	-6.89038E-002	0.00000E+000	-3.44255E-003	-6.83797E-001	3.75171E-002	3.10220E+001	11	...........	6.22254E-002	-5.46944E-003	6.09354E-001	5.30919E-001	-2.58036E-002	-3.70132E-002	7.06968E-001	-4.38042E-002	-4.28757E-003	3.76865E-004	-4.19868E-002	-3.65823E-002	1.77797E-003	2.55035E-003	-4.87128E-002	3.01827E-003
	16	16	4.99574E-002	-6.69546E-002	0.00000E+000	-3.34488E-003	-6.64405E-001	3.74517E-002	3.01991E+001	11	...........	6.21374E-002	-5.43819E-003	6.09396E-001	5.31005E-001	-2.58142E-002	-3.70471E-002	7.06940E-001	-4.37946E-002	-4.16038E-003	3.64112E-004	-4.08019E-002	-3.55532E-002	1.72838E-003	2.48047E-003	-4.73329E-002	2.93225E-003
	17	17	4.99871E-002	-6.62776E-002	0.00000E+000	-3.31302E-003	-6.57675E-001	3.76542E-002	3.06853E+001	11	...........	6.24940E-002	-5.37417E-003	6.09391E-001	5.30817E-001	-2.58001E-002	-3.70481E-002	7.06992E-001	-4.38108E-002	-4.14195E-003	3.56187E-004	-4.03889E-002	-3.51813E-002	1.70997E-003	2.45546E-003	-4.68577E-002	2.90368E-003
	18	18	4.99754E-002	-6.55355E-002	0.00000E+000	-3.27516E-003	-6.50301E-001	3.76586E-002	3.10096E+001	11	...........	6.25006E-002	-5.32431E-003	6.09349E-001	5.30761E-001	-2.57658E-002	-3.70307E-002	7.06996E-001	-4.37779E-002	-4.09601E-003	3.48931E-004	-3.99340E-002	-3.47837E-002	1.68858E-003	2.42683E-003	-4.63333E-002	2.86901E-003
	19	19	4.99762E-002	-6.51471E-002	0.00000E+000	-3.25581E-003	-6.46448E-001	3.78010E-002	3.13033E+001	11	...........	6.27243E-002	-5.40708E-003	6.09299E-001	5.30849E-001	-2.57671E-002	-3.70026E-002	7.06956E-001	-4.38215E-002	-4.08631E-003	3.52256E-004	-3.96941E-002	-3.45833E-002	1.67865E-003	2.41062E-003	-4.60561E-002	2.85485E-003
	20	20	4.99730E-002	-6.44261E-002	0.00000E+000	-3.21956E-003	-6.39275E-001	3.77205E-002	3.13207E+001	11	...........	6.27578E-002	-5.46847E-003	6.09252E-001	5.30836E-001	-2.58160E-002	-3.70075E-002	7.06941E-001	-4.38871E-002	-4.04324E-003	3.52312E-004	-3.92517E-002	-3.41997E-002	1.66322E-003	2.38425E-003	-4.55454E-002	2.82747E-003
	21	21	4.99675E-002	-6.33548E-002	0.00000E+000	-3.16568E-003	-6.28615E-001	3.77028E-002	3.13502E+001	11	...........	6.28671E-002	-5.37778E-003	6.09182E-001	5.30731E-001	-2.58325E-002	-3.70036E-002	7.06821E-001	-4.37972E-002	-3.98293E-003	3.40708E-004	-3.85946E-002	-3.36243E-002	1.63661E-003	2.34435E-003	-4.47805E-002	2.77476E-003
	22	22	4.99735E-002	-6.20915E-002	0.00000E+000	-3.10293E-003	-6.16059E-001	3.77005E-002	3.06362E+001	11	...........	6.28344E-002	-5.36458E-003	6.09156E-001	5.30739E-001	-2.58265E-002	-3.69757E-002	7.06950E-001	-4.38031E-002	-3.90148E-003	3.33095E-004	-3.78234E-002	-3.29544E-002	1.60361E-003	2.29587E-003	-4.38956E-002	2.71980E-003
	23	23	4.99899E-002	-6.18764E-002	0.00000E+000	-3.09320E-003	-6.13924E-001	3.78937E-002	3.08618E+001	11	...........	6.31572E-002	-5.52625E-003	6.09190E-001	5.30680E-001	-2.58017E-002	-3.69815E-002	7.06949E-001	-4.38456E-002	-3.90794E-003	3.41944E-004	-3.76945E-002	-3.28366E-002	1.59651E-003	2.28828E-003	-4.37434E-002	2.71300E-003
	24	24	4.99757E-002	-6.12012E-002	0.00000E+000	-3.05857E-003	-6.07218E-001	3.78374E-002	3.14053E+001	11	...........	6.30826E-002	-5.57556E-003	6.09289E-001	5.30472E-001	-2.57953E-002	-3.69842E-002	7.07028E-001	-4.37781E-002	-3.86073E-003	3.41230E-004	-3.72892E-002	-3.24655E-002	1.57870E-003	2.26347E-003	-4.32710E-002	2.67927E-003
	25	25	4.99735E-002	-6.09617E-002	0.00000E+000	-3.04647E-003	-6.04831E-001	3.79850E-002	3.17222E+001	11	...........	6.33525E-002	-5.54653E-003	6.09410E-001	5.30397E-001	-2.57837E-002	-3.69903E-002	7.07084E-001	-4.38492E-002	-3.86207E-003	3.38126E-004	-3.71507E-002	-3.23339E-002	1.57182E-003	2.25499E-003	-4.31050E-002	2.67312E-003
	26	26	4.99771E-002	-6.01394E-002	0.00000E+000	-3.00560E-003	-5.96668E-001	3.79608E-002	3.14619E+001	11	...........	6.33083E-002	-5.49403E-003	6.09437E-001	5.30451E-001	-2.57867E-002	-3.69921E-002	7.07057E-001	-4.38642E-002	-3.80733E-003	3.30408E-004	-3.66512E-002	-3.19010E-002	1.55080E-003	2.22468E-003	-4.25220E-002	2.63797E-003
	27	27	4.99629E-002	-5.95283E-002	0.00000E+000	-2.97421E-003	-5.90580E-001	3.80162E-002	3.13520E+001	11	...........	6.33944E-002	-5.46014E-003	6.09455E-001	5.30596E-001	-2.57612E-002	-3.69906E-002	7.07135E-001	-4.38328E-002	-3.77376E-003	3.25033E-004	-3.62798E-002	-3.15854E-002	1.53352E-003	2.20198E-003	-4.20945E-002	2.60929E-003
	28	28	4.99889E-002	-5.86270E-002	0.00000E+000	-2.93070E-003	-5.81613E-001	3.80805E-002	3.18082E+001	11	...........	6.34919E-002	-5.35917E-003	6.09518E-001	5.30719E-001	-2.57333E-002	-3.69697E-002	7.07024E-001	-4.38461E-002	-3.72234E-003	3.14192E-004	-3.57342E-002	-3.11145E-002	1.50867E-003	2.16743E-003	-4.14507E-002	2.57057E-003
	29	29	4.99792E-002	-5.84367E-002	0.00000E+000	-2.92062E-003	-5.79715E-001	3.81287E-002	3.20267E+001	11	...........	6.35533E-002	-5.58653E-003	6.09481E-001	5.30652E-001	-2.57197E-002	-3.69542E-002	7.06919E-001	-4.38843E-002	-3.71385E-003	3.26458E-004	-3.56161E-002	-3.10095E-002	1.50298E-003	2.15948E-003	-4.13100E-002	2.56445E-003
	30	30	4.99749E-002	-5.77192E-002	0.00000E+000	-2.88451E-003	-5.72604E-001	3.81528E-002	3.17852E+001	11	...........	6.36035E-002	-5.60528E-003	6.09580E-001	5.30435E-001	-2.57235E-002	-3.69187E-002	7.06940E-001	-4.38203E-002	-3.67114E-003	3.23532E-004	-3.51845E-002	-3.06162E-002	1.48474E-003	2.13092E-003	-4.08040E-002	2.52927E-003
	31	31	4.99749E-002	-5.70483E-002	0.00000E+000	-2.85098E-003	-5.65924E-001	3.82224E-002	3.19240E+001	11	...........	6.37306E-002	-5.56931E-003	6.09601E-001	5.30465E-001	-2.57075E-002	-3.69586E-002	7.06971E-001	-4.38124E-002	-3.63572E-003	3.17719E-004	-3.47767E-002	-3.02621E-002	1.46657E-003	2.10843E-003	-4.03315E-002	2.49942E-003
	32	32	4.99646E-002	-5.62221E-002	0.00000E+000	-2.80912E-003	-5.57704E-001	3.83557E-002	3.13813E+001	11	...........	6.39499E-002	-5.45944E-003	6.09697E-001	5.30497E-001	-2.56944E-002	-3.69842E-002	7.07000E-001	-4.39283E-002	-3.59539E-003	3.06941E-004	-3.42784E-002	-2.98256E-002	1.44459E-003	2.07933E-003	-3.97490E-002	2.46974E-003
	33	33	4.99864E-002	-5.50331E-002	0.00000E+000	-2.75091E-003	-5.45885E-001	3.82805E-002	3.15151E+001	11	...........	6.38260E-002	-5.52958E-003	6.09764E-001	5.30408E-001	-2.57079E-002	-3.70047E-002	7.06982E-001	-4.39076E-002	-3.51254E-003	3.04310E-004	-3.35572E-002	-2.91900E-002	1.41479E-003	2.03648E-003	-3.89074E-002	2.41637E-003
	34	34	4.99822E-002	-5.53088E-002	0.00000E+000	-2.76445E-003	-5.48620E-001	3.84611E-002	3.20958E+001	11	...........	6.41556E-002	-5.50931E-003	6.09710E-001	5.30403E-001	-2.57137E-002	-3.70243E-002	7.07036E-001	-4.38599E-002	-3.54837E-003	3.04713E-004	-3.37223E-002	-2.93360E-002	1.42220E-003	2.04777E-003	-3.91054E-002	2.42584E-003
	35	35	4.99790E-002	-5.47069E-002	0.00000E+000	-2.73419E-003	-5.42638E-001	3.84612E-002	3.21767E+001	11	...........	6.41389E-002	-5.45486E-003	6.09687E-001	5.30432E-001	-2.57008E-002	-3.70235E-002	7.07082E-001	-4.38638E-002	-3.50884E-003	2.98418E-004	-3.33540E-002	-2.90182E-002	1.40601E-003	2.02544E-003	-3.86822E-002	2.39965E-003
	36	36	4.99748E-002	-5.42301E-002	0.00000E+000	-2.71013E-003	-5.37906E-001	3.85517E-002	3.22248E+001	11	...........	6.42837E-002	-5.41611E-003	6.09791E-001	5.30477E-001	-2.56929E-002	-3.70192E-002	7.07133E-001	-4.39283E-002	-3.48611E-003	2.93716E-004	-3.30690E-002	-2.87678E-002	1.39333E-003	2.00755E-003	-3.83479E-002	2.38224E-003
	37	37	4.99622E-002	-5.31184E-002	0.00000E+000	-2.65391E-003	-5.26833E-001	3.85638E-002	3.11151E+001	11	...........	6.43217E-002	-5.49069E-003	6.09840E-001	5.30510E-001	-2.57093E-002	-3.70161E-002	7.07070E-001	-4.39165E-002	-3.41666E-003	2.91657E-004	-3.23937E-002	-2.81798E-002	1.36564E-003	1.96623E-003	-3.75584E-002	2.33277E-003
	38	38	4.99914E-002	-5.21633E-002	0.00000E+000	-2.60772E-003	-5.17349E-001	3.85338E-002	3.17222E+001	11	...........	6.42675E-002	-5.49778E-003	6.09839E-001	5.30338E-001	-2.57060E-002	-3.70050E-002	7.07020E-001	-4.39047E-002	-3.35241E-003	2.86782E-004	-3.18112E-002	-2.76642E-002	1.34091E-003	1.93030E-003	-3.68805E-002	2.29022E-003
	39	39	4.99840E-002	-5.27243E-002	0.00000E+000	-2.63537E-003	-5.22924E-001	3.86993E-002	3.24307E+001	11	...........	6.45329E-002	-5.59056E-003	6.09962E-001	5.30160E-001	-2.57154E-002	-3.69883E-002	7.07083E-001	-4.39562E-002	-3.40245E-003	2.94758E-004	-3.21598E-002	-2.79523E-002	1.35583E-003	1.95018E-003	-3.72805E-002	2.31756E-003
	40	40	4.99752E-002	-5.21550E-002	0.00000E+000	-2.60646E-003	-5.17264E-001	3.87322E-002	3.24813E+001	11	...........	6.45794E-002	-5.45583E-003	6.09806E-001	5.30166E-001	-2.57244E-002	-3.69860E-002	7.07097E-001	-4.38876E-002	-3.36814E-003	2.84549E-004	-3.18044E-002	-2.76508E-002	1.34166E-003	1.92900E-003	-3.68787E-002	2.28896E-003
	41	41	4.99592E-002	-5.10098E-002	0.00000E+000	-2.54841E-003	-5.05889E-001	3.86438E-002	3.12613E+001	11	...........	6.44278E-002	-5.41819E-003	6.09741E-001	5.30353E-001	-2.57251E-002	-3.69922E-002	7.07015E-001	-4.38558E-002	-3.28645E-003	2.76381E-004	-3.11028E-002	-2.70532E-002	1.31224E-003	1.88697E-003	-3.60647E-002	2.23708E-003
	42	42	5.00003E-002	-5.07685E-002	0.00000E+000	-2.53844E-003	-5.03503E-001	3.88677E-002	3.24300E+001	11	...........	6.48122E-002	-5.37056E-003	6.09806E-001	5.30419E-001	-2.57203E-002	-3.69587E-002	7.07071E-001	-4.38607E-002	-3.29042E-003	2.72655E-004	-3.09589E-002	-2.69286E-002	1.30578E-003	1.87634E-003	-3.58969E-002	2.22674E-003
	43	43	4.99776E-002	-5.06607E-002	0.00000E+000	-2.53190E-003	-5.02420E-001	3.86284E-002	3.27097E+001	11	...........	6.46975E-002	-5.37306E-003	6.09762E-001	5.30464E-001	-2.57317E-002	-3.69714E-002	7.07011E-001	-4.38517E-002	-3.27762E-003	2.72203E-004	-3.08910E-002	-2.68737E-002	1.30358E-003	1.87300E-003	-3.58177E-002	2.22156E-003
	44	44	4.99699E-002	-4.98375E-002	0.00000E+000	-2.49037E-003	-4.94247E-001	3.88594E-002	3.24277E+001	11	...........	6.47882E-002	-5.38236E-003	6.09668E-001	5.30455E-001	-2.57567E-002	-3.69628E-002	7.07032E-001	-4.39278E-002	-3.22888E-003	2.68243E-004	-3.03844E-002	-2.64365E-002	1.28365E-003	1.84213E-003	-3.52367E-002	2.18925E-003
	45	45	4.99702E-002	-4.90225E-002	0.00000E+000	-2.44967E-003	-4.86143E-001	3.88404E-002	3.20900E+001	11	...........	6.47725E-002	-5.43778E-003	6.09613E-001	5.30336E-001	-2.57854E-002	-3.69582E-002	7.07075E-001	-4.39050E-002	-3.17531E-003	2.66574E-004	-2.98848E-002	-2.59984E-002	1.26407E-003	1.81178E-003	-3.46626E-002	2.15233E-003
	46	46	4.99899E-002	-4.88573E-002	0.00000E+000	-2.44237E-003	-4.84513E-001	3.89662E-002	3.27092E+001	11	...........	6.49751E-002	-5.44667E-003	6.09658E-001	5.30330E-001	-2.57771E-002	-3.69303E-002	7.07084E-001	-4.38976E-002	-3.17451E-003	2.66109E-004	-2.97862E-002	-2.59105E-002	1.25940E-003	1.80431E-003	-3.45462E-002	2.14472E-003
	47	47	4.99791E-002	-4.86646E-002	0.00000E+000	-2.43221E-003	-4.82590E-001	3.89742E-002	3.26520E+001	11	...........	6.49828E-002	-5.54500E-003	6.09554E-001	5.30492E-001	-2.58003E-002	-3.69371E-002	7.07037E-001	-4.39162E-002	-3.16236E-003	2.69845E-004	-2.96637E-002	-2.58161E-002	1.25556E-003	1.79753E-003	-3.44076E-002	2.13716E-003
	48	48	4.99793E-002	-4.81234E-002	0.00000E+000	-2.40517E-003	-4.77193E-001	3.90026E-002	3.25973E+001	11	...........	6.50335E-002	-5.48639E-003	6.09408E-001	5.30442E-001	-2.57875E-002	-3.69326E-002	7.06998E-001	-4.39561E-002	-3.12963E-003	2.64023E-004	-2.93268E-002	-2.55267E-002	1.24098E-003	1.77732E-003	-3.40231E-002	2.11532E-003
	49	49	4.99715E-002	-4.71121E-002	0.00000E+000	-2.35426E-003	-4.67147E-001	3.90389E-002	3.25307E+001	11	...........	6.51083E-002	-5.48306E-003	6.09228E-001	5.30325E-001	-2.57925E-002	-3.69433E-002	7.06909E-001	-4.39867E-002	-3.06739E-003	2.58318E-004	-2.87020E-002	-2.49847E-002	1.21514E-003	1.74048E-003	-3.33039E-002	2.07230E-003
	50	50	4.99828E-002	-4.63870E-002	0.00000E+000	-2.31855E-003	-4.59931E-001	3.89301E-002	3.17994E+001	11	...........	6.49192E-002	-5.45097E-003	6.09218E-001	5.30419E-001	-2.57831E-002	-3.69233E-002	7.06906E-001	-4.39960E-002	-3.01141E-003	2.52854E-004	-2.82598E-002	-2.46045E-002	1.19600E-003	1.71276E-003	-3.27912E-002	2.04084E-003
	51	51	4.99801E-002	-4.64691E-002	0.00000E+000	-2.32253E-003	-4.60751E-001	3.91897E-002	3.27073E+001	11	...........	6.53522E-002	-5.42903E-003	6.09178E-001	5.30387E-001	-2.57761E-002	-3.69211E-002	7.06999E-001	-4.39803E-002	-3.03686E-003	2.52282E-004	-2.83079E-002	-2.46466E-002	1.19779E-003	1.71569E-003	-3.28536E-002	2.04372E-003
	52	52	4.99764E-002	-4.57969E-002	0.00000E+000	-2.28876E-003	-4.54069E-001	3.91237E-002	3.24726E+001	11	...........	6.52294E-002	-5.39208E-003	6.09226E-001	5.30331E-001	-2.57942E-002	-3.69151E-002	7.07051E-001	-4.38586E-002	-2.98731E-003	2.46941E-004	-2.79007E-002	-2.42875E-002	1.18129E-003	1.69060E-003	-3.23808E-002	2.00859E-003
	53	53	4.99777E-002	-4.54758E-002	0.00000E+000	-2.27277E-003	-4.50860E-001	3.92907E-002	3.29941E+001	11	...........	6.55235E-002	-5.32417E-003	6.09262E-001	5.30314E-001	-2.58036E-002	-3.69133E-002	7.07134E-001	-4.38494E-002	-2.97973E-003	2.42121E-004	-2.77067E-002	-2.41164E-002	1.17344E-003	1.67866E-003	-3.21575E-002	1.99409E-003
	54	54	4.99825E-002	-4.50329E-002	0.00000E+000	-2.25086E-003	-4.46469E-001	3.92443E-002	3.29762E+001	11	...........	6.54374E-002	-5.41764E-003	6.09332E-001	5.30281E-001	-2.57935E-002	-3.69142E-002	7.07077E-001	-4.38914E-002	-2.94683E-003	2.43972E-004	-2.74400E-002	-2.38801E-002	1.16155E-003	1.66235E-003	-3.18417E-002	1.97656E-003
	55	55	4.99756E-002	-4.45394E-002	0.00000E+000	-2.22588E-003	-4.41566E-001	3.92364E-002	3.29179E+001	11	...........	6.54226E-002	-5.30000E-003	6.09338E-001	5.30284E-001	-2.57844E-002	-3.69167E-002	7.07094E-001	-4.39162E-002	-2.91388E-003	2.36059E-004	-2.71395E-002	-2.36185E-002	1.14842E-003	1.64425E-003	-3.14935E-002	1.95600E-003
	56	56	4.99758E-002	-4.41042E-002	0.00000E+000	-2.20414E-003	-4.37237E-001	3.92992E-002	3.27033E+001	11	...........	6.55276E-002	-5.30194E-003	6.09466E-001	5.30440E-001	-2.57836E-002	-3.69583E-002	7.07149E-001	-4.39062E-002	-2.89005E-003	2.33838E-004	-2.68800E-002	-2.33947E-002	1.13717E-003	1.63002E-003	-3.11883E-002	1.93645E-003
	57	57	4.99796E-002	-4.29540E-002	0.00000E+000	-2.14682E-003	-4.25791E-001	3.92301E-002	3.21150E+001	11	...........	6.54249E-002	-5.36708E-003	6.09641E-001	5.30499E-001	-2.57794E-002	-3.69600E-002	7.07006E-001	-4.39235E-002	-2.81026E-003	2.30537E-004	-2.61865E-002	-2.27870E-002	1.10733E-003	1.58758E-003	-3.03687E-002	1.88669E-003
	58	58	4.99810E-002	-4.28895E-002	0.00000E+000	-2.14366E-003	-4.25140E-001	3.94173E-002	3.29906E+001	11	...........	6.57200E-002	-5.57861E-003	6.09643E-001	5.30499E-001	-2.57742E-002	-3.69840E-002	7.07073E-001	-4.38801E-002	-2.81870E-003	2.39264E-004	-2.61473E-002	-2.27528E-002	1.10544E-003	1.58623E-003	-3.03260E-002	1.88200E-003
	59	59	4.99707E-002	-4.27823E-002	0.00000E+000	-2.13786E-003	-4.24078E-001	3.93824E-002	3.22849E+001	11	...........	6.56574E-002	-5.67708E-003	6.09577E-001	5.30573E-001	-2.57837E-002	-3.69885E-002	7.07077E-001	-4.39090E-002	-2.80897E-003	2.42879E-004	-2.60791E-002	-2.26991E-002	1.10309E-003	1.58245E-003	-3.02504E-002	1.87853E-003
	60	60	4.99875E-002	-4.18957E-002	0.00000E+000	-2.09426E-003	-4.15279E-001	3.94195E-002	3.30414E+001	11	...........	6.57150E-002	-5.47236E-003	6.09403E-001	5.30356E-001	-2.57819E-002	-3.69886E-002	7.06958E-001	-4.38592E-002	-2.75318E-003	2.29268E-004	-2.55313E-002	-2.22196E-002	1.08015E-003	1.54966E-003	-2.96185E-002	1.83751E-003
	61	61	4.99784E-002	-4.18701E-002	0.00000E+000	-2.09260E-003	-4.15018E-001	3.94722E-002	3.32493E+001	11	...........	6.58208E-002	-5.56083E-003	6.09287E-001	5.30184E-001	-2.57789E-002	-3.70015E-002	7.07087E-001	-4.38651E-002	-2.75592E-003	2.32832E-004	-2.55109E-002	-2.21988E-002	1.07936E-003	1.54926E-003	-2.96058E-002	1.83664E-003
	62	62	4.99797E-002	-4.14393E-002	0.00000E+000	-2.07112E-003	-4.10740E-001	3.95120E-002	3.32653E+001	11	...........	6.58956E-002	-5.57417E-003	6.09027E-001	5.30147E-001	-2.57599E-002	-3.70189E-002	7.07110E-001	-4.38890E-002	-2.73067E-003	2.30990E-004	-2.52377E-002	-2.19690E-002	1.06747E-003	1.53404E-003	-2.93022E-002	1.81873E-003
	63	63	4.99665E-002	-4.09121E-002	0.00000E+000	-2.04424E-003	-4.05520E-001	3.94854E-002	3.26497E+001	11	...........	6.58303E-002	-5.54583E-003	6.09218E-001	5.30048E-001	-2.57842E-002	-3.70383E-002	7.07094E-001	-4.39000E-002	-2.69326E-003	2.26892E-004	-2.49244E-002	-2.16854E-002	1.05489E-003	1.51532E-003	-2.89287E-002	1.79604E-003
	64	64	4.99923E-002	-4.05535E-002	0.00000E+000	-2.02736E-003	-4.01941E-001	3.95417E-002	3.32285E+001	11	...........	6.59265E-002	-5.47889E-003	6.09394E-001	5.30028E-001	-2.57804E-002	-3.70294E-002	7.07109E-001	-4.39542E-002	-2.67355E-003	2.22188E-004	-2.47131E-002	-2.14945E-002	1.04549E-003	1.50167E-003	-2.86757E-002	1.78249E-003
	65	65	4.99671E-002	-3.99102E-002	0.00000E+000	-1.99420E-003	-3.95535E-001	3.95112E-002	3.27654E+001	11	...........	6.58818E-002	-5.45903E-003	6.09581E-001	5.29917E-001	-2.57665E-002	-3.70139E-002	7.07002E-001	-4.40583E-002	-2.62936E-003	2.17871E-004	-2.43285E-002	-2.11491E-002	1.02835E-003	1.47723E-003	-2.82166E-002	1.75838E-003
	66	66	4.99889E-002	-3.95209E-002	0.00000E+000	-1.97561E-003	-3.91688E-001	3.95809E-002	3.31126E+001	11	...........	6.60154E-002	-5.49764E-003	6.09638E-001	5.29908E-001	-2.57631E-002	-3.70083E-002	7.06939E-001	-4.40231E-002	-2.60899E-003	2.17272E-004	-2.40935E-002	-2.09425E-002	1.01818E-003	1.46260E-003	-2.79389E-002	1.73983E-003
	67	67	4.99785E-002	-3.92404E-002	0.00000E+000	-1.96118E-003	-3.88894E-001	3.95881E-002	3.34088E+001	11	...........	6.60149E-002	-5.50514E-003	6.09514E-001	5.29909E-001	-2.57579E-002	-3.70147E-002	7.06939E-001	-4.39285E-002	-2.59045E-003	2.16024E-004	-2.39176E-002	-2.07938E-002	1.01075E-003	1.45247E-003	-2.77406E-002	1.72377E-003
	68	68	4.99826E-002	-3.88676E-002	0.00000E+000	-1.94270E-003	-3.85184E-001	3.96052E-002	3.31283E+001	11	...........	6.60374E-002	-5.51028E-003	6.09608E-001	5.29738E-001	-2.57587E-002	-3.70057E-002	7.07039E-001	-4.39232E-002	-2.56672E-003	2.14171E-004	-2.36940E-002	-2.05897E-002	1.00118E-003	1.43832E-003	-2.74809E-002	1.70719E-003
	69	69	4.99759E-002	-3.81571E-002	0.00000E+000	-1.90693E-003	-3.78119E-001	3.95577E-002	3.32045E+001	11	...........	6.59636E-002	-5.54708E-003	6.09743E-001	5.29503E-001	-2.57753E-002	-3.70189E-002	7.06999E-001	-4.39393E-002	-2.51698E-003	2.11661E-004	-2.32660E-002	-2.02043E-002	9.83509E-004	1.41253E-003	-2.69770E-002	1.67660E-003
	70	70	4.99823E-002	-3.80900E-002	0.00000E+000	-1.90383E-003	-3.77450E-001	3.97653E-002	3.36917E+001	11	...........	6.63085E-002	-5.48347E-003	6.09885E-001	5.29473E-001	-2.57475E-002	-3.70214E-002	7.07008E-001	-4.40108E-002	-2.52569E-003	2.08865E-004	-2.32305E-002	-2.01676E-002	9.80722E-004	1.41014E-003	-2.69299E-002	1.67637E-003
	71	71	4.99637E-002	-3.71309E-002	0.00000E+000	-1.85520E-003	-3.67904E-001	3.96341E-002	3.25753E+001	11	...........	6.60940E-002	-5.49333E-003	6.09905E-001	5.29553E-001	-2.57278E-002	-3.70253E-002	7.07063E-001	-4.40844E-002	-2.45413E-003	2.03972E-004	-2.26463E-002	-1.96628E-002	9.55295E-004	1.37478E-003	-2.62539E-002	1.63689E-003
	72	72	4.99847E-002	-3.66088E-002	0.00000E+000	-1.82988E-003	-3.62726E-001	3.97735E-002	3.29460E+001	11	...........	6.63312E-002	-5.57986E-003	6.10020E-001	5.29701E-001	-2.57212E-002	-3.70150E-002	7.07015E-001	-4.40385E-002	-2.42831E-003	2.04272E-004	-2.23321E-002	-1.93917E-002	9.41625E-004	1.35508E-003	-2.58830E-002	1.61220E-003
	73	73	4.99823E-002	-3.62634E-002	0.00000E+000	-1.81253E-003	-3.59286E-001	3.96666E-002	3.32545E+001	11	...........	6.61461E-002	-5.48694E-003	6.09915E-001	5.29711E-001	-2.57179E-002	-3.70126E-002	7.06883E-001	-4.38681E-002	-2.39869E-003	1.98975E-004	-2.21176E-002	-1.92091E-002	9.32620E-004	1.34221E-003	-2.56340E-002	1.59081E-003
	74	74	4.99824E-002	-3.62623E-002	0.00000E+000	-1.81248E-003	-3.59273E-001	3.98192E-002	3.34235E+001	11	...........	6.63931E-002	-5.42986E-003	6.09912E-001	5.29883E-001	-2.57506E-002	-3.70125E-002	7.06940E-001	-4.39311E-002	-2.40756E-003	1.96899E-004	-2.21168E-002	-1.92148E-002	9.33774E-004	1.34216E-003	-2.56352E-002	1.59304E-003
	75	75	4.99785E-002	-3.58919E-002	0.00000E+000	-1.79382E-003	-3.55590E-001	3.98237E-002	3.35924E+001	11	...........	6.63975E-002	-5.48819E-003	6.09922E-001	5.29846E-001	-2.57439E-002	-3.69976E-002	7.07160E-001	-4.38722E-002	-2.38313E-003	1.96982E-004	-2.18913E-002	-1.90172E-002	9.23996E-004	1.32791E-003	-2.53813E-002	1.57466E-003
	76	76	4.99804E-002	-3.54911E-002	0.00000E+000	-1.77386E-003	-3.51596E-001	3.98594E-002	3.37360E+001	11	...........	6.64360E-002	-5.49889E-003	6.09792E-001	5.29992E-001	-2.57240E-002	-3.69892E-002	7.07196E-001	-4.38464E-002	-2.35789E-003	1.95162E-004	-2.16422E-002	-1.88100E-002	9.12975E-004	1.31279E-003	-2.50992E-002	1.55616E-003
	77	77	4.99832E-002	-3.51737E-002	0.00000E+000	-1.75809E-003	-3.48432E-001	3.98522E-002	3.33768E+001	11	...........	6.64672E-002	-5.61903E-003	6.09797E-001	5.30118E-001	-2.57254E-002	-3.69821E-002	7.07082E-001	-4.38454E-002	-2.33790E-003	1.97642E-004	-2.14488E-002	-1.86462E-002	9.04859E-004	1.30080E-003	-2.48707E-002	1.54221E-003
	78	78	4.99799E-002	-3.47365E-002	0.00000E+000	-1.73613E-003	-3.44095E-001	3.97895E-002	3.34249E+001	11	...........	6.63392E-002	-5.51042E-003	6.09823E-001	5.30096E-001	-2.57207E-002	-3.69908E-002	7.07044E-001	-4.38182E-002	-2.30439E-003	1.91413E-004	-2.11831E-002	-1.84137E-002	8.93448E-004	1.28493E-003	-2.45603E-002	1.52209E-003
	79	79	4.99739E-002	-3.44399E-002	0.00000E+000	-1.72110E-003	-3.41157E-001	3.99892E-002	3.36813E+001	11	...........	6.66701E-002	-5.51931E-003	6.09830E-001	5.29915E-001	-2.57040E-002	-3.70035E-002	7.07057E-001	-4.38157E-002	-2.29612E-003	1.90085E-004	-2.10025E-002	-1.82503E-002	8.85245E-004	1.27440E-003	-2.43510E-002	1.50901E-003
	80	80	4.99753E-002	-3.36725E-002	0.00000E+000	-1.68279E-003	-3.33517E-001	3.98470E-002	3.25268E+001	11	...........	6.64601E-002	-5.54653E-003	6.09755E-001	5.29909E-001	-2.57056E-002	-3.69822E-002	7.07047E-001	-4.38301E-002	-2.23788E-003	1.86765E-004	-2.05320E-002	-1.78434E-002	8.65570E-004	1.24528E-003	-2.38080E-002	1.47587E-003
	81	81	4.99892E-002	-3.31359E-002	0.00000E+000	-1.65644E-003	-3.28182E-001	3.98953E-002	3.35036E+001	11	...........	6.65425E-002	-5.53667E-003	6.09724E-001	5.29893E-001	-2.57317E-002	-3.69711E-002	7.07220E-001	-4.38924E-002	-2.20495E-003	1.83462E-004	-2.02038E-002	-1.75585E-002	8.52642E-004	1.22507E-003	-2.34344E-002	1.45441E-003
	82	82	4.99804E-002	-3.33769E-002	0.00000E+000	-1.66819E-003	-3.30584E-001	3.99862E-002	3.39329E+001	11	...........	6.66767E-002	-5.57889E-003	6.09967E-001	5.29953E-001	-2.57124E-002	-3.69558E-002	7.07206E-001	-4.39078E-002	-2.22546E-003	1.86206E-004	-2.03588E-002	-1.76882E-002	8.58199E-004	1.23347E-003	-2.36044E-002	1.46550E-003
	83	83	4.99783E-002	-3.29371E-002	0.00000E+000	-1.64614E-003	-3.26203E-001	3.99804E-002	3.40241E+001	11	...........	6.66687E-002	-5.60125E-003	6.10071E-001	5.30180E-001	-2.57231E-002	-3.69707E-002	7.07185E-001	-4.39321E-002	-2.19588E-003	1.84489E-004	-2.00940E-002	-1.74626E-002	8.47243E-004	1.21771E-003	-2.32926E-002	1.44700E-003
	84	84	4.99802E-002	-3.26058E-002	0.00000E+000	-1.62964E-003	-3.22895E-001	4.00076E-002	3.40608E+001	11	...........	6.67081E-002	-5.48514E-003	6.10087E-001	5.30217E-001	-2.57393E-002	-3.69872E-002	7.07019E-001	-4.39764E-002	-2.17507E-003	1.78847E-004	-1.98923E-002	-1.72881E-002	8.39249E-004	1.20600E-003	-2.30529E-002	1.43388E-003
	85	85	4.99793E-002	-3.22561E-002	0.00000E+000	-1.61214E-003	-3.19427E-001	4.00367E-002	3.42101E+001	11	...........	6.67508E-002	-5.41361E-003	6.10066E-001	5.30145E-001	-2.57485E-002	-3.69633E-002	7.07044E-001	-4.40357E-002	-2.15312E-003	1.74622E-004	-1.96783E-002	-1.71004E-002	8.30545E-004	1.19229E-003	-2.28065E-002	1.42042E-003
	86	86	4.99793E-002	-3.19113E-002	0.00000E+000	-1.59490E-003	-3.16012E-001	4.00673E-002	3.42066E+001	11	...........	6.67971E-002	-5.51153E-003	6.09989E-001	5.30096E-001	-2.57562E-002	-3.69740E-002	7.07046E-001	-4.39836E-002	-2.13158E-003	1.75880E-004	-1.94655E-002	-1.69161E-002	8.21915E-004	1.17989E-003	-2.25628E-002	1.40357E-003
	87	87	4.99700E-002	-3.11112E-002	0.00000E+000	-1.55463E-003	-3.08057E-001	3.99891E-002	3.27453E+001	11	...........	6.66853E-002	-5.43597E-003	6.09959E-001	5.30127E-001	-2.57585E-002	-3.70069E-002	7.06987E-001	-4.38703E-002	-2.07466E-003	1.69120E-004	-1.89766E-002	-1.64929E-002	8.01377E-004	1.15133E-003	-2.19952E-002	1.36486E-003
	88	88	4.99898E-002	-3.07781E-002	0.00000E+000	-1.53859E-003	-3.04757E-001	4.01371E-002	3.40529E+001	11	...........	6.69428E-002	-5.40056E-003	6.10009E-001	5.30301E-001	-2.57631E-002	-3.70135E-002	7.07039E-001	-4.38815E-002	-2.06037E-003	1.66219E-004	-1.87749E-002	-1.63216E-002	7.92937E-004	1.13920E-003	-2.17613E-002	1.35059E-003
	89	89	4.99805E-002	-3.06310E-002	0.00000E+000	-1.53095E-003	-3.03306E-001	4.00972E-002	3.40041E+001	11	...........	6.68522E-002	-5.49292E-003	6.09910E-001	5.30359E-001	-2.57647E-002	-3.70087E-002	7.06965E-001	-4.39621E-002	-2.04775E-003	1.68254E-004	-1.86821E-002	-1.62454E-002	7.89199E-004	1.13362E-003	-2.16550E-002	1.34660E-003
	90	90	4.99792E-002	-3.02407E-002	0.00000E+000	-1.51141E-003	-2.99416E-001	4.00522E-002	3.42659E+001	11	...........	6.68055E-002	-5.48750E-003	6.09910E-001	5.30224E-001	-2.57636E-002	-3.70119E-002	7.06989E-001	-4.39092E-002	-2.02024E-003	1.65946E-004	-1.84441E-002	-1.60343E-002	7.79109E-004	1.11927E-003	-2.13798E-002	1.32784E-003
	91	91	4.99793E-002	-2.99913E-002	0.00000E+000	-1.49894E-003	-2.96928E-001	4.01333E-002	3.42703E+001	11	...........	6.69289E-002	-5.43611E-003	6.09834E-001	5.30242E-001	-2.57404E-002	-3.70139E-002	7.07065E-001	-4.38790E-002	-2.00728E-003	1.63036E-004	-1.82897E-002	-1.59026E-002	7.71988E-004	1.11009E-003	-2.12058E-002	1.31599E-003
	92	92	4.99776E-002	-2.94334E-002	0.00000E+000	-1.47101E-003	-2.91387E-001	4.02143E-002	3.44294E+001	11	...........	6.70694E-002	-5.52625E-003	6.09731E-001	5.30180E-001	-2.57489E-002	-3.70306E-002	7.06874E-001	-4.39783E-002	-1.97408E-003	1.62657E-004	-1.79465E-002	-1.56050E-002	7.57878E-004	1.08994E-003	-2.08057E-002	1.29443E-003
	93	93	4.99686E-002	-2.87043E-002	0.00000E+000	-1.43431E-003	-2.84146E-001	4.00097E-002	3.25819E+001	11	...........	6.67031E-002	-5.53792E-003	6.09696E-001	5.30283E-001	-2.57282E-002	-3.70369E-002	7.06832E-001	-4.38899E-002	-1.91466E-003	1.58962E-004	-1.75009E-002	-1.52214E-002	7.38509E-004	1.06312E-003	-2.02891E-002	1.25983E-003
	94	94	4.99963E-002	-2.87761E-002	0.00000E+000	-1.43870E-003	-2.84862E-001	4.03627E-002	3.42682E+001	11	...........	6.72982E-002	-5.56639E-003	6.09709E-001	5.30435E-001	-2.57187E-002	-3.70403E-002	7.06945E-001	-4.38693E-002	-1.93658E-003	1.60179E-004	-1.75450E-002	-1.52639E-002	7.40085E-004	1.06587E-003	-2.03431E-002	1.26239E-003
	95	95	4.99788E-002	-2.86428E-002	0.00000E+000	-1.43153E-003	-2.83536E-001	4.02056E-002	3.46065E+001	11	...........	6.70443E-002	-5.54097E-003	6.09543E-001	5.30449E-001	-2.57346E-002	-3.70439E-002	7.06918E-001	-4.39179E-002	-1.92034E-003	1.58709E-004	-1.74590E-002	-1.51935E-002	7.37110E-004	1.06104E-003	-2.02481E-002	1.25793E-003
	96	96	4.99800E-002	-2.82643E-002	0.00000E+000	-1.41265E-003	-2.79777E-001	4.02489E-002	3.44730E+001	11	...........	6.71147E-002	-5.55958E-003	6.09539E-001	5.30417E-001	-2.57425E-002	-3.70121E-002	7.06891E-001	-4.38478E-002	-1.89695E-003	1.57138E-004	-1.72282E-002	-1.49919E-002	7.27593E-004	1.04612E-003	-1.99798E-002	1.23933E-003
	97	97	4.99801E-002	-2.79888E-002	0.00000E+000	-1.39888E-003	-2.77029E-001	4.02793E-002	3.43193E+001	11	...........	6.71587E-002	-5.46014E-003	6.09646E-001	5.30365E-001	-2.57290E-002	-3.70394E-002	7.06943E-001	-4.38897E-002	-1.87969E-003	1.52822E-004	-1.70632E-002	-1.48443E-002	7.20123E-004	1.03669E-003	-1.97865E-002	1.22842E-003
	98	98	4.99814E-002	-2.77059E-002	0.00000E+000	-1.38478E-003	-2.74213E-001	4.02962E-002	3.45882E+001	11	...........	6.71964E-002	-5.50528E-003	6.09857E-001	5.30362E-001	-2.57286E-002	-3.70468E-002	7.06916E-001	-4.38971E-002	-1.86174E-003	1.52529E-004	-1.68966E-002	-1.46942E-002	7.12834E-004	1.02642E-003	-1.95858E-002	1.21621E-003
	99	99	4.99796E-002	-2.74156E-002	0.00000E+000	-1.37022E-003	-2.71317E-001	4.03267E-002	3.35201E+001	11	...........	6.72411E-002	-5.59167E-003	6.09863E-001	5.30492E-001	-2.57517E-002	-3.70707E-002	7.06840E-001	-4.39468E-002	-1.84346E-003	1.53299E-004	-1.67198E-002	-1.45438E-002	7.05998E-004	1.01632E-003	-1.93784E-002	1.20483E-003
	100	100	4.99798E-002	-2.64346E-002	0.00000E+000	-1.32120E-003	-2.61579E-001	4.01763E-002	3.40114E+001	11	...........	6.69908E-002	-5.60028E-003	6.09816E-001	5.30553E-001	-2.57229E-002	-3.70800E-002	7.06859E-001	-4.39578E-002	-1.77088E-003	1.48041E-004	-1.61203E-002	-1.40250E-002	6.79975E-004	9.80195E-004	-1.86855E-002	1.16201E-003
	101	101	4.99789E-002	-2.65720E-002	0.00000E+000	-1.32804E-003	-2.62943E-001	4.04688E-002	3.45365E+001	11	...........	6.74808E-002	-5.70292E-003	6.10017E-001	5.30494E-001	-2.57322E-002	-3.70596E-002	7.06876E-001	-4.39222E-002	-1.79310E-003	1.51538E-004	-1.62093E-002	-1.40963E-002	6.83756E-004	9.84746E-004	-1.87831E-002	1.16710E-003
	102	102	4.99815E-002	-2.61750E-002	0.00000E+000	-1.30827E-003	-2.58989E-001	4.02477E-002	3.40357E+001	11	...........	6.71161E-002	-5.75611E-003	6.09911E-001	5.30604E-001	-2.57483E-002	-3.70346E-002	7.06861E-001	-4.39122E-002	-1.75677E-003	1.50666E-004	-1.59644E-002	-1.38886E-002	6.73963E-004	9.69381E-004	-1.85021E-002	1.14940E-003
	103	103	4.99818E-002	-2.59649E-002	0.00000E+000	-1.29778E-003	-2.56900E-001	4.03977E-002	3.46537E+001	11	...........	6.73808E-002	-5.65417E-003	6.09854E-001	5.30660E-001	-2.57285E-002	-3.70000E-002	7.06873E-001	-4.38981E-002	-1.74954E-003	1.46810E-004	-1.58348E-002	-1.37785E-002	6.68038E-004	9.60703E-004	-1.83539E-002	1.13981E-003
	104	104	4.99777E-002	-2.57568E-002	0.00000E+000	-1.28726E-003	-2.54833E-001	4.04137E-002	3.43954E+001	11	...........	6.74107E-002	-5.64764E-003	6.09827E-001	5.30497E-001	-2.57358E-002	-3.69885E-002	7.07045E-001	-4.39567E-002	-1.73628E-003	1.45465E-004	-1.57072E-002	-1.36639E-002	6.62872E-004	9.52704E-004	-1.82112E-002	1.13218E-003
	105	105	4.99821E-002	-2.54753E-002	0.00000E+000	-1.27331E-003	-2.52030E-001	4.04122E-002	3.47289E+001	11	...........	6.73929E-002	-5.55944E-003	6.09832E-001	5.30464E-001	-2.57586E-002	-3.69546E-002	7.07057E-001	-4.39283E-002	-1.71686E-003	1.41629E-004	-1.55357E-002	-1.35138E-002	6.56209E-004	9.41431E-004	-1.80125E-002	1.11909E-003
	106	106	4.99766E-002	-2.50251E-002	0.00000E+000	-1.25067E-003	-2.47543E-001	4.04482E-002	3.37899E+001	11	...........	6.74451E-002	-5.57597E-003	6.09706E-001	5.30435E-001	-2.57481E-002	-3.69497E-002	7.07020E-001	-4.39293E-002	-1.68782E-003	1.39539E-004	-1.52579E-002	-1.32742E-002	6.44347E-004	9.24669E-004	-1.76932E-002	1.09933E-003
	107	107	4.99841E-002	-2.43635E-002	0.00000E+000	-1.21779E-003	-2.40981E-001	4.02806E-002	3.35984E+001	11	...........	6.71579E-002	-5.52319E-003	6.09647E-001	5.30284E-001	-2.57593E-002	-3.69732E-002	7.07006E-001	-4.38892E-002	-1.63620E-003	1.34564E-004	-1.48531E-002	-1.29196E-002	6.27587E-004	9.00796E-004	-1.72251E-002	1.06929E-003
	108	108	4.99846E-002	-2.44452E-002	0.00000E+000	-1.22188E-003	-2.41779E-001	4.04922E-002	3.47524E+001	11	...........	6.75168E-002	-5.48139E-003	6.09791E-001	5.30246E-001	-2.57636E-002	-3.69921E-002	7.06972E-001	-4.38583E-002	-1.65046E-003	1.33994E-004	-1.49065E-002	-1.29620E-002	6.29798E-004	9.04280E-004	-1.72821E-002	1.07213E-003
	109	109	4.99795E-002	-2.42967E-002	0.00000E+000	-1.21434E-003	-2.40321E-001	4.05012E-002	3.48626E+001	11	...........	6.75279E-002	-5.44361E-003	6.09700E-001	5.30443E-001	-2.57717E-002	-3.70044E-002	7.07088E-001	-4.39083E-002	-1.64070E-003	1.32262E-004	-1.48137E-002	-1.28880E-002	6.26166E-004	8.99085E-004	-1.71799E-002	1.06683E-003
	110	110	4.99810E-002	-2.39962E-002	0.00000E+000	-1.19935E-003	-2.37327E-001	4.04883E-002	3.47915E+001	11	...........	6.75190E-002	-5.59472E-003	6.09417E-001	5.30585E-001	-2.57915E-002	-3.70025E-002	7.06946E-001	-4.39156E-002	-1.62020E-003	1.34252E-004	-1.46237E-002	-1.27320E-002	6.18899E-004	8.87920E-004	-1.69640E-002	1.05381E-003
	111	111	4.99812E-002	-2.37286E-002	0.00000E+000	-1.18598E-003	-2.34662E-001	4.04723E-002	3.49479E+001	11	...........	6.75056E-002	-5.57139E-003	6.09435E-001	5.30572E-001	-2.57840E-002	-3.70100E-002	7.06932E-001	-4.38578E-002	-1.60181E-003	1.32201E-004	-1.44610E-002	-1.25897E-002	6.11819E-004	8.78196E-004	-1.67745E-002	1.04068E-003
	112	112	4.99805E-002	-2.33439E-002	0.00000E+000	-1.16674E-003	-2.30839E-001	4.04112E-002	3.46985E+001	11	...........	6.73896E-002	-5.70125E-003	6.09361E-001	5.30746E-001	-2.57610E-002	-3.70008E-002	7.06884E-001	-4.38864E-002	-1.57314E-003	1.33089E-004	-1.42249E-002	-1.23897E-002	6.01361E-004	8.63744E-004	-1.65014E-002	1.02448E-003
	113	113	4.99792E-002	-2.31251E-002	0.00000E+000	-1.15577E-003	-2.28669E-001	4.05343E-002	3.48077E+001	11	...........	6.75793E-002	-5.67111E-003	6.09370E-001	5.30834E-001	-2.57656E-002	-3.70037E-002	7.06945E-001	-4.38208E-002	-1.56278E-003	1.31145E-004	-1.40917E-002	-1.22756E-002	5.95831E-004	8.55715E-004	-1.63482E-002	1.01336E-003
	114	114	4.99791E-002	-2.27664E-002	0.00000E+000	-1.13784E-003	-2.25091E-001	4.05122E-002	3.41243E+001	11	...........	6.75678E-002	-5.50931E-003	6.09336E-001	5.30742E-001	-2.57728E-002	-3.69967E-002	7.06952E-001	-4.39974E-002	-1.53827E-003	1.25427E-004	-1.38724E-002	-1.20831E-002	5.86753E-004	8.42280E-004	-1.60947E-002	1.00166E-003
	115	115	4.99845E-002	-2.23459E-002	0.00000E+000	-1.11695E-003	-2.20905E-001	4.03857E-002	3.47594E+001	11	...........	6.74493E-002	-5.49167E-003	6.09311E-001	5.30634E-001	-2.57699E-002	-3.69862E-002	7.06917E-001	-4.39346E-002	-1.50721E-003	1.22716E-004	-1.36156E-002	-1.18575E-002	5.75850E-004	8.26491E-004	-1.57967E-002	9.81757E-004
	116	116	4.99817E-002	-2.23637E-002	0.00000E+000	-1.11778E-003	-2.21077E-001	4.05298E-002	3.52297E+001	11	...........	6.75958E-002	-5.56069E-003	6.09525E-001	5.30625E-001	-2.57379E-002	-3.69790E-002	7.06939E-001	-4.39240E-002	-1.51169E-003	1.24358E-004	-1.36312E-002	-1.18667E-002	5.75595E-004	8.26988E-004	-1.58098E-002	9.82304E-004
	117	117	4.99819E-002	-2.21633E-002	0.00000E+000	-1.10776E-003	-2.19075E-001	4.05257E-002	3.51130E+001	11	...........	6.75782E-002	-5.54375E-003	6.09510E-001	5.30493E-001	-2.57279E-002	-3.69767E-002	7.06961E-001	-4.38812E-002	-1.49775E-003	1.22868E-004	-1.35087E-002	-1.17575E-002	5.70215E-004	8.19524E-004	-1.56686E-002	9.72552E-004
	118	118	4.99789E-002	-2.18799E-002	0.00000E+000	-1.09353E-003	-2.16272E-001	4.05292E-002	3.48413E+001	11	...........	6.75790E-002	-5.48569E-003	6.09498E-001	5.30438E-001	-2.57582E-002	-3.69976E-002	7.06955E-001	-4.39932E-002	-1.47862E-003	1.20027E-004	-1.33358E-002	-1.16059E-002	5.63587E-004	8.09506E-004	-1.54681E-002	9.62568E-004
	119	119	4.99811E-002	-2.13674E-002	0.00000E+000	-1.06796E-003	-2.11182E-001	4.05475E-002	3.49989E+001	11	...........	6.76190E-002	-5.42931E-003	6.09545E-001	5.30297E-001	-2.57561E-002	-3.70001E-002	7.07045E-001	-4.39617E-002	-1.44484E-003	1.16010E-004	-1.30244E-002	-1.13311E-002	5.50340E-004	7.90596E-004	-1.51077E-002	9.39345E-004
	120	120	4.99810E-002	-2.11244E-002	0.00000E+000	-1.05582E-003	-2.08762E-001	4.04744E-002	3.47557E+001	11	...........	6.74962E-002	-5.43056E-003	6.09536E-001	5.30452E-001	-2.57557E-002	-3.69978E-002	7.06969E-001	-4.39649E-002	-1.42582E-003	1.14717E-004	-1.28761E-002	-1.12055E-002	5.44075E-004	7.81557E-004	-1.49343E-002	9.28733E-004
	121	121	4.99813E-002	-2.10379E-002	0.00000E+000	-1.05150E-003	-2.07907E-001	4.06331E-002	3.49081E+001	11	...........	6.77632E-002	-5.39833E-003	6.09582E-001	5.30464E-001	-2.57581E-002	-3.69769E-002	7.06931E-001	-4.39175E-002	-1.42559E-003	1.13569E-004	-1.28243E-002	-1.11598E-002	5.41895E-004	7.77916E-004	-1.48723E-002	9.23931E-004
	122	122	4.99838E-002	-2.08576E-002	0.00000E+000	-1.04254E-003	-2.06108E-001	4.06408E-002	3.54141E+001	11	...........	6.77771E-002	-5.41153E-003	6.09878E-001	5.30532E-001	-2.57547E-002	-3.69576E-002	7.07098E-001	-4.38726E-002	-1.41367E-003	1.12871E-004	-1.27206E-002	-1.10656E-002	5.37182E-004	7.70848E-004	-1.47484E-002	9.15078E-004
	123	123	4.99747E-002	-2.03706E-002	0.00000E+000	-1.01801E-003	-2.01277E-001	4.05308E-002	3.40518E+001	11	...........	6.75961E-002	-5.36097E-003	6.09689E-001	5.30527E-001	-2.57624E-002	-3.69731E-002	7.07019E-001	-4.39121E-002	-1.37697E-003	1.09206E-004	-1.24197E-002	-1.08071E-002	5.24794E-004	7.53163E-004	-1.44024E-002	8.94515E-004
	124	124	4.99863E-002	-2.02862E-002	0.00000E+000	-1.01403E-003	-2.00446E-001	4.07088E-002	3.53126E+001	11	...........	6.78882E-002	-5.41625E-003	6.09540E-001	5.30449E-001	-2.57617E-002	-3.69944E-002	7.07042E-001	-4.37833E-002	-1.37719E-003	1.09875E-004	-1.23652E-002	-1.07608E-002	5.22606E-004	7.50476E-004	-1.43432E-002	8.88197E-004
	125	125	4.99771E-002	-1.99688E-002	0.00000E+000	-9.97982E-004	-1.97278E-001	4.05893E-002	3.48303E+001	11	...........	6.76843E-002	-5.49694E-003	6.09549E-001	5.30321E-001	-2.57774E-002	-3.69964E-002	7.07036E-001	-4.37689E-002	-1.35157E-003	1.09767E-004	-1.21719E-002	-1.05899E-002	5.14742E-004	7.38773E-004	-1.41186E-002	8.74011E-004
	126	126	4.99861E-002	-1.97277E-002	0.00000E+000	-9.86109E-004	-1.94875E-001	4.06146E-002	3.51218E+001	11	...........	6.77344E-002	-5.43569E-003	6.09498E-001	5.30259E-001	-2.57682E-002	-3.70008E-002	7.07095E-001	-4.38794E-002	-1.33624E-003	1.07234E-004	-1.20240E-002	-1.04608E-002	5.08346E-004	7.29940E-004	-1.39493E-002	8.65639E-004
	127	127	4.99834E-002	-1.96704E-002	0.00000E+000	-9.83195E-004	-1.94304E-001	4.06678E-002	3.54790E+001	11	...........	6.78304E-002	-5.44014E-003	6.09637E-001	5.30141E-001	-2.57796E-002	-3.69887E-002	7.07036E-001	-4.38958E-002	-1.33425E-003	1.07010E-004	-1.19918E-002	-1.04281E-002	5.07095E-004	7.27584E-004	-1.39077E-002	8.63449E-004
	128	128	4.99789E-002	-1.94342E-002	0.00000E+000	-9.71299E-004	-1.91944E-001	4.06756E-002	3.54864E+001	11	...........	6.78312E-002	-5.41931E-003	6.09726E-001	5.30129E-001	-2.57674E-002	-3.69904E-002	7.06996E-001	-4.39203E-002	-1.31824E-003	1.05320E-004	-1.18495E-002	-1.03026E-002	5.00767E-004	7.18878E-004	-1.37399E-002	8.53554E-004
	129	129	4.99819E-002	-1.90119E-002	0.00000E+000	-9.50252E-004	-1.87777E-001	4.06876E-002	3.49364E+001	11	...........	6.78524E-002	-5.44056E-003	6.09684E-001	5.30106E-001	-2.57597E-002	-3.69785E-002	7.07022E-001	-4.39121E-002	-1.29000E-003	1.03435E-004	-1.15913E-002	-1.00783E-002	4.89742E-004	7.03032E-004	-1.34418E-002	8.34853E-004
	130	130	4.99794E-002	-1.85843E-002	0.00000E+000	-9.28832E-004	-1.83523E-001	4.05077E-002	3.42625E+001	11	...........	6.75650E-002	-5.48653E-003	6.09577E-001	5.30020E-001	-2.57437E-002	-3.69746E-002	7.06955E-001	-4.38718E-002	-1.25565E-003	1.01963E-004	-1.13286E-002	-9.85004E-003	4.78429E-004	6.87146E-004	-1.31383E-002	8.15326E-004
	131	131	4.99838E-002	-1.86361E-002	0.00000E+000	-9.31503E-004	-1.84037E-001	4.08486E-002	3.53915E+001	11	...........	6.81083E-002	-5.56903E-003	6.09544E-001	5.29991E-001	-2.57510E-002	-3.69442E-002	7.07004E-001	-4.39200E-002	-1.26927E-003	1.03785E-004	-1.13595E-002	-9.87696E-003	4.79897E-004	6.88494E-004	-1.31758E-002	8.18496E-004
	132	132	4.99809E-002	-1.84989E-002	0.00000E+000	-9.24593E-004	-1.82668E-001	4.06927E-002	3.56520E+001	11	...........	6.78629E-002	-5.51097E-003	6.09410E-001	5.30006E-001	-2.57726E-002	-3.69190E-002	7.07062E-001	-4.39821E-002	-1.25539E-003	1.01947E-004	-1.12734E-002	-9.80454E-003	4.76766E-004	6.82962E-004	-1.30799E-002	8.13621E-004
	133	133	4.99816E-002	-1.82042E-002	0.00000E+000	-9.09872E-004	-1.79744E-001	4.06988E-002	3.54426E+001	11	...........	6.78687E-002	-5.42931E-003	6.09278E-001	5.30007E-001	-2.57672E-002	-3.69057E-002	7.07037E-001	-4.39460E-002	-1.23549E-003	9.88359E-005	-1.10914E-002	-9.64832E-003	4.69070E-004	6.71837E-004	-1.28710E-002	7.99999E-004
	134	134	4.99753E-002	-1.78024E-002	0.00000E+000	-8.89682E-004	-1.75749E-001	4.06505E-002	3.42379E+001	11	...........	6.77849E-002	-5.38486E-003	6.09295E-001	5.29988E-001	-2.57599E-002	-3.69387E-002	7.07087E-001	-4.39121E-002	-1.20674E-003	9.58636E-005	-1.08469E-002	-9.43508E-003	4.58588E-004	6.57600E-004	-1.25879E-002	7.81742E-004
	135	135	4.99891E-002	-1.76738E-002	0.00000E+000	-8.83496E-004	-1.74465E-001	4.07337E-002	3.52989E+001	11	...........	6.79254E-002	-5.52444E-003	6.09165E-001	5.29918E-001	-2.57751E-002	-3.69461E-002	7.07152E-001	-4.38510E-002	-1.20050E-003	9.76379E-005	-1.07663E-002	-9.36567E-003	4.55545E-004	6.52978E-004	-1.24981E-002	7.75013E-004
	136	136	4.99814E-002	-1.76316E-002	0.00000E+000	-8.81250E-004	-1.74043E-001	4.07318E-002	3.57965E+001	11	...........	6.79121E-002	-5.56278E-003	6.09386E-001	5.29609E-001	-2.57790E-002	-3.69467E-002	7.07223E-001	-4.38515E-002	-1.19740E-003	9.80805E-005	-1.07444E-002	-9.33784E-003	4.54525E-004	6.51427E-004	-1.24694E-002	7.73171E-004
	137	137	4.99804E-002	-1.73882E-002	0.00000E+000	-8.69071E-004	-1.71615E-001	4.07592E-002	3.48037E+001	11	...........	6.79750E-002	-5.52889E-003	6.09493E-001	5.29647E-001	-2.58121E-002	-3.69556E-002	7.07201E-001	-4.38503E-002	-1.18196E-003	9.61376E-005	-1.05980E-002	-9.20962E-003	4.48826E-004	6.42592E-004	-1.22970E-002	7.62479E-004
	138	138	4.99839E-002	-1.70710E-002	0.00000E+000	-8.53275E-004	-1.68451E-001	4.07228E-002	3.55536E+001	11	...........	6.79303E-002	-5.45500E-003	6.09608E-001	5.29687E-001	-2.58144E-002	-3.69436E-002	7.07260E-001	-4.38150E-002	-1.15964E-003	9.31224E-005	-1.04066E-002	-9.04229E-003	4.40679E-004	6.30665E-004	-1.20736E-002	7.47966E-004
	139	139	4.99809E-002	-1.69780E-002	0.00000E+000	-8.48575E-004	-1.67526E-001	4.07818E-002	3.57376E+001	11	...........	6.80129E-002	-5.53653E-003	6.09796E-001	5.29819E-001	-2.58174E-002	-3.69528E-002	7.07399E-001	-4.39497E-002	-1.15472E-003	9.39990E-005	-1.03531E-002	-8.99525E-003	4.38327E-004	6.27383E-004	-1.20102E-002	7.46177E-004
	140	140	4.99815E-002	-1.66053E-002	0.00000E+000	-8.29959E-004	-1.63843E-001	4.07951E-002	3.44995E+001	11	...........	6.80118E-002	-5.53444E-003	6.09849E-001	5.29898E-001	-2.58237E-002	-3.69589E-002	7.07375E-001	-4.39876E-002	-1.12936E-003	9.19014E-005	-1.01267E-002	-8.79914E-003	4.28812E-004	6.13715E-004	-1.17462E-002	7.30430E-004
	141	141	4.99812E-002	-1.61980E-002	0.00000E+000	-8.09593E-004	-1.59789E-001	4.06390E-002	3.47506E+001	11	...........	6.77686E-002	-5.45181E-003	6.09896E-001	5.29858E-001	-2.58292E-002	-3.69690E-002	7.07341E-001	-4.38635E-002	-1.09771E-003	8.83081E-005	-9.87907E-003	-8.58262E-003	4.18380E-004	5.98823E-004	-1.14575E-002	7.10499E-004
	142	142	4.99838E-002	-1.63355E-002	0.00000E+000	-8.16510E-004	-1.61163E-001	4.09252E-002	3.56959E+001	11	...........	6.82636E-002	-5.32292E-003	6.10037E-001	5.29935E-001	-2.58219E-002	-3.69922E-002	7.07286E-001	-4.38793E-002	-1.11512E-003	8.69524E-005	-9.96525E-003	-8.65675E-003	4.21814E-004	6.04286E-004	-1.15539E-002	7.16790E-004
	143	143	4.99812E-002	-1.61421E-002	0.00000E+000	-8.06800E-004	-1.59234E-001	4.08378E-002	3.48653E+001	11	...........	6.81076E-002	-5.34431E-003	6.10095E-001	5.29958E-001	-2.58469E-002	-3.70032E-002	7.07238E-001	-4.39250E-002	-1.09940E-003	8.62681E-005	-9.84820E-003	-8.55462E-003	4.17223E-004	5.97308E-004	-1.14163E-002	7.09040E-004
	144	144	4.99802E-002	-1.57853E-002	0.00000E+000	-7.88954E-004	-1.55682E-001	4.06778E-002	3.51719E+001	11	...........	6.78489E-002	-5.26931E-003	6.10036E-001	5.29968E-001	-2.58553E-002	-3.70274E-002	7.07417E-001	-4.39122E-002	-1.07102E-003	8.31777E-005	-9.62962E-003	-8.36571E-003	4.08134E-004	5.84489E-004	-1.11668E-002	6.93169E-004
	145	145	4.99842E-002	-1.57553E-002	0.00000E+000	-7.87515E-004	-1.55376E-001	4.09299E-002	3.57624E+001	11	...........	6.82565E-002	-5.34028E-003	6.10185E-001	5.30062E-001	-2.58371E-002	-3.70375E-002	7.07420E-001	-4.39321E-002	-1.07540E-003	8.41376E-005	-9.61364E-003	-8.35128E-003	4.07071E-004	5.83537E-004	-1.11456E-002	6.92163E-004
	146	146	4.99809E-002	-1.55339E-002	0.00000E+000	-7.76397E-004	-1.53182E-001	4.08531E-002	3.53557E+001	11	...........	6.81147E-002	-5.31500E-003	6.10083E-001	5.30059E-001	-2.57965E-002	-3.70328E-002	7.07444E-001	-4.40169E-002	-1.05809E-003	8.25625E-005	-9.47694E-003	-8.23387E-003	4.00720E-004	5.75262E-004	-1.09893E-002	6.83753E-004
	147	147	4.99830E-002	-1.52934E-002	0.00000E+000	-7.64407E-004	-1.50786E-001	4.07919E-002	3.52712E+001	11	...........	6.80068E-002	-5.42694E-003	6.09936E-001	5.30052E-001	-2.57871E-002	-3.70389E-002	7.07226E-001	-4.40587E-002	-1.04005E-003	8.29962E-005	-9.32796E-003	-8.10626E-003	3.94371E-004	5.66449E-004	-1.08159E-002	6.73806E-004
	148	148	4.99832E-002	-1.52366E-002	0.00000E+000	-7.61574E-004	-1.50222E-001	4.08672E-002	3.58106E+001	11	...........	6.81350E-002	-5.37639E-003	6.09874E-001	5.30000E-001	-2.58058E-002	-3.70425E-002	7.07266E-001	-4.39249E-002	-1.03814E-003	8.19178E-005	-9.29239E-003	-8.07539E-003	3.93193E-004	5.64401E-004	-1.07763E-002	6.69265E-004
	149	149	4.99817E-002	-1.50870E-002	0.00000E+000	-7.54075E-004	-1.48732E-001	4.08519E-002	3.58628E+001	11	...........	6.81371E-002	-5.33083E-003	6.09778E-001	5.30019E-001	-2.58133E-002	-3.70433E-002	7.07203E-001	-4.39558E-002	-1.02799E-003	8.04264E-005	-9.19974E-003	-7.99641E-003	3.89447E-004	5.58874E-004	-1.06696E-002	6.63163E-004
	150	150	4.99809E-002	-1.48644E-002	0.00000E+000	-7.42935E-004	-1.46511E-001	4.08888E-002	3.58767E+001	11	...........	6.81821E-002	-5.44264E-003	6.09933E-001	5.29982E-001	-2.58221E-002	-3.70346E-002	7.07188E-001	-4.38508E-002	-1.01348E-003	8.09013E-005	-9.06626E-003	-7.87785E-003	3.83829E-004	5.50495E-004	-1.05119E-002	6.51814E-004
	151	151	4.99761E-002	-1.45922E-002	0.00000E+000	-7.29263E-004	-1.43795E-001	4.09139E-002	3.43466E+001	11	...........	6.82254E-002	-5.38819E-003	6.09948E-001	5.29828E-001	-2.58037E-002	-3.70331E-002	7.07204E-001	-4.38596E-002	-9.95561E-004	7.86258E-005	-8.90051E-003	-7.73137E-003	3.76534E-004	5.40395E-004	-1.03197E-002	6.40009E-004
	152	152	4.99881E-002	-1.42435E-002	0.00000E+000	-7.12007E-004	-1.40336E-001	4.07747E-002	3.50725E+001	11	...........	6.79956E-002	-5.47153E-003	6.09930E-001	5.29755E-001	-2.57831E-002	-3.70204E-002	7.07093E-001	-4.38993E-002	-9.68497E-004	7.79339E-005	-8.68755E-003	-7.54558E-003	3.67242E-004	5.27302E-004	-1.00715E-002	6.25281E-004
	153	153	4.99838E-002	-1.43141E-002	0.00000E+000	-7.15476E-004	-1.41027E-001	4.09322E-002	3.57674E+001	11	...........	6.82526E-002	-5.42819E-003	6.09986E-001	5.29649E-001	-2.57651E-002	-3.69931E-002	7.07163E-001	-4.39040E-002	-9.76978E-004	7.76999E-005	-8.73143E-003	-7.58147E-003	3.68806E-004	5.29524E-004	-1.01224E-002	6.28449E-004
	154	154	4.99818E-002	-1.41945E-002	0.00000E+000	-7.09467E-004	-1.39847E-001	4.09082E-002	3.58537E+001	11	...........	6.82074E-002	-5.46861E-003	6.10065E-001	5.29640E-001	-2.57447E-002	-3.70050E-002	7.07073E-001	-4.39704E-002	-9.68170E-004	7.76243E-005	-8.65957E-003	-7.51798E-003	3.65434E-004	5.25268E-004	-1.00366E-002	6.24139E-004
	155	155	4.99821E-002	-1.40070E-002	0.00000E+000	-7.00099E-004	-1.38002E-001	4.09021E-002	3.56578E+001	11	...........	6.81886E-002	-5.52903E-003	6.10121E-001	5.29628E-001	-2.57611E-002	-3.70375E-002	7.06990E-001	-4.39806E-002	-9.55117E-004	7.74450E-005	-8.54596E-003	-7.41849E-003	3.60836E-004	5.18784E-004	-9.90281E-003	6.16035E-004
	156	156	4.99797E-002	-1.36806E-002	0.00000E+000	-6.83751E-004	-1.34756E-001	4.08506E-002	3.48835E+001	11	...........	6.81253E-002	-5.60472E-003	6.10112E-001	5.29538E-001	-2.57707E-002	-3.70468E-002	7.07068E-001	-4.39801E-002	-9.31992E-004	7.66758E-005	-8.34668E-003	-7.24438E-003	3.52558E-004	5.06821E-004	-9.67309E-003	6.01673E-004
	157	157	4.99832E-002	-1.35564E-002	0.00000E+000	-6.77593E-004	-1.33514E-001	4.09497E-002	3.50680E+001	11	...........	6.82844E-002	-5.62139E-003	6.10062E-001	5.29519E-001	-2.57894E-002	-3.70624E-002	7.07109E-001	-4.38972E-002	-9.25693E-004	7.62059E-005	-8.27026E-003	-7.17839E-003	3.49613E-004	5.02433E-004	-9.58587E-003	5.95089E-004
	158	158	4.99835E-002	-1.34268E-002	0.00000E+000	-6.71121E-004	-1.32222E-001	4.08814E-002	3.55216E+001	11	...........	6.81807E-002	-5.56403E-003	6.10139E-001	5.29565E-001	-2.58147E-002	-3.70475E-002	7.07117E-001	-4.38333E-002	-9.15452E-004	7.47074E-005	-8.19224E-003	-7.11039E-003	3.46610E-004	4.97431E-004	-9.49435E-003	5.88544E-004
	159	159	4.99838E-002	-1.33299E-002	0.00000E+000	-6.66280E-004	-1.31257E-001	4.09405E-002	3.59431E+001	11	...........	6.82828E-002	-5.54014E-003	6.09955E-001	5.29548E-001	-2.58478E-002	-3.70256E-002	7.07182E-001	-4.38447E-002	-9.10205E-004	7.38497E-005	-8.13066E-003	-7.05884E-003	3.44549E-004	4.93548E-004	-9.42669E-003	5.84447E-004
	160	160	4.99823E-002	-1.32096E-002	0.00000E+000	-6.60246E-004	-1.30063E-001	4.09515E-002	3.54801E+001	11	...........	6.82919E-002	-5.48444E-003	6.09803E-001	5.29439E-001	-2.58339E-002	-3.70147E-002	7.07078E-001	-4.38783E-002	-9.02108E-004	7.24473E-005	-8.05524E-003	-6.99367E-003	3.41255E-004	4.88949E-004	-9.34021E-003	5.79615E-004
	161	161	4.99819E-002	-1.30777E-002	0.00000E+000	-6.53647E-004	-1.28748E-001	4.09634E-002	3.58801E+001	11	...........	6.82960E-002	-5.47111E-003	6.09789E-001	5.29341E-001	-2.58272E-002	-3.69999E-002	7.07073E-001	-4.38944E-002	-8.93153E-004	7.15494E-005	-7.97463E-003	-6.92255E-003	3.37760E-004	4.83872E-004	-9.24688E-003	5.74037E-004
	162	162	4.99828E-002	-1.28874E-002	0.00000E+000	-6.44148E-004	-1.26874E-001	4.09472E-002	3.57243E+001	11	...........	6.82700E-002	-5.45194E-003	6.09673E-001	5.29138E-001	-2.58136E-002	-3.69760E-002	7.07006E-001	-4.38810E-002	-8.79824E-004	7.02614E-005	-7.85711E-003	-6.81922E-003	3.32671E-004	4.76524E-004	-9.11148E-003	5.65512E-004
	163	163	4.99806E-002	-1.26458E-002	0.00000E+000	-6.32045E-004	-1.24460E-001	4.09722E-002	3.45093E+001	11	...........	6.83200E-002	-5.52472E-003	6.09569E-001	5.29121E-001	-2.58036E-002	-3.69704E-002	7.06966E-001	-4.38297E-002	-8.63961E-004	6.98645E-005	-7.70849E-003	-6.69116E-003	3.26307E-004	4.67520E-004	-8.94015E-003	5.54262E-004
	164	164	4.99831E-002	-1.24022E-002	0.00000E+000	-6.19903E-004	-1.22033E-001	4.08435E-002	3.50604E+001	11	...........	6.81117E-002	-5.55431E-003	6.09612E-001	5.29180E-001	-2.57764E-002	-3.69483E-002	7.06980E-001	-4.38925E-002	-8.44738E-004	6.88859E-005	-7.56056E-003	-6.56302E-003	3.19685E-004	4.58242E-004	-8.76814E-003	5.44366E-004
	165	165	4.99840E-002	-1.24583E-002	0.00000E+000	-6.22713E-004	-1.22591E-001	4.10821E-002	3.60248E+001	11	...........	6.85086E-002	-5.49167E-003	6.09601E-001	5.29309E-001	-2.57647E-002	-3.69435E-002	7.07135E-001	-4.39486E-002	-8.53498E-004	6.84166E-005	-7.59457E-003	-6.59427E-003	3.20984E-004	4.60251E-004	-8.80967E-003	5.47523E-004
	166	166	4.99824E-002	-1.23342E-002	0.00000E+000	-6.16494E-004	-1.21350E-001	4.09851E-002	3.54046E+001	11	...........	6.83612E-002	-5.44514E-003	6.09556E-001	5.29499E-001	-2.57528E-002	-3.69460E-002	7.06999E-001	-4.40199E-002	-8.43184E-004	6.71616E-005	-7.51841E-003	-6.53097E-003	3.17641E-004	4.55700E-004	-8.72029E-003	5.42951E-004
	167	167	4.99823E-002	-1.20344E-002	0.00000E+000	-6.01504E-004	-1.18363E-001	4.08920E-002	3.55332E+001	11	...........	6.81903E-002	-5.42153E-003	6.09364E-001	5.29542E-001	-2.57507E-002	-3.69278E-002	7.07031E-001	-4.40218E-002	-8.20626E-004	6.52446E-005	-7.33330E-003	-6.37270E-003	3.09893E-004	4.44402E-004	-8.50867E-003	5.29774E-004
	168	168	4.99816E-002	-1.19475E-002	0.00000E+000	-5.97155E-004	-1.17493E-001	4.10979E-002	3.58612E+001	11	...........	6.85304E-002	-5.37417E-003	6.09359E-001	5.29643E-001	-2.57369E-002	-3.68999E-002	7.07044E-001	-4.39815E-002	-8.18768E-004	6.42079E-005	-7.28032E-003	-6.32792E-003	3.07492E-004	4.40861E-004	-8.44741E-003	5.25470E-004
	169	169	4.99815E-002	-1.17269E-002	0.00000E+000	-5.86130E-004	-1.15299E-001	4.09044E-002	3.50803E+001	11	...........	6.82178E-002	-5.38236E-003	6.09156E-001	5.29597E-001	-2.57365E-002	-3.68968E-002	7.07055E-001	-4.38271E-002	-7.99985E-004	6.31186E-005	-7.14354E-003	-6.21055E-003	3.01811E-004	4.32686E-004	-8.29158E-003	5.13957E-004
	170	170	4.99854E-002	-1.16893E-002	0.00000E+000	-5.84294E-004	-1.14918E-001	4.10255E-002	3.57639E+001	11	...........	6.84110E-002	-5.43208E-003	6.08910E-001	5.29590E-001	-2.57425E-002	-3.68879E-002	7.06925E-001	-4.37574E-002	-7.99676E-004	6.34972E-005	-7.11773E-003	-6.19054E-003	3.00912E-004	4.31194E-004	-8.26345E-003	5.11493E-004
	171	171	4.99822E-002	-1.15242E-002	0.00000E+000	-5.76006E-004	-1.13288E-001	4.09153E-002	3.47553E+001	11	...........	6.82208E-002	-5.39972E-003	6.08810E-001	5.29623E-001	-2.57399E-002	-3.68765E-002	7.07016E-001	-4.38138E-002	-7.86193E-004	6.22276E-005	-7.01607E-003	-6.10350E-003	2.96632E-004	4.24974E-004	-8.14781E-003	5.04920E-004
	172	172	4.99837E-002	-1.14489E-002	0.00000E+000	-5.72259E-004	-1.12558E-001	4.11474E-002	3.59139E+001	11	...........	6.86090E-002	-5.48542E-003	6.08743E-001	5.29693E-001	-2.57268E-002	-3.69032E-002	7.07079E-001	-4.38079E-002	-7.85499E-004	6.28021E-005	-6.96944E-003	-6.06441E-003	2.94544E-004	4.22502E-004	-8.09529E-003	5.01553E-004
	173	173	4.99823E-002	-1.13007E-002	0.00000E+000	-5.64836E-004	-1.11082E-001	4.10161E-002	3.60602E+001	11	...........	6.83918E-002	-5.58542E-003	6.08941E-001	5.29889E-001	-2.57204E-002	-3.68751E-002	7.06960E-001	-4.38675E-002	-7.72877E-004	6.31193E-005	-6.88148E-003	-5.98813E-003	2.90659E-004	4.16716E-004	-7.98916E-003	4.95735E-004
	174	174	4.99784E-002	-1.10907E-002	0.00000E+000	-5.54293E-004	-1.08992E-001	4.10087E-002	3.55005E+001	11	...........	6.83822E-002	-5.58903E-003	6.09200E-001	5.29897E-001	-2.57194E-002	-3.68543E-002	7.07027E-001	-4.38889E-002	-7.58404E-004	6.19860E-005	-6.75644E-003	-5.87691E-003	2.85246E-004	4.08739E-004	-7.84140E-003	4.86757E-004
	175	175	4.99823E-002	-1.09155E-002	0.00000E+000	-5.45583E-004	-1.07249E-001	4.10107E-002	3.46720E+001	11	...........	6.83885E-002	-5.61236E-003	6.09404E-001	5.30049E-001	-2.57049E-002	-3.68412E-002	7.07020E-001	-4.38933E-002	-7.46495E-004	6.12618E-005	-6.65196E-003	-5.78576E-003	2.80582E-004	4.02141E-004	-7.71749E-003	4.79118E-004
	176	176	4.99880E-002	-1.08666E-002	0.00000E+000	-5.43199E-004	-1.06763E-001	4.10213E-002	3.58316E+001	11	...........	6.83976E-002	-5.54792E-003	6.09420E-001	5.29967E-001	-2.57042E-002	-3.68436E-002	7.07059E-001	-4.39056E-002	-7.43249E-004	6.02869E-005	-6.62232E-003	-5.75893E-003	2.79317E-004	4.00364E-004	-7.68332E-003	4.77104E-004
	177	177	4.99831E-002	-1.08298E-002	0.00000E+000	-5.41305E-004	-1.06397E-001	4.10596E-002	3.56575E+001	11	...........	6.84567E-002	-5.50972E-003	6.09461E-001	5.29836E-001	-2.57249E-002	-3.68490E-002	7.07025E-001	-4.39278E-002	-7.41370E-004	5.96690E-005	-6.60033E-003	-5.73801E-003	2.78594E-004	3.99067E-004	-7.65692E-003	4.75728E-004
	178	178	4.99830E-002	-1.07379E-002	0.00000E+000	-5.36711E-004	-1.05477E-001	4.10861E-002	3.59899E+001	11	...........	6.85021E-002	-5.44306E-003	6.09412E-001	5.29886E-001	-2.57233E-002	-3.68632E-002	7.07036E-001	-4.39467E-002	-7.35567E-004	5.84469E-005	-6.54379E-003	-5.68986E-003	2.76214E-004	3.95833E-004	-7.59207E-003	4.71894E-004
	179	179	4.99822E-002	-1.05911E-002	0.00000E+000	-5.29369E-004	-1.04016E-001	4.10917E-002	3.60130E+001	11	...........	6.85203E-002	-5.53069E-003	6.09489E-001	5.29797E-001	-2.57036E-002	-3.68915E-002	7.06936E-001	-4.38510E-002	-7.25707E-004	5.85763E-005	-6.45518E-003	-5.61115E-003	2.72230E-004	3.90723E-004	-7.48726E-003	4.64432E-004
	180	180	4.99809E-002	-1.04369E-002	0.00000E+000	-5.21646E-004	-1.02500E-001	4.10915E-002	3.54468E+001	11	...........	6.85126E-002	-5.53056E-003	6.09553E-001	5.29781E-001	-2.56992E-002	-3.69128E-002	7.06950E-001	-4.39257E-002	-7.15059E-004	5.77218E-005	-6.36184E-003	-5.52926E-003	2.68219E-004	3.85255E-004	-7.37836E-003	4.58448E-004
	181	181	4.99839E-002	-1.02569E-002	0.00000E+000	-5.12681E-004	-1.00737E-001	4.10248E-002	3.53708E+001	11	...........	6.84017E-002	-5.53542E-003	6.09472E-001	5.29830E-001	-2.56796E-002	-3.69182E-002	7.07000E-001	-4.38819E-002	-7.01591E-004	5.67764E-005	-6.25131E-003	-5.43443E-003	2.63394E-004	3.78667E-004	-7.25165E-003	4.50094E-004
	182	182	4.99848E-002	-1.02538E-002	0.00000E+000	-5.12534E-004	-1.00705E-001	4.10934E-002	3.61353E+001	11	...........	6.85524E-002	-5.51333E-003	6.09465E-001	5.29736E-001	-2.57028E-002	-3.69175E-002	7.07151E-001	-4.39358E-002	-7.02922E-004	5.65326E-005	-6.24933E-003	-5.43181E-003	2.63551E-004	3.78544E-004	-7.25098E-003	4.50509E-004
	183	183	4.99829E-002	-1.01846E-002	0.00000E+000	-5.09056E-004	-1.00016E-001	4.11087E-002	3.62729E+001	11	...........	6.85668E-002	-5.55153E-003	6.09617E-001	5.29724E-001	-2.56600E-002	-3.69257E-002	7.07131E-001	-4.39733E-002	-6.98325E-004	5.65400E-005	-6.20870E-003	-5.39502E-003	2.61337E-004	3.76073E-004	-7.20184E-003	4.47850E-004
	184	184	4.99803E-002	-9.99603E-003	0.00000E+000	-4.99605E-004	-9.81340E-002	4.10633E-002	3.52238E+001	11	...........	6.84926E-002	-5.46681E-003	6.09545E-001	5.29727E-001	-2.56574E-002	-3.68976E-002	7.07049E-001	-4.39474E-002	-6.84655E-004	5.46464E-005	-6.09303E-003	-5.29516E-003	2.56472E-004	3.68830E-004	-7.06769E-003	4.39299E-004
	185	185	4.99844E-002	-9.85257E-003	0.00000E+000	-4.92475E-004	-9.67003E-002	4.10703E-002	3.56500E+001	11	...........	6.84890E-002	-5.51167E-003	6.09392E-001	5.29712E-001	-2.56860E-002	-3.69161E-002	7.07010E-001	-4.39143E-002	-6.74793E-004	5.43041E-005	-6.00408E-003	-5.21903E-003	2.53073E-004	3.63719E-004	-6.96587E-003	4.32669E-004
	186	186	4.99831E-002	-9.74355E-003	0.00000E+000	-4.87013E-004	-9.56143E-002	4.11112E-002	3.58004E+001	11	...........	6.85569E-002	-5.43458E-003	6.09418E-001	5.29780E-001	-2.57008E-002	-3.69325E-002	7.07066E-001	-4.38742E-002	-6.67988E-004	5.29521E-005	-5.93790E-003	-5.16194E-003	2.50417E-004	3.59854E-004	-6.88933E-003	4.27490E-004
	187	187	4.99835E-002	-9.63971E-003	0.00000E+000	-4.81827E-004	-9.45850E-002	4.09823E-002	3.57114E+001	11	...........	6.83483E-002	-5.49583E-003	6.09499E-001	5.29866E-001	-2.56703E-002	-3.69094E-002	7.07102E-001	-4.38908E-002	-6.58858E-004	5.29782E-005	-5.87540E-003	-5.10776E-003	2.47454E-004	3.55796E-004	-6.81626E-003	4.23095E-004
	188	188	4.99828E-002	-9.59730E-003	0.00000E+000	-4.79700E-004	-9.41633E-002	4.11226E-002	3.63204E+001	11	...........	6.85801E-002	-5.51708E-003	6.09691E-001	5.29876E-001	-2.56810E-002	-3.69104E-002	7.07055E-001	-4.38532E-002	-6.58184E-004	5.29491E-005	-5.85139E-003	-5.08538E-003	2.46468E-004	3.54240E-004	-6.78582E-003	4.20872E-004
	189	189	4.99833E-002	-9.47626E-003	0.00000E+000	-4.73655E-004	-9.29560E-002	4.11219E-002	3.63646E+001	11	...........	6.85733E-002	-5.53708E-003	6.09763E-001	5.29876E-001	-2.56885E-002	-3.69135E-002	7.07007E-001	-4.39896E-002	-6.49819E-004	5.24708E-005	-5.77827E-003	-5.02124E-003	2.43431E-004	3.49802E-004	-6.69978E-003	4.16857E-004
	190	190	4.99797E-002	-9.30940E-003	0.00000E+000	-4.65281E-004	-9.12917E-002	4.10386E-002	3.51065E+001	11	...........	6.84364E-002	-5.45736E-003	6.09881E-001	5.29697E-001	-2.56954E-002	-3.69460E-002	7.06894E-001	-4.39921E-002	-6.37102E-004	5.08048E-005	-5.67763E-003	-4.93116E-003	2.39209E-004	3.43945E-004	-6.58076E-003	4.09540E-004
	191	191	4.99865E-002	-9.23906E-003	0.00000E+000	-4.61828E-004	-9.05897E-002	4.11504E-002	3.60995E+001	11	...........	6.86229E-002	-5.52542E-003	6.09807E-001	5.29719E-001	-2.56882E-002	-3.69575E-002	7.06855E-001	-4.39124E-002	-6.34012E-004	5.10497E-005	-5.63404E-003	-4.89410E-003	2.37335E-004	3.41453E-004	-6.53068E-003	4.05709E-004
	192	192	4.99828E-002	-9.13544E-003	0.00000E+000	-4.56615E-004	-8.95523E-002	4.10363E-002	3.61856E+001	11	...........	6.84447E-002	-5.48042E-003	6.09980E-001	5.29762E-001	-2.56767E-002	-3.69658E-002	7.06879E-001	-4.39486E-002	-6.25273E-004	5.00660E-005	-5.57244E-003	-4.83961E-003	2.34568E-004	3.37699E-004	-6.45766E-003	4.01490E-004
	193	193	4.99826E-002	-9.04310E-003	0.00000E+000	-4.51998E-004	-8.86513E-002	4.11201E-002	3.59811E+001	11	...........	6.85637E-002	-5.34250E-003	6.10023E-001	5.29811E-001	-2.56906E-002	-3.69550E-002	7.06913E-001	-4.39060E-002	-6.20029E-004	4.83128E-005	-5.51650E-003	-4.79113E-003	2.32322E-004	3.34188E-004	-6.39268E-003	3.97046E-004
	194	194	4.99839E-002	-8.94159E-003	0.00000E+000	-4.46936E-004	-8.76620E-002	4.11773E-002	3.61880E+001	11	...........	6.86518E-002	-5.34861E-003	6.10053E-001	5.29751E-001	-2.56965E-002	-3.69600E-002	7.06942E-001	-4.39054E-002	-6.13856E-004	4.78251E-005	-5.45484E-003	-4.73682E-003	2.29768E-004	3.30481E-004	-6.32119E-003	3.92584E-004
	195	195	4.99829E-002	-8.82698E-003	0.00000E+000	-4.41198E-004	-8.65160E-002	4.10917E-002	3.61558E+001	11	...........	6.85328E-002	-5.36833E-003	6.09952E-001	5.29732E-001	-2.57182E-002	-3.69485E-002	7.06910E-001	-4.38088E-002	-6.04937E-004	4.73861E-005	-5.38403E-003	-4.67594E-003	2.27014E-004	3.26143E-004	-6.23988E-003	3.86699E-004
	196	196	4.99812E-002	-8.70796E-003	0.00000E+000	-4.35234E-004	-8.53320E-002	4.11921E-002	3.47085E+001	11	...........	6.86972E-002	-5.46972E-003	6.09877E-001	5.29790E-001	-2.57199E-002	-3.69212E-002	7.06965E-001	-4.38150E-002	-5.98213E-004	4.76301E-005	-5.31078E-003	-4.61339E-003	2.23967E-004	3.21509E-004	-6.15622E-003	3.81539E-004
	197	197	4.99854E-002	-8.49825E-003	0.00000E+000	-4.24788E-004	-8.32437E-002	4.10364E-002	3.58256E+001	11	...........	6.84322E-002	-5.34056E-003	6.09797E-001	5.29697E-001	-2.57196E-002	-3.69119E-002	7.06886E-001	-4.38381E-002	-5.81554E-004	4.53853E-005	-5.18220E-003	-4.50150E-003	2.18571E-004	3.13687E-004	-6.00729E-003	3.72547E-004
	198	198	4.99835E-002	-8.58865E-003	0.00000E+000	-4.29291E-004	-8.41423E-002	4.12374E-002	3.64525E+001	11	...........	6.87676E-002	-5.40611E-003	6.09867E-001	5.29567E-001	-2.57240E-002	-3.69204E-002	7.06946E-001	-4.38021E-002	-5.90621E-004	4.64312E-005	-5.23794E-003	-4.54827E-003	2.20935E-004	3.17097E-004	-6.07171E-003	3.76201E-004
	199	199	4.99826E-002	-8.48635E-003	0.00000E+000	-4.24169E-004	-8.31187E-002	4.11852E-002	3.60357E+001	11	...........	6.86825E-002	-5.52694E-003	6.09698E-001	5.29642E-001	-2.57553E-002	-3.69089E-002	7.07059E-001	-4.39057E-002	-5.82864E-004	4.69036E-005	-5.17411E-003	-4.49473E-003	2.18568E-004	3.13222E-004	-6.00035E-003	3.72599E-004
	200	200	4.99837E-002	-8.36091E-003	0.00000E+000	-4.17910E-004	-8.18723E-002	4.11429E-002	3.61832E+001	11	...........	6.85903E-002	-5.49431E-003	6.09769E-001	5.29676E-001	-2.57303E-002	-3.69221E-002	7.06977E-001	-4.39017E-002	-5.73477E-004	4.59374E-005	-5.09822E-003	-4.42857E-003	2.15129E-004	3.08702E-004	-5.91097E-003	3.67058E-004
	201	201	4.99824E-002	-8.24834E-003	0.00000E+000	-4.12272E-004	-8.07547E-002	4.12522E-002	3.58541E+001	11	...........	6.87876E-002	-5.55222E-003	6.09828E-001	5.29826E-001	-2.57344E-002	-3.69272E-002	7.07056E-001	-4.39086E-002	-5.67384E-004	4.57966E-005	-5.03007E-003	-4.37019E-003	2.12266E-004	3.04588E-004	-5.83204E-003	3.62173E-004
	202	202	4.99825E-002	-8.09398E-003	0.00000E+000	-4.04557E-004	-7.92150E-002	4.11100E-002	3.53862E+001	11	...........	6.85601E-002	-5.50917E-003	6.09730E-001	5.30033E-001	-2.57325E-002	-3.69150E-002	7.07001E-001	-4.40947E-002	-5.54924E-004	4.45911E-005	-4.93514E-003	-4.29008E-003	2.08278E-004	2.98789E-004	-5.72245E-003	3.56902E-004
	203	203	4.99842E-002	-8.08500E-003	0.00000E+000	-4.04123E-004	-7.91203E-002	4.12393E-002	3.62888E+001	11	...........	6.87650E-002	-5.42944E-003	6.09572E-001	5.30080E-001	-2.57558E-002	-3.68853E-002	7.06869E-001	-4.40961E-002	-5.55965E-004	4.38971E-005	-4.92839E-003	-4.28570E-003	2.08236E-004	2.98218E-004	-5.71504E-003	3.56517E-004
	204	204	4.99838E-002	-8.00651E-003	0.00000E+000	-4.00196E-004	-7.83420E-002	4.11854E-002	3.59396E+001	11	...........	6.86732E-002	-5.39292E-003	6.09527E-001	5.30008E-001	-2.57703E-002	-3.68683E-002	7.06969E-001	-4.39436E-002	-5.49833E-004	4.31784E-005	-4.88019E-003	-4.24351E-003	2.06330E-004	2.95187E-004	-5.66035E-003	3.51835E-004
	205	205	4.99832E-002	-7.94647E-003	0.00000E+000	-3.97190E-004	-7.77457E-002	4.12791E-002	3.61192E+001	11	...........	6.88392E-002	-5.42292E-003	6.09572E-001	5.30033E-001	-2.57608E-002	-3.68801E-002	7.07108E-001	-4.39446E-002	-5.47028E-004	4.30930E-005	-4.84394E-003	-4.21189E-003	2.04708E-004	2.93067E-004	-5.61902E-003	3.49204E-004
	206	206	4.99835E-002	-7.80546E-003	0.00000E+000	-3.90144E-004	-7.63600E-002	4.11126E-002	3.62214E+001	11	...........	6.85587E-002	-5.43931E-003	6.09439E-001	5.30063E-001	-2.57547E-002	-3.68869E-002	7.07151E-001	-4.39421E-002	-5.35132E-004	4.24563E-005	-4.75695E-003	-4.13739E-003	2.01027E-004	2.87920E-004	-5.51964E-003	3.42988E-004
	207	207	4.99813E-002	-7.77841E-003	0.00000E+000	-3.88775E-004	-7.60983E-002	4.12711E-002	3.55740E+001	11	...........	6.88118E-002	-5.46569E-003	6.09526E-001	5.29929E-001	-2.57671E-002	-3.69014E-002	7.07074E-001	-4.39693E-002	-5.35246E-004	4.25144E-005	-4.74114E-003	-4.12200E-003	2.00427E-004	2.87034E-004	-5.49991E-003	3.42011E-004
	208	208	4.99840E-002	-7.63264E-003	0.00000E+000	-3.81510E-004	-7.46377E-002	4.10094E-002	3.56259E+001	11	...........	6.86283E-002	-5.54333E-003	6.09552E-001	5.29874E-001	-2.57586E-002	-3.69235E-002	7.06846E-001	-4.38918E-002	-5.23816E-004	4.23103E-005	-4.65249E-003	-4.04434E-003	1.96606E-004	2.81824E-004	-5.39510E-003	3.35011E-004
	209	209	4.99844E-002	-7.57775E-003	0.00000E+000	-3.78769E-004	-7.40880E-002	4.11627E-002	3.60342E+001	11	...........	6.86314E-002	-5.55944E-003	6.09694E-001	5.29895E-001	-2.57404E-002	-3.69247E-002	7.06812E-001	-4.38515E-002	-5.20072E-004	4.21281E-005	-4.62011E-003	-4.01541E-003	1.95054E-004	2.79806E-004	-5.35605E-003	3.32296E-004
	210	210	4.99841E-002	-7.55360E-003	0.00000E+000	-3.77560E-004	-7.38427E-002	4.12149E-002	3.64295E+001	11	...........	6.87386E-002	-5.52556E-003	6.09733E-001	5.29829E-001	-2.57344E-002	-3.69201E-002	7.06733E-001	-4.38986E-002	-5.19224E-004	4.17379E-005	-4.60568E-003	-4.00212E-003	1.94388E-004	2.78880E-004	-5.33838E-003	3.31593E-004
	211	211	4.99812E-002	-7.45307E-003	0.00000E+000	-3.72513E-004	-7.28457E-002	4.12257E-002	3.60467E+001	11	...........	6.87525E-002	-5.57889E-003	6.09863E-001	5.29734E-001	-2.57565E-002	-3.69121E-002	7.06822E-001	-4.39581E-002	-5.12417E-004	4.15798E-005	-4.54535E-003	-3.94815E-003	1.91965E-004	2.75108E-004	-5.26799E-003	3.27622E-004
	212	212	4.99855E-002	-7.38205E-003	0.00000E+000	-3.68996E-004	-7.21360E-002	4.12037E-002	3.64732E+001	11	...........	6.87144E-002	-5.46292E-003	6.09806E-001	5.29784E-001	-2.57606E-002	-3.69237E-002	7.06951E-001	-4.40417E-002	-5.07254E-004	4.03275E-005	-4.50162E-003	-3.91089E-003	1.90166E-004	2.72573E-004	-5.21875E-003	3.25118E-004
	213	213	4.99822E-002	-7.29304E-003	0.00000E+000	-3.64522E-004	-7.12517E-002	4.12196E-002	3.54647E+001	11	...........	6.87876E-002	-5.55028E-003	6.09767E-001	5.29889E-001	-2.57532E-002	-3.69182E-002	7.06954E-001	-4.40126E-002	-5.01671E-004	4.04784E-005	-4.44706E-003	-3.86451E-003	1.87819E-004	2.69246E-004	-5.15585E-003	3.20986E-004
	214	214	4.99840E-002	-7.14259E-003	0.00000E+000	-3.57016E-004	-6.97487E-002	4.10955E-002	3.57549E+001	11	...........	6.85379E-002	-5.57097E-003	6.09968E-001	5.30005E-001	-2.57340E-002	-3.68744E-002	7.06862E-001	-4.40153E-002	-4.89538E-004	3.97912E-005	-4.35675E-003	-3.78561E-003	1.83808E-004	2.63379E-004	-5.04883E-003	3.14383E-004
	215	215	4.99843E-002	-7.14342E-003	0.00000E+000	-3.57059E-004	-6.97543E-002	4.12194E-002	3.63846E+001	11	...........	6.87297E-002	-5.50806E-003	6.10090E-001	5.29954E-001	-2.57367E-002	-3.68489E-002	7.06937E-001	-4.39924E-002	-4.90966E-004	3.93464E-005	-4.35813E-003	-3.78569E-003	1.83848E-004	2.63227E-004	-5.04995E-003	3.14256E-004
	216	216	4.99826E-002	-7.10720E-003	0.00000E+000	-3.55237E-004	-6.93963E-002	4.12988E-002	3.57497E+001	11	...........	6.88592E-002	-5.52125E-003	6.10165E-001	5.29922E-001	-2.57226E-002	-3.69061E-002	7.06969E-001	-4.40481E-002	-4.89396E-004	3.92407E-005	-4.33657E-003	-3.76626E-003	1.82816E-004	2.62299E-004	-5.02458E-003	3.13059E-004
	217	217	4.99842E-002	-6.96501E-003	0.00000E+000	-3.48141E-004	-6.79820E-002	4.11839E-002	3.65103E+001	11	...........	6.86793E-002	-5.49347E-003	6.10196E-001	5.29879E-001	-2.57383E-002	-3.69096E-002	7.06836E-001	-4.39032E-002	-4.78352E-004	3.82621E-005	-4.25002E-003	-3.69061E-003	1.79268E-004	2.57075E-004	-4.92312E-003	3.05786E-004
	218	218	4.99834E-002	-6.95430E-003	0.00000E+000	-3.47599E-004	-6.78753E-002	4.12445E-002	3.67589E+001	11	...........	6.87649E-002	-5.48181E-003	6.10249E-001	5.29855E-001	-2.57675E-002	-3.69231E-002	7.06802E-001	-4.39664E-002	-4.78211E-004	3.81221E-005	-4.24386E-003	-3.68477E-003	1.79195E-004	2.56774E-004	-4.91531E-003	3.05755E-004
	219	219	4.99825E-002	-6.87981E-003	0.00000E+000	-3.43870E-004	-6.71290E-002	4.12332E-002	3.67013E+001	11	...........	6.87510E-002	-5.43375E-003	6.10244E-001	5.29766E-001	-2.57749E-002	-3.69200E-002	7.06828E-001	-4.40586E-002	-4.72994E-004	3.73832E-005	-4.19836E-003	-3.64469E-003	1.77326E-004	2.54003E-004	-4.86284E-003	3.03115E-004
	220	220	4.99811E-002	-6.74965E-003	0.00000E+000	-3.37355E-004	-6.58333E-002	4.11825E-002	3.52035E+001	11	...........	6.86803E-002	-5.28875E-003	6.10307E-001	5.29888E-001	-2.57744E-002	-3.69129E-002	7.06903E-001	-4.39311E-002	-4.63568E-004	3.56972E-005	-4.11936E-003	-3.57656E-003	1.73969E-004	2.49149E-004	-4.77135E-003	2.96520E-004
	221	221	4.99865E-002	-6.67475E-003	0.00000E+000	-3.33648E-004	-6.50857E-002	4.12335E-002	3.64021E+001	11	...........	6.87511E-002	-5.35625E-003	6.10282E-001	5.29886E-001	-2.57537E-002	-3.69018E-002	7.06932E-001	-4.38658E-002	-4.58897E-004	3.57516E-005	-4.07348E-003	-3.53686E-003	1.71900E-004	2.46310E-004	-4.71860E-003	2.92794E-004
	222	222	4.99839E-002	-6.67074E-003	0.00000E+000	-3.33430E-004	-6.50447E-002	4.12547E-002	3.65463E+001	11	...........	6.87878E-002	-5.43472E-003	6.10165E-001	5.29966E-001	-2.57510E-002	-3.68726E-002	7.06979E-001	-4.38583E-002	-4.58866E-004	3.62536E-005	-4.07025E-003	-3.53526E-003	1.71778E-004	2.45968E-004	-4.71608E-003	2.92568E-004
	223	223	4.99834E-002	-6.60974E-003	0.00000E+000	-3.30377E-004	-6.44320E-002	4.12015E-002	3.65571E+001	11	...........	6.87601E-002	-5.36625E-003	6.09997E-001	5.29964E-001	-2.57269E-002	-3.68843E-002	7.06976E-001	-4.39017E-002	-4.54487E-004	3.54695E-005	-4.03192E-003	-3.50292E-003	1.70048E-004	2.43796E-004	-4.67293E-003	2.90179E-004
	224	224	4.99837E-002	-6.55752E-003	0.00000E+000	-3.27769E-004	-6.39057E-002	4.12919E-002	3.66484E+001	11	...........	6.88610E-002	-5.39361E-003	6.09969E-001	5.30042E-001	-2.57365E-002	-3.68889E-002	7.07040E-001	-4.38854E-002	-4.51557E-004	3.53687E-005	-3.99988E-003	-3.47576E-003	1.68768E-004	2.41900E-004	-4.63643E-003	2.87780E-004
	225	225	4.99835E-002	-6.45205E-003	0.00000E+000	-3.22496E-004	-6.28843E-002	4.13386E-002	3.59692E+001	11	...........	6.89293E-002	-5.41569E-003	6.09869E-001	5.30073E-001	-2.57465E-002	-3.68653E-002	7.06952E-001	-4.39287E-002	-4.44735E-004	3.49423E-005	-3.93491E-003	-3.42006E-003	1.66118E-004	2.37857E-004	-4.56129E-003	2.83430E-004
	226	226	4.99823E-002	-6.29984E-003	0.00000E+000	-3.14881E-004	-6.13837E-002	4.10563E-002	3.52566E+001	11	...........	6.84732E-002	-5.36167E-003	6.09876E-001	5.29816E-001	-2.57342E-002	-3.68532E-002	7.06862E-001	-4.39125E-002	-4.31370E-004	3.37777E-005	-3.84212E-003	-3.33775E-003	1.62121E-004	2.32169E-004	-4.45312E-003	2.76642E-004
	227	227	4.99839E-002	-6.29916E-003	0.00000E+000	-3.14857E-004	-6.13807E-002	4.13866E-002	3.60773E+001	11	...........	6.90206E-002	-5.35486E-003	6.09864E-001	5.29808E-001	-2.57322E-002	-3.68572E-002	7.06951E-001	-4.39224E-002	-4.34772E-004	3.37311E-005	-3.84163E-003	-3.33735E-003	1.62091E-004	2.32170E-004	-4.45320E-003	2.76674E-004
	228	228	4.99850E-002	-6.28137E-003	0.00000E+000	-3.13975E-004	-6.12003E-002	4.13195E-002	3.67486E+001	11	...........	6.89139E-002	-5.46889E-003	6.09845E-001	5.29998E-001	-2.57497E-002	-3.68665E-002	7.06941E-001	-4.39263E-002	-4.32874E-004	3.43521E-005	-3.83066E-003	-3.32911E-003	1.61744E-004	2.31572E-004	-4.44056E-003	2.75917E-004
	229	229	4.99833E-002	-6.23104E-003	0.00000E+000	-3.11448E-004	-6.06970E-002	4.12746E-002	3.61453E+001	11	...........	6.88349E-002	-5.46639E-003	6.09820E-001	5.29987E-001	-2.57607E-002	-3.68586E-002	7.07119E-001	-4.39139E-002	-4.28913E-004	3.40613E-005	-3.79981E-003	-3.30237E-003	1.60516E-004	2.29667E-004	-4.40609E-003	2.73629E-004
	230	230	4.99834E-002	-6.09994E-003	0.00000E+000	-3.04896E-004	-5.93890E-002	4.11236E-002	3.59794E+001	11	...........	6.85704E-002	-5.38986E-003	6.09711E-001	5.30026E-001	-2.57375E-002	-3.68543E-002	7.07121E-001	-4.39700E-002	-4.18276E-004	3.28778E-005	-3.71920E-003	-3.23313E-003	1.56997E-004	2.24809E-004	-4.31340E-003	2.68215E-004
	231	231	4.99833E-002	-6.09386E-003	0.00000E+000	-3.04591E-004	-5.93307E-002	4.14527E-002	3.67297E+001	11	...........	6.91158E-002	-5.35528E-003	6.09698E-001	5.30129E-001	-2.57579E-002	-3.68522E-002	7.07061E-001	-4.39569E-002	-4.21182E-004	3.26343E-005	-3.71541E-003	-3.23053E-003	1.56965E-004	2.24572E-004	-4.30873E-003	2.67867E-004
	232	232	4.99832E-002	-6.01874E-003	0.00000E+000	-3.00836E-004	-5.85813E-002	4.12134E-002	3.63628E+001	11	...........	6.87187E-002	-5.42125E-003	6.09633E-001	5.30064E-001	-2.57662E-002	-3.68889E-002	7.06892E-001	-4.38453E-002	-4.13601E-004	3.26291E-005	-3.66923E-003	-3.19032E-003	1.55080E-004	2.22025E-004	-4.25460E-003	2.63894E-004
	233	233	4.99845E-002	-5.97688E-003	0.00000E+000	-2.98751E-004	-5.81610E-002	4.12814E-002	3.63807E+001	11	...........	6.88355E-002	-5.41389E-003	6.09525E-001	5.29932E-001	-2.57656E-002	-3.68751E-002	7.06930E-001	-4.38779E-002	-4.11422E-004	3.23582E-005	-3.64306E-003	-3.16734E-003	1.53998E-004	2.20398E-004	-4.22524E-003	2.62253E-004
	234	234	4.99838E-002	-5.93438E-003	0.00000E+000	-2.96622E-004	-5.77400E-002	4.13109E-002	3.67077E+001	11	...........	6.88961E-002	-5.44722E-003	6.09454E-001	5.29981E-001	-2.57300E-002	-3.68708E-002	7.07034E-001	-4.38575E-002	-4.08855E-004	3.23259E-005	-3.61673E-003	-3.14511E-003	1.52691E-004	2.18805E-004	-4.19581E-003	2.60267E-004
	235	235	4.99833E-002	-5.87947E-003	0.00000E+000	-2.93875E-004	-5.71910E-002	4.13325E-002	3.67607E+001	11	...........	6.89228E-002	-5.53569E-003	6.09345E-001	5.30081E-001	-2.57415E-002	-3.68743E-002	7.07035E-001	-4.38919E-002	-4.05229E-004	3.25469E-005	-3.58262E-003	-3.11659E-003	1.51346E-004	2.16801E-004	-4.15699E-003	2.58061E-004
	236	236	4.99822E-002	-5.79635E-003	0.00000E+000	-2.89714E-004	-5.63623E-002	4.13622E-002	3.50809E+001	11	...........	6.89803E-002	-5.43028E-003	6.09370E-001	5.30032E-001	-2.57303E-002	-3.68542E-002	7.06978E-001	-4.38690E-002	-3.99834E-004	3.14758E-005	-3.53212E-003	-3.07225E-003	1.49142E-004	2.13620E-004	-4.09789E-003	2.54280E-004
	237	237	4.99849E-002	-5.63645E-003	0.00000E+000	-2.81738E-004	-5.47713E-002	4.11686E-002	3.57400E+001	11	...........	6.86431E-002	-5.42542E-003	6.09254E-001	5.29946E-001	-2.57435E-002	-3.68439E-002	7.06924E-001	-4.38831E-002	-3.86903E-004	3.05801E-005	-3.43403E-003	-2.98702E-003	1.45102E-004	2.07669E-004	-3.98454E-003	2.47345E-004
	238	238	4.99839E-002	-5.69884E-003	0.00000E+000	-2.84850E-004	-5.53973E-002	4.13232E-002	3.66834E+001	11	...........	6.89132E-002	-5.43139E-003	6.09283E-001	5.29951E-001	-2.57426E-002	-3.68603E-002	7.06989E-001	-4.39658E-002	-3.92725E-004	3.09526E-005	-3.47220E-003	-3.02010E-003	1.46703E-004	2.10061E-004	-4.02902E-003	2.50554E-004
	239	239	4.99840E-002	-5.65419E-003	0.00000E+000	-2.82619E-004	-5.49517E-002	4.13212E-002	3.64277E+001	11	...........	6.88853E-002	-5.42250E-003	6.09414E-001	5.29884E-001	-2.57506E-002	-3.68560E-002	7.07031E-001	-4.39368E-002	-3.89490E-004	3.06598E-005	-3.44574E-003	-2.99606E-003	1.45598E-004	2.08391E-004	-3.99768E-003	2.48427E-004
	240	240	4.99839E-002	-5.58996E-003	0.00000E+000	-2.79408E-004	-5.43097E-002	4.13226E-002	3.65136E+001	11	...........	6.89124E-002	-5.46028E-003	6.09387E-001	5.29703E-001	-2.57562E-002	-3.68651E-002	7.07097E-001	-4.39297E-002	-3.85217E-004	3.05227E-005	-3.40645E-003	-2.96102E-003	1.43976E-004	2.06075E-004	-3.95264E-003	2.45565E-004
	241	241	4.99836E-002	-5.55843E-003	0.00000E+000	-2.77830E-004	-5.39967E-002	4.13537E-002	3.66771E+001	11	...........	6.89650E-002	-5.49069E-003	6.09350E-001	5.29507E-001	-2.57772E-002	-3.68786E-002	7.07096E-001	-4.38632E-002	-3.83337E-004	3.05196E-005	-3.38703E-003	-2.94323E-003	1.43281E-004	2.04987E-004	-3.93034E-003	2.43810E-004
	242	242	4.99834E-002	-5.47839E-003	0.00000E+000	-2.73828E-004	-5.31943E-002	4.13991E-002	3.57533E+001	11	...........	6.90449E-002	-5.43681E-003	6.09604E-001	5.29512E-001	-2.57942E-002	-3.68772E-002	7.06958E-001	-4.39411E-002	-3.78255E-004	2.97849E-005	-3.33965E-003	-2.90087E-003	1.41311E-004	2.02028E-004	-3.87299E-003	2.40727E-004
	243	243	4.99838E-002	-5.36153E-003	0.00000E+000	-2.67989E-004	-5.20320E-002	4.11796E-002	3.56588E+001	11	...........	6.86806E-002	-5.51972E-003	6.09604E-001	5.29491E-001	-2.57917E-002	-3.68679E-002	7.06924E-001	-4.40461E-002	-3.68233E-004	2.95941E-005	-3.26841E-003	-2.83888E-003	1.38283E-004	1.97668E-004	-3.79019E-003	2.36154E-004
	244	244	4.99841E-002	-5.40104E-003	0.00000E+000	-2.69966E-004	-5.24267E-002	4.14639E-002	3.67350E+001	11	...........	6.91506E-002	-5.46889E-003	6.09730E-001	5.29508E-001	-2.57978E-002	-3.68864E-002	7.06960E-001	-4.39060E-002	-3.73485E-004	2.95377E-005	-3.29318E-003	-2.85990E-003	1.39335E-004	1.99225E-004	-3.81832E-003	2.37138E-004
	245	245	4.99835E-002	-5.35303E-003	0.00000E+000	-2.67563E-004	-5.19493E-002	4.13859E-002	3.64779E+001	11	...........	6.90246E-002	-5.59972E-003	6.09638E-001	5.29579E-001	-2.58119E-002	-3.69112E-002	7.06992E-001	-4.39385E-002	-3.69490E-004	2.99755E-005	-3.26341E-003	-2.83485E-003	1.38172E-004	1.97587E-004	-3.78454E-003	2.35204E-004
	246	246	4.99839E-002	-5.29166E-003	0.00000E+000	-2.64497E-004	-5.13410E-002	4.13150E-002	3.66670E+001	11	...........	6.89130E-002	-5.62792E-003	6.09603E-001	5.29689E-001	-2.58110E-002	-3.68961E-002	7.06919E-001	-4.39735E-002	-3.64664E-004	2.97810E-005	-3.22581E-003	-2.80293E-003	1.36583E-004	1.95242E-004	-3.74077E-003	2.32692E-004
	247	247	4.99838E-002	-5.24546E-003	0.00000E+000	-2.62188E-004	-5.08933E-002	4.13597E-002	3.62879E+001	11	...........	6.89717E-002	-5.63931E-003	6.09751E-001	5.29661E-001	-2.58343E-002	-3.69046E-002	7.06918E-001	-4.39788E-002	-3.61788E-004	2.95807E-005	-3.19842E-003	-2.77831E-003	1.35513E-004	1.93581E-004	-3.70811E-003	2.30689E-004
	248	247.54	4.99791E-002	-5.17154E-003	0.00000E+000	-2.58469E-004	-5.01617E-002	4.13534E-002	3.35917E+001	11	...........	6.89802E-002	-5.56996E-003	6.09628E-001	5.29655E-001	-2.58313E-002	-3.69084E-002	7.06940E-001	-4.39192E-002	-3.56734E-004	2.88052E-005	-3.15271E-003	-2.73913E-003	1.33587E-004	1.90873E-004	-3.65597E-003	2.27130E-004
STARTTIMEOFFSET	QUANT	661042.4	Start Time Offset (s)
