EXPLAIN
TAG	PWR800_DISCHARGE
TITLE	LABEL	PWR Discharge	Test Identifier
DATE	LABEL	10/12/2022	Date
TIME	LABEL	21:52:49	Time
NOTES	NOTES	1	Notes...
	
PSTAT	PSTAT	REF3000-21114	Potentiostat
CAPACITY	QUANT	5.30000E-002	Capacity (A-hr)
CELLTYPE	SELECTOR	1	Cell Type
WORKINGCONNECTION	SELECTOR	0	Working Connection
MAXDISCHARGETIME	VARIABLEANDUNITS	7.20000E+003	s	2.00000E+000	hour(s)	Max Discharge Time
DISCHARGEMODE	MULTIPARAM	0	1.00000E-001	Discharge Mode	Constant Current	Amp(s)
VOLTAGEFINISH	TWOPARAM	T	5.00000E-003	7.20000E+003	Voltage Finish	I (A) <	Max Time(s)
SAMPLETIME	QUANT	1.00000E+000	Sample Period (s)
DISCHARGESTOPAT1	MULTIPARAM	1	5.00000E-002	Stop At 1	|Voltage| < Limit	V
DISCHARGESTOPAT2	MULTIPARAM	0	0.00000E+000	Stop At 2	None	N/A
AESELECTOR	AESELECTOR	0x1	T	Set Limits	AE Channels
AESBHCSELECTOR	TOGGLE	F	Save Both Half Cells
IRCOMP	TOGGLE	F	IR Measure
EOC	QUANT	0.5582975	Open Circuit (V)
SEQUENCER	TOGGLE	TRUE	Run as Sequence
PSTATMODEL	IQUANT	5	Pstat Model
PSTATSECTION	LABEL	REF3000-21114	Pstat Section
PSTATSERIALNO	LABEL	21114	Pstat Serial Number
CTRLMODE	IQUANT	0	Control Mode
ELECTROMETER	IQUANT	0	RE=0 or CS=1
IESTAB	IQUANT	0	I/E Stability
CASPEED	IQUANT	4	Control Amp Speed
CONVENTION	IQUANT	1	Current Convention
ICHRANGE	IQUANT	2	Ich Range
ICHRANGEMODE	TOGGLE	T	Ich Auto Range
ICHOFFSETENABLE	TOGGLE	F	Ich Offset Enable
ICHOFFSET	QUANT	0	Ich Offset (V)
ICHFILTER	IQUANT	1	Ich Filter
VCHRANGE	IQUANT	3	Vch Range
VCHRANGEMODE	TOGGLE	T	Vch Auto Range
VCHOFFSETENABLE	TOGGLE	F	Vch Offset Enable
VCHOFFSET	QUANT	0	Vch Offset (V)
VCHFILTER	IQUANT	1	Vch Filter
ACHRANGE	IQUANT	2	Ach Range
ACHOFFSETENABLE	TOGGLE	F	Ach Offset Enable
ACHOFFSET	QUANT	0	Ach Offset (V)
ACHFILTER	IQUANT	1	Ach Filter
IERANGELOWERLIMIT	IQUANT	9	I/E Range Lower Limit
IERANGEMODE	TOGGLE	F	I/E AutoRange
IERANGE	IQUANT	9	I/E Range
POSFEEDENABLE	TOGGLE	F	Positive Feedback IR Comp
POSFEEDRESISTANCE	QUANT	0	Positive Feedback Resistance (ohm)
ACHSELECT	IQUANT	1	Ach Select
SENSECABLEID	IQUANT	13	Sense Cable ID
PWRCABLEID	IQUANT	13	Power Cable ID
DCCALDATE	LABEL		DC Calibration Date
ACCALDATE	LABEL		AC Calibration Date
THERMOSELECT	IQUANT	1	Thermo Select
FRAMEWORKVERSION	LABEL	7.8.6	Framework Version
INSTRUMENTVERSION	LABEL	4.50	Instrument Version
COMPLIANCEVOLTAGE	IQUANT	0	Compliance Voltage
CURVE	TABLE	146
	Pt	T	Vf	Im	Vu	Pwr	Sig	Ach	Temp	IERange	Over	Vf1	Vf2	Vf3	Vf4	Vf5	Vf6	Vf7	Vf8	Pwr1	Pwr2	Pwr3	Pwr4	Pwr5	Pwr6	Pwr7	Pwr8
	#	s	V	A	V	W	V	V	deg C	#	bits	V	V	V	V	V	V	V	V	W	W	W	W	W	W	W	W
	0	1	3.30759E-001	-1.00100E-001	0.00000E+000	-3.31091E-002	-9.94000E-001	3.82995E-002	2.97907E+001	11	...........	6.34812E-002	-4.10986E-003	5.69939E-001	6.18501E-001	-2.93774E-002	-3.93533E-002	6.58589E-001	-4.33343E-002	-6.35449E-003	4.11398E-004	-5.70511E-002	-6.19121E-002	2.94068E-003	3.93928E-003	-6.59249E-002	4.33777E-003
	1	2	2.40921E-001	-1.00100E-001	0.00000E+000	-2.41163E-002	-9.94000E-001	3.83307E-002	2.90951E+001	11	...........	6.35338E-002	-4.07333E-003	5.69853E-001	6.18488E-001	-2.93890E-002	-3.93433E-002	6.58735E-001	-4.33997E-002	-6.35976E-003	4.07742E-004	-5.70426E-002	-6.19109E-002	2.94185E-003	3.93828E-003	-6.59396E-002	4.34433E-003
	2	3	1.64312E-001	-1.00101E-001	0.00000E+000	-1.64478E-002	-9.94000E-001	3.82740E-002	2.83748E+001	11	...........	6.34563E-002	-4.04986E-003	5.69943E-001	6.18389E-001	-2.93878E-002	-3.93286E-002	6.58837E-001	-4.33268E-002	-6.35203E-003	4.05395E-004	-5.70518E-002	-6.19013E-002	2.94174E-003	3.93683E-003	-6.59503E-002	4.33705E-003
	3	4	9.66380E-002	-1.00101E-001	0.00000E+000	-9.67354E-003	-9.94000E-001	3.82212E-002	2.77314E+001	11	...........	6.33885E-002	-4.12625E-003	5.69984E-001	6.18294E-001	-2.93789E-002	-3.93460E-002	6.58843E-001	-4.34026E-002	-6.34524E-003	4.13041E-004	-5.70559E-002	-6.18917E-002	2.94085E-003	3.93856E-003	-6.59507E-002	4.34464E-003
	4	4.27167	5.76827E-002	-1.00101E-001	0.00000E+000	-5.77410E-003	-9.94000E-001	3.82166E-002	2.74075E+001	11	...........	6.33747E-002	-4.15440E-003	5.70056E-001	6.18279E-001	-2.93814E-002	-3.93405E-002	6.58838E-001	-4.35261E-002	-6.34388E-003	4.15860E-004	-5.70633E-002	-6.18904E-002	2.94111E-003	3.93803E-003	-6.59504E-002	4.35701E-003
	5	5	4.95180E-002	-8.50598E-002	0.00000E+000	-4.21199E-003	-8.44433E-001	3.83436E-002	2.79913E+001	11	...........	6.35570E-002	-4.17353E-003	5.70005E-001	6.18278E-001	-2.93888E-002	-3.93478E-002	6.58707E-001	-4.34380E-002	-5.40615E-003	3.55000E-004	-4.84845E-002	-5.25906E-002	2.49981E-003	3.34692E-003	-5.60295E-002	3.69483E-003
	6	6	4.97482E-002	-6.40363E-002	0.00000E+000	-3.18569E-003	-6.35421E-001	3.84275E-002	2.90548E+001	11	...........	6.36971E-002	-4.17778E-003	5.69944E-001	6.18347E-001	-2.94061E-002	-3.93271E-002	6.58625E-001	-4.33981E-002	-4.07893E-003	2.67529E-004	-3.64971E-002	-3.95966E-002	1.88306E-003	2.51836E-003	-4.21759E-002	2.77905E-003
	7	7	4.98448E-002	-5.12295E-002	0.00000E+000	-2.55352E-003	-5.08090E-001	3.84940E-002	2.97827E+001	11	...........	6.38206E-002	-4.29153E-003	5.70118E-001	6.18300E-001	-2.93897E-002	-3.93374E-002	6.58750E-001	-4.33336E-002	-3.26949E-003	2.19853E-004	-2.92068E-002	-3.16752E-002	1.50562E-003	2.01523E-003	-3.37474E-002	2.21996E-003
	8	8	4.98903E-002	-4.38172E-002	0.00000E+000	-2.18605E-003	-4.34398E-001	3.85705E-002	3.02775E+001	11	...........	6.39250E-002	-4.38833E-003	5.70241E-001	6.18232E-001	-2.93704E-002	-3.93437E-002	6.58802E-001	-4.33853E-002	-2.80101E-003	1.92284E-004	-2.49864E-002	-2.70892E-002	1.28693E-003	1.72393E-003	-2.88669E-002	1.90102E-003
	9	9	4.99144E-002	-3.90642E-002	0.00000E+000	-1.94987E-003	-3.87150E-001	3.86192E-002	3.06094E+001	11	...........	6.40310E-002	-4.37694E-003	5.70316E-001	6.18192E-001	-2.93535E-002	-3.93386E-002	6.58792E-001	-4.33507E-002	-2.50132E-003	1.70982E-004	-2.22789E-002	-2.41492E-002	1.14667E-003	1.53673E-003	-2.57352E-002	1.69346E-003
	10	10	4.99282E-002	-3.58290E-002	0.00000E+000	-1.78887E-003	-3.54973E-001	3.86803E-002	3.08522E+001	11	...........	6.41219E-002	-4.20319E-003	5.70324E-001	6.18172E-001	-2.93343E-002	-3.93399E-002	6.58853E-001	-4.34308E-002	-2.29742E-003	1.50596E-004	-2.04341E-002	-2.21485E-002	1.05102E-003	1.40951E-003	-2.36060E-002	1.55608E-003
	11	11	4.99375E-002	-3.34867E-002	0.00000E+000	-1.67225E-003	-3.31682E-001	3.87343E-002	3.10595E+001	11	...........	6.41886E-002	-4.16167E-003	5.70217E-001	6.18121E-001	-2.93171E-002	-3.93397E-002	6.58890E-001	-4.35831E-002	-2.14947E-003	1.39361E-004	-1.90947E-002	-2.06989E-002	9.81734E-004	1.31736E-003	-2.20641E-002	1.45945E-003
	12	12	4.99434E-002	-3.17569E-002	0.00000E+000	-1.58605E-003	-3.14479E-001	3.87669E-002	3.12065E+001	11	...........	6.42554E-002	-4.12944E-003	5.70018E-001	6.18181E-001	-2.92786E-002	-3.93228E-002	6.58910E-001	-4.35736E-002	-2.04056E-003	1.31138E-004	-1.81020E-002	-1.96315E-002	9.29799E-004	1.24877E-003	-2.09250E-002	1.38376E-003
	13	13	4.99465E-002	-3.04148E-002	0.00000E+000	-1.51911E-003	-3.01166E-001	3.88876E-002	3.12701E+001	11	...........	6.44580E-002	-4.03903E-003	5.69869E-001	6.18168E-001	-2.92774E-002	-3.93306E-002	6.58810E-001	-4.35753E-002	-1.96048E-003	1.22846E-004	-1.73324E-002	-1.88015E-002	8.90465E-004	1.19623E-003	-2.00376E-002	1.32533E-003
	14	14	4.99495E-002	-2.92890E-002	0.00000E+000	-1.46297E-003	-2.89968E-001	3.88153E-002	3.13837E+001	11	...........	6.43079E-002	-4.04306E-003	5.69880E-001	6.18144E-001	-2.92867E-002	-3.93089E-002	6.58788E-001	-4.35028E-002	-1.88351E-003	1.18417E-004	-1.66912E-002	-1.81048E-002	8.57777E-004	1.15132E-003	-1.92952E-002	1.27415E-003
	15	15	4.99517E-002	-2.83698E-002	0.00000E+000	-1.41712E-003	-2.80833E-001	3.88931E-002	3.14652E+001	11	...........	6.44768E-002	-4.11069E-003	5.69719E-001	6.18127E-001	-2.92967E-002	-3.93115E-002	6.58820E-001	-4.33787E-002	-1.82919E-003	1.16620E-004	-1.61628E-002	-1.75361E-002	8.31141E-004	1.11526E-003	-1.86906E-002	1.23065E-003
	16	16	4.99530E-002	-2.76307E-002	0.00000E+000	-1.38024E-003	-2.73475E-001	3.89196E-002	3.15409E+001	11	...........	6.45278E-002	-4.13667E-003	5.69599E-001	6.18214E-001	-2.93096E-002	-3.93176E-002	6.58895E-001	-4.33264E-002	-1.78295E-003	1.14299E-004	-1.57384E-002	-1.70817E-002	8.09844E-004	1.08637E-003	-1.82057E-002	1.19714E-003
	17	17	4.99543E-002	-2.69704E-002	0.00000E+000	-1.34729E-003	-2.66907E-001	3.90229E-002	3.15879E+001	11	...........	6.46932E-002	-4.21681E-003	5.69616E-001	6.18246E-001	-2.93386E-002	-3.93115E-002	6.58877E-001	-4.33017E-002	-1.74480E-003	1.13729E-004	-1.53628E-002	-1.66744E-002	7.91274E-004	1.06025E-003	-1.77702E-002	1.16786E-003
	18	18	4.99547E-002	-2.63366E-002	0.00000E+000	-1.31563E-003	-2.60604E-001	3.89492E-002	3.16786E+001	11	...........	6.45719E-002	-4.14611E-003	5.69528E-001	6.18275E-001	-2.93304E-002	-3.93167E-002	6.58829E-001	-4.33647E-002	-1.70060E-003	1.09194E-004	-1.49994E-002	-1.62832E-002	7.72463E-004	1.03547E-003	-1.73513E-002	1.14208E-003
	19	19	4.99549E-002	-2.57445E-002	0.00000E+000	-1.28606E-003	-2.54724E-001	3.90247E-002	3.17269E+001	11	...........	6.47021E-002	-4.13583E-003	5.69415E-001	6.18363E-001	-2.93290E-002	-3.93201E-002	6.58787E-001	-4.34125E-002	-1.66572E-003	1.06475E-004	-1.46593E-002	-1.59194E-002	7.55061E-004	1.01228E-003	-1.69601E-002	1.11763E-003
	20	20	4.99582E-002	-2.54174E-002	0.00000E+000	-1.26981E-003	-2.51463E-001	3.89334E-002	3.10191E+001	11	...........	6.47517E-002	-4.21000E-003	5.69290E-001	6.18434E-001	-2.93531E-002	-3.93112E-002	6.58883E-001	-4.33587E-002	-1.64582E-003	1.07007E-004	-1.44699E-002	-1.57190E-002	7.46078E-004	9.99189E-004	-1.67471E-002	1.10207E-003
	21	21	4.99543E-002	-2.44538E-002	0.00000E+000	-1.22157E-003	-2.41869E-001	3.87741E-002	3.15299E+001	11	...........	6.46242E-002	-4.22583E-003	5.69325E-001	6.18415E-001	-2.93422E-002	-3.92860E-002	6.58914E-001	-4.32715E-002	-1.58030E-003	1.03338E-004	-1.39221E-002	-1.51226E-002	7.17528E-004	9.60690E-004	-1.61129E-002	1.05815E-003
	22	22	4.99571E-002	-2.44030E-002	0.00000E+000	-1.21911E-003	-2.41375E-001	3.89166E-002	3.19435E+001	11	...........	6.48637E-002	-4.24819E-003	5.69261E-001	6.18323E-001	-2.93453E-002	-3.92767E-002	6.58876E-001	-4.35078E-002	-1.58287E-003	1.03669E-004	-1.38917E-002	-1.50890E-002	7.16114E-004	9.58470E-004	-1.60786E-002	1.06172E-003
	23	23	4.99566E-002	-2.39957E-002	0.00000E+000	-1.19874E-003	-2.37322E-001	3.88918E-002	3.19474E+001	11	...........	6.48349E-002	-4.19722E-003	5.69397E-001	6.18403E-001	-2.93357E-002	-3.92651E-002	6.58790E-001	-4.35229E-002	-1.55576E-003	1.00715E-004	-1.36631E-002	-1.48390E-002	7.03931E-004	9.42195E-004	-1.58081E-002	1.04436E-003
	24	24	4.99576E-002	-2.35810E-002	0.00000E+000	-1.17805E-003	-2.33197E-001	3.89170E-002	3.19950E+001	11	...........	6.48739E-002	-4.22236E-003	5.69435E-001	6.18480E-001	-2.93275E-002	-3.92796E-002	6.58938E-001	-4.35237E-002	-1.52979E-003	9.95675E-005	-1.34278E-002	-1.45844E-002	6.91571E-004	9.26251E-004	-1.55384E-002	1.02633E-003
	25	25	4.99577E-002	-2.32649E-002	0.00000E+000	-1.16226E-003	-2.30066E-001	3.89337E-002	3.20883E+001	11	...........	6.48918E-002	-4.19333E-003	5.69398E-001	6.18609E-001	-2.93249E-002	-3.92764E-002	6.58852E-001	-4.34985E-002	-1.50970E-003	9.75576E-005	-1.32470E-002	-1.43919E-002	6.82241E-004	9.13762E-004	-1.53281E-002	1.01199E-003
	26	26	4.99594E-002	-2.29585E-002	0.00000E+000	-1.14699E-003	-2.27014E-001	3.89552E-002	3.21424E+001	11	...........	6.49322E-002	-4.17389E-003	5.69319E-001	6.18517E-001	-2.93317E-002	-3.92617E-002	6.58905E-001	-4.37406E-002	-1.49074E-003	9.58260E-005	-1.30707E-002	-1.42002E-002	6.73410E-004	9.01387E-004	-1.51274E-002	1.00422E-003
	27	27	4.99563E-002	-2.26415E-002	0.00000E+000	-1.13108E-003	-2.23857E-001	3.89875E-002	3.22226E+001	11	...........	6.49844E-002	-4.17736E-003	5.69513E-001	6.18374E-001	-2.93168E-002	-3.92506E-002	6.58862E-001	-4.36857E-002	-1.47134E-003	9.45817E-005	-1.28946E-002	-1.40009E-002	6.63776E-004	8.88691E-004	-1.49176E-002	9.89109E-004
	28	28	4.99567E-002	-2.21982E-002	0.00000E+000	-1.10895E-003	-2.19444E-001	3.90102E-002	3.22822E+001	11	...........	6.50324E-002	-4.17569E-003	5.69553E-001	6.18563E-001	-2.93074E-002	-3.92804E-002	6.58952E-001	-4.37511E-002	-1.44360E-003	9.26928E-005	-1.26430E-002	-1.37310E-002	6.50570E-004	8.71954E-004	-1.46275E-002	9.71195E-004
	29	29	4.99575E-002	-2.18359E-002	0.00000E+000	-1.09087E-003	-2.15847E-001	3.90364E-002	3.23363E+001	11	...........	6.50592E-002	-4.23875E-003	5.69467E-001	6.18735E-001	-2.93229E-002	-3.92807E-002	6.58895E-001	-4.36308E-002	-1.42063E-003	9.25571E-005	-1.24348E-002	-1.35107E-002	6.40293E-004	8.57731E-004	-1.43876E-002	9.52720E-004
	30	30	4.99577E-002	-2.14887E-002	0.00000E+000	-1.07352E-003	-2.12397E-001	3.90732E-002	3.23888E+001	11	...........	6.51267E-002	-4.29153E-003	5.69338E-001	6.18868E-001	-2.93035E-002	-3.92554E-002	6.58979E-001	-4.35283E-002	-1.39949E-003	9.22192E-005	-1.22343E-002	-1.32987E-002	6.29693E-004	8.43547E-004	-1.41606E-002	9.35366E-004
	31	31	4.99575E-002	-2.11320E-002	0.00000E+000	-1.05570E-003	-2.08842E-001	3.90943E-002	3.24418E+001	11	...........	6.51657E-002	-4.22028E-003	5.69428E-001	6.18805E-001	-2.92979E-002	-3.92361E-002	6.58991E-001	-4.35039E-002	-1.37708E-003	8.91829E-005	-1.20331E-002	-1.30766E-002	6.19124E-004	8.29138E-004	-1.39258E-002	9.19324E-004
	32	32	4.99577E-002	-2.07946E-002	0.00000E+000	-1.03885E-003	-2.05489E-001	3.91197E-002	3.24980E+001	11	...........	6.52183E-002	-4.25875E-003	5.69343E-001	6.18674E-001	-2.92993E-002	-3.92544E-002	6.59005E-001	-4.34251E-002	-1.35619E-003	8.85589E-005	-1.18392E-002	-1.28651E-002	6.09267E-004	8.16280E-004	-1.37037E-002	9.03008E-004
	33	33	4.99579E-002	-2.04491E-002	0.00000E+000	-1.02160E-003	-2.02076E-001	3.91566E-002	3.25365E+001	11	...........	6.52708E-002	-4.19694E-003	5.69439E-001	6.18890E-001	-2.93150E-002	-3.92826E-002	6.58980E-001	-4.34543E-002	-1.33473E-003	8.58238E-005	-1.16445E-002	-1.26558E-002	5.99466E-004	8.03295E-004	-1.34755E-002	8.88602E-004
	34	34	4.99579E-002	-2.01185E-002	0.00000E+000	-1.00508E-003	-1.98780E-001	3.91739E-002	3.25644E+001	11	...........	6.52992E-002	-4.15458E-003	5.69338E-001	6.18943E-001	-2.93304E-002	-3.92997E-002	6.59086E-001	-4.35692E-002	-1.31372E-003	8.35839E-005	-1.14542E-002	-1.24522E-002	5.90084E-004	7.90651E-004	-1.32598E-002	8.76546E-004
	35	35	4.99578E-002	-1.97918E-002	0.00000E+000	-9.88752E-004	-1.95530E-001	3.91941E-002	3.26141E+001	11	...........	6.53501E-002	-4.25264E-003	5.69344E-001	6.18800E-001	-2.93178E-002	-3.93010E-002	6.59088E-001	-4.34590E-002	-1.29339E-003	8.41672E-005	-1.12683E-002	-1.22471E-002	5.80250E-004	7.77835E-004	-1.30445E-002	8.60131E-004
	36	36	4.99580E-002	-1.94454E-002	0.00000E+000	-9.71454E-004	-1.92079E-001	3.93597E-002	3.25648E+001	11	...........	6.56235E-002	-4.32250E-003	5.69294E-001	6.18808E-001	-2.93262E-002	-3.93267E-002	6.59006E-001	-4.34101E-002	-1.27608E-003	8.40529E-005	-1.10702E-002	-1.20330E-002	5.70262E-004	7.64724E-004	-1.28147E-002	8.44129E-004
	37	37	4.99568E-002	-1.91420E-002	0.00000E+000	-9.56273E-004	-1.89073E-001	3.92377E-002	3.24990E+001	11	...........	6.54047E-002	-4.17292E-003	5.69485E-001	6.18788E-001	-2.93279E-002	-3.93075E-002	6.59015E-001	-4.35069E-002	-1.25198E-003	7.98780E-005	-1.09011E-002	-1.18448E-002	5.61395E-004	7.52425E-004	-1.26149E-002	8.32810E-004
	38	38	4.99600E-002	-1.88258E-002	0.00000E+000	-9.40540E-004	-1.85922E-001	3.92606E-002	3.25080E+001	11	...........	6.54589E-002	-4.07056E-003	5.69609E-001	6.18881E-001	-2.93094E-002	-3.92851E-002	6.59048E-001	-4.35412E-002	-1.23232E-003	7.66316E-005	-1.07234E-002	-1.16510E-002	5.51775E-004	7.39576E-004	-1.24071E-002	8.19701E-004
	39	39	4.99622E-002	-1.87826E-002	0.00000E+000	-9.38422E-004	-1.85493E-001	3.92672E-002	3.26260E+001	11	...........	6.54500E-002	-4.13958E-003	5.69818E-001	6.19078E-001	-2.93239E-002	-3.92603E-002	6.58889E-001	-4.34757E-002	-1.22932E-003	7.77522E-005	-1.07027E-002	-1.16279E-002	5.50779E-004	7.37411E-004	-1.23757E-002	8.16587E-004
	40	40	4.99587E-002	-1.86453E-002	0.00000E+000	-9.31495E-004	-1.84127E-001	3.93276E-002	3.27544E+001	11	...........	6.55401E-002	-4.20069E-003	5.69862E-001	6.19050E-001	-2.93525E-002	-3.92442E-002	6.58847E-001	-4.34812E-002	-1.22202E-003	7.83233E-005	-1.06253E-002	-1.15424E-002	5.47287E-004	7.31720E-004	-1.22844E-002	8.10722E-004
	41	41	4.99578E-002	-1.83464E-002	0.00000E+000	-9.16546E-004	-1.81148E-001	3.93326E-002	3.28220E+001	11	...........	6.55586E-002	-4.27931E-003	5.69788E-001	6.19050E-001	-2.93499E-002	-3.92358E-002	6.58803E-001	-4.34572E-002	-1.20277E-003	7.85099E-005	-1.04536E-002	-1.13573E-002	5.38465E-004	7.19837E-004	-1.20867E-002	7.97284E-004
	42	42	4.99554E-002	-1.79900E-002	0.00000E+000	-8.98697E-004	-1.77620E-001	3.93210E-002	3.18760E+001	11	...........	6.55471E-002	-4.20736E-003	5.69758E-001	6.19110E-001	-2.93733E-002	-3.92494E-002	6.58728E-001	-4.35481E-002	-1.17919E-003	7.56903E-005	-1.02499E-002	-1.11378E-002	5.28426E-004	7.06097E-004	-1.18505E-002	7.83429E-004
	43	43	4.99606E-002	-1.76357E-002	0.00000E+000	-8.81089E-004	-1.74088E-001	3.93389E-002	3.25944E+001	11	...........	6.55874E-002	-4.16056E-003	5.69776E-001	6.19099E-001	-2.94097E-002	-3.92274E-002	6.58707E-001	-4.34675E-002	-1.15668E-003	7.33742E-005	-1.00484E-002	-1.09182E-002	5.18660E-004	6.91801E-004	-1.16168E-002	7.66579E-004
	44	44	4.99581E-002	-1.74062E-002	0.00000E+000	-8.69579E-004	-1.71801E-001	3.94006E-002	3.28742E+001	11	...........	6.56862E-002	-4.15708E-003	5.69838E-001	6.19118E-001	-2.94210E-002	-3.92432E-002	6.58767E-001	-4.34894E-002	-1.14335E-003	7.23589E-005	-9.91870E-003	-1.07765E-002	5.12106E-004	6.83074E-004	-1.14666E-002	7.56985E-004
	45	45	4.99585E-002	-1.71242E-002	0.00000E+000	-8.55500E-004	-1.68991E-001	3.93832E-002	3.29170E+001	11	...........	6.56494E-002	-4.14917E-003	5.69960E-001	6.19091E-001	-2.94518E-002	-3.92471E-002	6.58834E-001	-4.34501E-002	-1.12420E-003	7.10513E-005	-9.76013E-003	-1.06015E-002	5.04339E-004	6.72076E-004	-1.12820E-002	7.44050E-004
	46	46	4.99602E-002	-1.69504E-002	0.00000E+000	-8.46847E-004	-1.67263E-001	3.94084E-002	3.29514E+001	11	...........	6.56908E-002	-4.05097E-003	5.70099E-001	6.19142E-001	-2.94419E-002	-3.92528E-002	6.58837E-001	-4.33906E-002	-1.11349E-003	6.86657E-005	-9.66342E-003	-1.04947E-002	4.99054E-004	6.65351E-004	-1.11676E-002	7.35489E-004
	47	47	4.99600E-002	-1.67865E-002	0.00000E+000	-8.38652E-004	-1.65634E-001	3.94283E-002	3.30075E+001	11	...........	6.57367E-002	-3.99931E-003	5.70197E-001	6.19132E-001	-2.94242E-002	-3.92600E-002	6.58828E-001	-4.34125E-002	-1.10349E-003	6.71342E-005	-9.57159E-003	-1.03930E-002	4.93928E-004	6.59036E-004	-1.10594E-002	7.28742E-004
	48	48	4.99593E-002	-1.65617E-002	0.00000E+000	-8.27412E-004	-1.63415E-001	3.94444E-002	3.29885E+001	11	...........	6.57551E-002	-4.12069E-003	5.70052E-001	6.19324E-001	-2.94486E-002	-3.92876E-002	6.58800E-001	-4.34856E-002	-1.08902E-003	6.82458E-005	-9.44105E-003	-1.02571E-002	4.87720E-004	6.50671E-004	-1.09109E-002	7.20196E-004
	49	49	4.99586E-002	-1.63656E-002	0.00000E+000	-8.17605E-004	-1.61457E-001	3.94472E-002	3.27796E+001	11	...........	6.57576E-002	-4.23139E-003	5.69945E-001	6.19541E-001	-2.94653E-002	-3.92810E-002	6.58853E-001	-4.34696E-002	-1.07617E-003	6.92494E-005	-9.32752E-003	-1.01392E-002	4.82218E-004	6.42858E-004	-1.07825E-002	7.11408E-004
	50	50	4.99624E-002	-1.63428E-002	0.00000E+000	-8.16525E-004	-1.61227E-001	3.95109E-002	3.29274E+001	11	...........	6.58651E-002	-4.24000E-003	5.69988E-001	6.19552E-001	-2.94426E-002	-3.92689E-002	6.58837E-001	-4.34028E-002	-1.07642E-003	6.92934E-005	-9.31520E-003	-1.01252E-002	4.81175E-004	6.41763E-004	-1.07672E-002	7.09323E-004
	51	51	4.99598E-002	-1.61466E-002	0.00000E+000	-8.06678E-004	-1.59274E-001	3.95432E-002	3.30673E+001	11	...........	6.58937E-002	-4.16181E-003	5.70076E-001	6.19618E-001	-2.94126E-002	-3.92512E-002	6.58764E-001	-4.33707E-002	-1.06396E-003	6.71988E-005	-9.20477E-003	-1.00047E-002	4.74913E-004	6.33773E-004	-1.06368E-002	7.00287E-004
	52	52	4.99592E-002	-1.59756E-002	0.00000E+000	-7.98126E-004	-1.57575E-001	3.95812E-002	3.31441E+001	11	...........	6.59944E-002	-4.17083E-003	5.70122E-001	6.19466E-001	-2.94231E-002	-3.92572E-002	6.58704E-001	-4.34337E-002	-1.05430E-003	6.66314E-005	-9.10802E-003	-9.89630E-003	4.70050E-004	6.27156E-004	-1.05232E-002	6.93878E-004
	53	53	4.99592E-002	-1.57786E-002	0.00000E+000	-7.88288E-004	-1.55610E-001	3.95991E-002	3.31883E+001	11	...........	6.60160E-002	-4.18556E-003	5.70071E-001	6.19419E-001	-2.93867E-002	-3.92687E-002	6.58682E-001	-4.34125E-002	-1.04164E-003	6.60424E-005	-8.99494E-003	-9.77359E-003	4.63682E-004	6.19608E-004	-1.03931E-002	6.84990E-004
	54	54	4.99595E-002	-1.55724E-002	0.00000E+000	-7.77988E-004	-1.53567E-001	3.96921E-002	3.31424E+001	11	...........	6.61596E-002	-4.21903E-003	5.70137E-001	6.19359E-001	-2.93647E-002	-3.92653E-002	6.58645E-001	-4.33957E-002	-1.03026E-003	6.57002E-005	-8.87838E-003	-9.64489E-003	4.57278E-004	6.11453E-004	-1.02567E-002	6.75773E-004
	55	55	4.99590E-002	-1.53384E-002	0.00000E+000	-7.66294E-004	-1.51243E-001	3.95788E-002	3.32261E+001	11	...........	6.59790E-002	-4.13694E-003	5.70100E-001	6.19454E-001	-2.93832E-002	-3.92878E-002	6.58736E-001	-4.34157E-002	-1.01202E-003	6.34543E-005	-8.74445E-003	-9.50146E-003	4.50693E-004	6.02613E-004	-1.01040E-002	6.65929E-004
	56	56	4.99599E-002	-1.51300E-002	0.00000E+000	-7.55893E-004	-1.49162E-001	3.97258E-002	3.31966E+001	11	...........	6.62375E-002	-4.20500E-003	5.70039E-001	6.19577E-001	-2.93889E-002	-3.93124E-002	6.58668E-001	-4.33985E-002	-1.00217E-003	6.36216E-005	-8.62468E-003	-9.37419E-003	4.44653E-004	5.94795E-004	-9.96563E-003	6.56618E-004
	57	57	4.99591E-002	-1.49712E-002	0.00000E+000	-7.47948E-004	-1.47582E-001	3.96267E-002	3.32522E+001	11	...........	6.60594E-002	-4.29972E-003	5.70109E-001	6.19465E-001	-2.94124E-002	-3.93322E-002	6.58839E-001	-4.33332E-002	-9.88989E-004	6.43720E-005	-8.53521E-003	-9.27413E-003	4.40338E-004	5.88850E-004	-9.86361E-003	6.48750E-004
	58	58	4.99588E-002	-1.47251E-002	0.00000E+000	-7.35647E-004	-1.45133E-001	3.96842E-002	3.33019E+001	11	...........	6.61512E-002	-4.36819E-003	5.69881E-001	6.19521E-001	-2.94310E-002	-3.93394E-002	6.58913E-001	-4.32817E-002	-9.74081E-004	6.43219E-005	-8.39153E-003	-9.12249E-003	4.33373E-004	5.79276E-004	-9.70254E-003	6.37325E-004
	59	59	4.99590E-002	-1.44875E-002	0.00000E+000	-7.23784E-004	-1.42764E-001	3.97043E-002	3.33466E+001	11	...........	6.61754E-002	-4.28806E-003	5.69943E-001	6.19579E-001	-2.94272E-002	-3.93360E-002	6.58848E-001	-4.32904E-002	-9.58719E-004	6.21234E-005	-8.25707E-003	-8.97617E-003	4.26328E-004	5.69881E-004	-9.54508E-003	6.27172E-004
	60	60	4.99593E-002	-1.42782E-002	0.00000E+000	-7.13332E-004	-1.40682E-001	3.97342E-002	3.26871E+001	11	...........	6.62118E-002	-4.30056E-003	5.70041E-001	6.19476E-001	-2.94204E-002	-3.93407E-002	6.58948E-001	-4.33856E-002	-9.45388E-004	6.14044E-005	-8.13919E-003	-8.84503E-003	4.20072E-004	5.61716E-004	-9.40861E-003	6.19469E-004
	61	61	4.99576E-002	-1.38243E-002	0.00000E+000	-6.90629E-004	-1.36184E-001	3.96492E-002	3.30243E+001	11	...........	6.60838E-002	-4.11667E-003	5.70086E-001	6.19350E-001	-2.93872E-002	-3.93150E-002	6.58842E-001	-4.34107E-002	-9.13562E-004	5.69101E-005	-7.88104E-003	-8.56209E-003	4.06258E-004	5.43503E-004	-9.10803E-003	6.00123E-004
	62	62	4.99608E-002	-1.38304E-002	0.00000E+000	-6.90976E-004	-1.36244E-001	3.97749E-002	3.33382E+001	11	...........	6.63062E-002	-4.18889E-003	5.70246E-001	6.19301E-001	-2.93975E-002	-3.93076E-002	6.58706E-001	-4.34475E-002	-9.17040E-004	5.79339E-005	-7.88672E-003	-8.56516E-003	4.06578E-004	5.43639E-004	-9.11014E-003	6.00895E-004
	63	63	4.99597E-002	-1.36431E-002	0.00000E+000	-6.81604E-004	-1.34379E-001	3.97247E-002	3.34298E+001	11	...........	6.62161E-002	-4.25472E-003	5.70386E-001	6.19399E-001	-2.94260E-002	-3.93325E-002	6.58830E-001	-4.34918E-002	-9.03392E-004	5.80476E-005	-7.78183E-003	-8.45051E-003	4.01461E-004	5.36617E-004	-8.98848E-003	5.93363E-004
	64	64	4.99611E-002	-1.34826E-002	0.00000E+000	-6.73607E-004	-1.32784E-001	3.97262E-002	3.34175E+001	11	...........	6.62201E-002	-4.32236E-003	5.70509E-001	6.19386E-001	-2.94337E-002	-3.93181E-002	6.58881E-001	-4.35204E-002	-8.92823E-004	5.82769E-005	-7.69197E-003	-8.35096E-003	3.96845E-004	5.30111E-004	-8.88346E-003	5.86770E-004
	65	65	4.99600E-002	-1.34078E-002	0.00000E+000	-6.69854E-004	-1.32040E-001	3.98031E-002	3.33597E+001	11	...........	6.63485E-002	-4.29944E-003	5.70441E-001	6.19383E-001	-2.94169E-002	-3.92978E-002	6.58889E-001	-4.34590E-002	-8.89588E-004	5.76462E-005	-7.64837E-003	-8.30457E-003	3.94417E-004	5.26897E-004	-8.83427E-003	5.82691E-004
	66	66	4.99596E-002	-1.32038E-002	0.00000E+000	-6.59654E-004	-1.30004E-001	3.97449E-002	3.34400E+001	11	...........	6.62537E-002	-4.29694E-003	5.70520E-001	6.19408E-001	-2.94212E-002	-3.93074E-002	6.58837E-001	-4.34612E-002	-8.74798E-004	5.67358E-005	-7.53301E-003	-8.17851E-003	3.88471E-004	5.19005E-004	-8.69912E-003	5.73852E-004
	67	67	4.99591E-002	-1.30191E-002	0.00000E+000	-6.50422E-004	-1.28180E-001	3.98662E-002	3.33408E+001	11	...........	6.64622E-002	-4.34667E-003	5.70572E-001	6.19393E-001	-2.94119E-002	-3.92810E-002	6.58947E-001	-4.35275E-002	-8.65277E-004	5.65896E-005	-7.42832E-003	-8.06392E-003	3.82916E-004	5.11402E-004	-8.57888E-003	5.66688E-004
	68	68	4.99593E-002	-1.28285E-002	0.00000E+000	-6.40904E-004	-1.26291E-001	3.97646E-002	3.34630E+001	11	...........	6.62833E-002	-4.15236E-003	5.70621E-001	6.19295E-001	-2.94393E-002	-3.92972E-002	6.58954E-001	-4.35093E-002	-8.50317E-004	5.32686E-005	-7.32022E-003	-7.94464E-003	3.77663E-004	5.04125E-004	-8.45340E-003	5.58160E-004
	69	69	4.99598E-002	-1.26223E-002	0.00000E+000	-6.30606E-004	-1.24233E-001	3.98843E-002	3.34060E+001	11	...........	6.64880E-002	-4.15181E-003	5.70780E-001	6.19240E-001	-2.94357E-002	-3.92781E-002	6.58890E-001	-4.36381E-002	-8.39230E-004	5.24052E-005	-7.20454E-003	-7.81621E-003	3.71545E-004	4.95778E-004	-8.31669E-003	5.50811E-004
	70	70	4.99587E-002	-1.24356E-002	0.00000E+000	-6.21268E-004	-1.22374E-001	3.97892E-002	3.34838E+001	11	...........	6.63188E-002	-4.19750E-003	5.70816E-001	6.19160E-001	-2.94358E-002	-3.92750E-002	6.58923E-001	-4.35897E-002	-8.24715E-004	5.21985E-005	-7.09845E-003	-7.69964E-003	3.66053E-004	4.88409E-004	-8.19412E-003	5.42066E-004
	71	71	4.99603E-002	-1.22338E-002	0.00000E+000	-6.11202E-004	-1.20365E-001	3.98231E-002	3.35031E+001	11	...........	6.63999E-002	-4.21083E-003	5.70925E-001	6.19154E-001	-2.94075E-002	-3.92854E-002	6.58924E-001	-4.34549E-002	-8.12320E-004	5.15143E-005	-6.98456E-003	-7.57458E-003	3.59764E-004	4.80608E-004	-8.06111E-003	5.31616E-004
	72	72	4.99601E-002	-1.20860E-002	0.00000E+000	-6.03818E-004	-1.18892E-001	3.98596E-002	3.35417E+001	11	...........	6.64387E-002	-4.22500E-003	5.71001E-001	6.18925E-001	-2.94064E-002	-3.93112E-002	6.58937E-001	-4.34439E-002	-8.02979E-004	5.10633E-005	-6.90111E-003	-7.48033E-003	3.55406E-004	4.75116E-004	-7.96391E-003	5.25063E-004
	73	73	4.99594E-002	-1.18976E-002	0.00000E+000	-5.94397E-004	-1.17015E-001	3.98621E-002	3.35951E+001	11	...........	6.64544E-002	-4.13944E-003	5.71035E-001	6.18854E-001	-2.94067E-002	-3.92918E-002	6.58929E-001	-4.34844E-002	-7.90648E-004	4.92495E-005	-6.79394E-003	-7.36288E-003	3.49869E-004	4.67478E-004	-7.83968E-003	5.17361E-004
	74	74	4.99598E-002	-1.17414E-002	0.00000E+000	-5.86596E-004	-1.15454E-001	3.98837E-002	3.36245E+001	11	...........	6.64883E-002	-4.06292E-003	5.71119E-001	6.18933E-001	-2.93965E-002	-3.92774E-002	6.58945E-001	-4.34921E-002	-7.80663E-004	4.77042E-005	-6.70572E-003	-7.26712E-003	3.45155E-004	4.61170E-004	-7.73691E-003	5.10656E-004
	75	75	4.99593E-002	-1.15437E-002	0.00000E+000	-5.76715E-004	-1.13506E-001	3.99317E-002	3.35768E+001	11	...........	6.65599E-002	-4.09819E-003	5.71023E-001	6.18939E-001	-2.94254E-002	-3.92978E-002	6.59040E-001	-4.35425E-002	-7.68346E-004	4.73083E-005	-6.59171E-003	-7.14483E-003	3.39678E-004	4.53641E-004	-7.60775E-003	5.02641E-004
	76	76	4.99598E-002	-1.13472E-002	0.00000E+000	-5.66903E-004	-1.11553E-001	3.99188E-002	3.36327E+001	11	...........	6.65369E-002	-4.09472E-003	5.71137E-001	6.18900E-001	-2.94049E-002	-3.93011E-002	6.58963E-001	-4.35097E-002	-7.55007E-004	4.64636E-005	-6.48080E-003	-7.02278E-003	3.33662E-004	4.45957E-004	-7.47738E-003	4.93713E-004
	77	77	4.99599E-002	-1.11957E-002	0.00000E+000	-5.59336E-004	-1.10044E-001	3.99287E-002	3.36444E+001	11	...........	6.65547E-002	-4.10681E-003	5.71124E-001	6.19016E-001	-2.94003E-002	-3.93231E-002	6.58783E-001	-4.35542E-002	-7.45126E-004	4.59785E-005	-6.39413E-003	-6.93032E-003	3.29157E-004	4.40249E-004	-7.37554E-003	4.87619E-004
	78	78	4.99605E-002	-1.10594E-002	0.00000E+000	-5.52532E-004	-1.08682E-001	3.99399E-002	3.36501E+001	11	...........	6.65928E-002	-4.11278E-003	5.71209E-001	6.18920E-001	-2.94058E-002	-3.93281E-002	6.58712E-001	-4.36096E-002	-7.36475E-004	4.54848E-005	-6.31722E-003	-6.84488E-003	3.25211E-004	4.34944E-004	-7.28495E-003	4.82295E-004
	79	79	4.99599E-002	-1.09048E-002	0.00000E+000	-5.44800E-004	-1.07150E-001	3.99539E-002	3.36429E+001	11	...........	6.65957E-002	-4.06056E-003	5.71498E-001	6.18941E-001	-2.93801E-002	-3.93429E-002	6.58744E-001	-4.35376E-002	-7.26209E-004	4.42793E-005	-6.23204E-003	-6.74940E-003	3.20383E-004	4.29025E-004	-7.18343E-003	4.74767E-004
	80	80	4.99601E-002	-1.07504E-002	0.00000E+000	-5.37091E-004	-1.05608E-001	3.99667E-002	3.36482E+001	11	...........	6.66204E-002	-4.00903E-003	5.71529E-001	6.18920E-001	-2.93781E-002	-3.93775E-002	6.58817E-001	-4.36029E-002	-7.16196E-004	4.30987E-005	-6.14417E-003	-6.65364E-003	3.15826E-004	4.23324E-004	-7.08255E-003	4.68749E-004
	81	81	4.99602E-002	-1.05947E-002	0.00000E+000	-5.29315E-004	-1.04058E-001	3.99884E-002	3.36834E+001	11	...........	6.66401E-002	-4.14569E-003	5.71575E-001	6.18781E-001	-2.94000E-002	-3.93654E-002	6.58958E-001	-4.35761E-002	-7.06036E-004	4.39226E-005	-6.05570E-003	-6.55583E-003	3.11486E-004	4.17067E-004	-6.98150E-003	4.61678E-004
	82	82	4.99601E-002	-1.04653E-002	0.00000E+000	-5.22847E-004	-1.02784E-001	3.99885E-002	3.37069E+001	11	...........	6.66592E-002	-4.15097E-003	5.71537E-001	6.18732E-001	-2.93893E-002	-3.93450E-002	6.58940E-001	-4.35662E-002	-6.97608E-004	4.34412E-005	-5.98131E-003	-6.47522E-003	3.07568E-004	4.11757E-004	-6.89601E-003	4.55934E-004
	83	83	4.99597E-002	-1.03031E-002	0.00000E+000	-5.14740E-004	-1.01210E-001	3.99937E-002	3.37358E+001	11	...........	6.66858E-002	-4.27792E-003	5.71539E-001	6.18808E-001	-2.94035E-002	-3.93347E-002	6.59008E-001	-4.35190E-002	-6.87070E-004	4.40758E-005	-5.88862E-003	-6.37564E-003	3.02947E-004	4.05269E-004	-6.78982E-003	4.48381E-004
	84	84	4.99604E-002	-1.01724E-002	0.00000E+000	-5.08215E-004	-9.99020E-002	4.00929E-002	3.36109E+001	11	...........	6.68312E-002	-4.30264E-003	5.71658E-001	6.18760E-001	-2.93965E-002	-3.93475E-002	6.58926E-001	-4.34547E-002	-6.79831E-004	4.37680E-005	-5.81511E-003	-6.29424E-003	2.99032E-004	4.00257E-004	-6.70282E-003	4.42037E-004
	85	85	4.99605E-002	-1.00296E-002	0.00000E+000	-5.01086E-004	-9.84800E-002	4.00574E-002	3.36421E+001	11	...........	6.67835E-002	-4.22472E-003	5.71723E-001	6.18696E-001	-2.93839E-002	-3.93456E-002	6.58859E-001	-4.35471E-002	-6.69814E-004	4.23725E-005	-5.73418E-003	-6.20530E-003	2.94710E-004	3.94622E-004	-6.60812E-003	4.36762E-004
	86	86	4.99607E-002	-9.91387E-003	0.00000E+000	-4.95304E-004	-9.73333E-002	4.00312E-002	3.36898E+001	11	...........	6.67290E-002	-4.16931E-003	5.71753E-001	6.18588E-001	-2.93718E-002	-3.93332E-002	6.58922E-001	-4.35542E-002	-6.61543E-004	4.13340E-005	-5.66828E-003	-6.13260E-003	2.91188E-004	3.89944E-004	-6.53247E-003	4.31791E-004
	87	87	4.99607E-002	-9.81277E-003	0.00000E+000	-4.90252E-004	-9.63230E-002	4.00468E-002	3.36360E+001	11	...........	6.67660E-002	-4.22125E-003	5.71686E-001	6.18361E-001	-2.93700E-002	-3.93297E-002	6.58840E-001	-4.34596E-002	-6.55159E-004	4.14221E-005	-5.60982E-003	-6.06783E-003	2.88201E-004	3.85933E-004	-6.46504E-003	4.26459E-004
	88	88	4.99583E-002	-9.59671E-003	0.00000E+000	-4.79436E-004	-9.41657E-002	4.00286E-002	3.29369E+001	11	...........	6.67247E-002	-4.34042E-003	5.71738E-001	6.18296E-001	-2.93558E-002	-3.93140E-002	6.58812E-001	-4.34406E-002	-6.40338E-004	4.16537E-005	-5.48680E-003	-5.93361E-003	2.81719E-004	3.77285E-004	-6.32243E-003	4.16886E-004
	89	89	4.99615E-002	-9.45663E-003	0.00000E+000	-4.72467E-004	-9.27750E-002	3.99967E-002	3.31695E+001	11	...........	6.66724E-002	-4.17847E-003	5.71711E-001	6.18471E-001	-2.93662E-002	-3.93214E-002	6.58945E-001	-4.34539E-002	-6.30496E-004	3.95142E-005	-5.40646E-003	-5.84865E-003	2.77706E-004	3.71848E-004	-6.23140E-003	4.10927E-004
	90	90	4.99616E-002	-9.47753E-003	0.00000E+000	-4.73512E-004	-9.29813E-002	4.00798E-002	3.36921E+001	11	...........	6.68139E-002	-4.26361E-003	5.71526E-001	6.18338E-001	-2.93717E-002	-3.93081E-002	6.59066E-001	-4.34858E-002	-6.33230E-004	4.04085E-005	-5.41666E-003	-5.86031E-003	2.78371E-004	3.72543E-004	-6.24632E-003	4.12138E-004
	91	91	4.99608E-002	-9.38971E-003	0.00000E+000	-4.69118E-004	-9.21073E-002	4.00888E-002	3.38002E+001	11	...........	6.68253E-002	-4.12472E-003	5.71392E-001	6.18393E-001	-2.93928E-002	-3.92821E-002	6.59120E-001	-4.35174E-002	-6.27470E-004	3.87299E-005	-5.36520E-003	-5.80653E-003	2.75990E-004	3.68847E-004	-6.18895E-003	4.08615E-004
	92	92	4.99602E-002	-9.28711E-003	0.00000E+000	-4.63986E-004	-9.10827E-002	4.01214E-002	3.37973E+001	11	...........	6.68758E-002	-4.10431E-003	5.71455E-001	6.18396E-001	-2.94035E-002	-3.92937E-002	6.59051E-001	-4.34936E-002	-6.21083E-004	3.81171E-005	-5.30717E-003	-5.74311E-003	2.73073E-004	3.64925E-004	-6.12068E-003	4.03930E-004
	93	93	4.99610E-002	-9.20257E-003	0.00000E+000	-4.59769E-004	-9.02397E-002	4.01239E-002	3.38048E+001	11	...........	6.68776E-002	-4.07222E-003	5.71520E-001	6.18527E-001	-2.93985E-002	-3.92781E-002	6.59110E-001	-4.35904E-002	-6.15446E-004	3.74749E-005	-5.25945E-003	-5.69203E-003	2.70541E-004	3.61459E-004	-6.06550E-003	4.01144E-004
	94	94	4.99605E-002	-9.09824E-003	0.00000E+000	-4.54553E-004	-8.92007E-002	4.01239E-002	3.38255E+001	11	...........	6.68743E-002	-4.07292E-003	5.71359E-001	6.18688E-001	-2.93787E-002	-3.92843E-002	6.59104E-001	-4.36535E-002	-6.08439E-004	3.70564E-005	-5.19837E-003	-5.62897E-003	2.67295E-004	3.57418E-004	-5.99669E-003	3.97170E-004
	95	95	4.99603E-002	-8.97662E-003	0.00000E+000	-4.48475E-004	-8.80120E-002	4.01910E-002	3.37045E+001	11	...........	6.69933E-002	-4.17042E-003	5.71216E-001	6.18632E-001	-2.93903E-002	-3.92869E-002	6.59052E-001	-4.34857E-002	-6.01373E-004	3.74362E-005	-5.12758E-003	-5.55322E-003	2.63825E-004	3.52664E-004	-5.91606E-003	3.90354E-004
	96	96	4.99607E-002	-8.85518E-003	0.00000E+000	-4.42411E-004	-8.68013E-002	4.01545E-002	3.37936E+001	11	...........	6.69232E-002	-4.18986E-003	5.71183E-001	6.18595E-001	-2.93843E-002	-3.92868E-002	6.59043E-001	-4.35493E-002	-5.92617E-004	3.71020E-005	-5.05793E-003	-5.47777E-003	2.60203E-004	3.47892E-004	-5.83594E-003	3.85637E-004
	97	97	4.99605E-002	-8.76393E-003	0.00000E+000	-4.37851E-004	-8.58890E-002	4.01777E-002	3.38343E+001	11	...........	6.69550E-002	-4.17903E-003	5.71141E-001	6.18594E-001	-2.93750E-002	-3.92650E-002	6.59075E-001	-4.34578E-002	-5.86789E-004	3.66247E-005	-5.00544E-003	-5.42131E-003	2.57440E-004	3.44116E-004	-5.77609E-003	3.80861E-004
	98	98	4.99605E-002	-8.64240E-003	0.00000E+000	-4.31779E-004	-8.46830E-002	4.01766E-002	3.36820E+001	11	...........	6.69660E-002	-4.04500E-003	5.71011E-001	6.18513E-001	-2.93825E-002	-3.92586E-002	6.59063E-001	-4.33676E-002	-5.78747E-004	3.49585E-005	-4.93491E-003	-5.34544E-003	2.53935E-004	3.39289E-004	-5.69589E-003	3.74800E-004
	99	99	4.99581E-002	-8.42839E-003	0.00000E+000	-4.21066E-004	-8.25513E-002	4.01152E-002	3.29924E+001	11	...........	6.68756E-002	-3.99653E-003	5.71110E-001	6.18577E-001	-2.94287E-002	-3.92594E-002	6.59192E-001	-4.32685E-002	-5.63653E-004	3.36843E-005	-4.81354E-003	-5.21361E-003	2.48037E-004	3.30894E-004	-5.55592E-003	3.64683E-004
	100	100	4.99623E-002	-8.35428E-003	0.00000E+000	-4.17399E-004	-8.18117E-002	4.01892E-002	3.37277E+001	11	...........	6.69828E-002	-4.02236E-003	5.71111E-001	6.18849E-001	-2.94340E-002	-3.92572E-002	6.59266E-001	-4.33176E-002	-5.59593E-004	3.36039E-005	-4.77122E-003	-5.17003E-003	2.45900E-004	3.27966E-004	-5.50769E-003	3.61888E-004
	101	101	4.99613E-002	-8.30950E-003	0.00000E+000	-4.15154E-004	-8.13680E-002	4.01892E-002	3.39025E+001	11	...........	6.69915E-002	-4.21139E-003	5.71079E-001	6.18905E-001	-2.94336E-002	-3.92807E-002	6.59217E-001	-4.34256E-002	-5.56666E-004	3.49945E-005	-4.74539E-003	-5.14279E-003	2.44579E-004	3.26403E-004	-5.47777E-003	3.60845E-004
	102	102	4.99609E-002	-8.22688E-003	0.00000E+000	-4.11022E-004	-8.05470E-002	4.01709E-002	3.39147E+001	11	...........	6.69721E-002	-4.23500E-003	5.71188E-001	6.18896E-001	-2.94237E-002	-3.92822E-002	6.59108E-001	-4.33754E-002	-5.50971E-004	3.48408E-005	-4.69910E-003	-5.09158E-003	2.42066E-004	3.23170E-004	-5.42241E-003	3.56844E-004
	103	103	4.99607E-002	-8.14399E-003	0.00000E+000	-4.06880E-004	-7.97160E-002	4.01887E-002	3.39638E+001	11	...........	6.70076E-002	-4.21986E-003	5.71030E-001	6.18976E-001	-2.94143E-002	-3.93364E-002	6.59053E-001	-4.35382E-002	-5.45710E-004	3.43665E-005	-4.65047E-003	-5.04094E-003	2.39550E-004	3.20355E-004	-5.36732E-003	3.54575E-004
	104	104	4.99607E-002	-8.06038E-003	0.00000E+000	-4.02702E-004	-7.88847E-002	4.02009E-002	3.39854E+001	11	...........	6.70092E-002	-4.22847E-003	5.71073E-001	6.18967E-001	-2.94164E-002	-3.93364E-002	6.59021E-001	-4.36035E-002	-5.40119E-004	3.40831E-005	-4.60307E-003	-4.98911E-003	2.37107E-004	3.17066E-004	-5.31196E-003	3.51461E-004
	105	105	4.99608E-002	-7.95496E-003	0.00000E+000	-3.97436E-004	-7.78353E-002	4.02108E-002	3.39882E+001	11	...........	6.70324E-002	-4.18194E-003	5.71064E-001	6.18986E-001	-2.94187E-002	-3.93150E-002	6.59123E-001	-4.35558E-002	-5.33240E-004	3.32672E-005	-4.54279E-003	-4.92401E-003	2.34025E-004	3.12749E-004	-5.24330E-003	3.46485E-004
	106	106	4.99602E-002	-7.85243E-003	0.00000E+000	-3.92309E-004	-7.68303E-002	4.02195E-002	3.40056E+001	11	...........	6.70389E-002	-4.22486E-003	5.70944E-001	6.19032E-001	-2.94203E-002	-3.93072E-002	6.59094E-001	-4.35499E-002	-5.26418E-004	3.31754E-005	-4.48330E-003	-4.86091E-003	2.31021E-004	3.08657E-004	-5.17548E-003	3.41972E-004
	107	107	4.99609E-002	-7.74231E-003	0.00000E+000	-3.86812E-004	-7.57463E-002	4.02314E-002	3.40267E+001	11	...........	6.70646E-002	-4.23458E-003	5.71051E-001	6.19078E-001	-2.94131E-002	-3.93219E-002	6.59146E-001	-4.35393E-002	-5.19235E-004	3.27854E-005	-4.42125E-003	-4.79309E-003	2.27725E-004	3.04443E-004	-5.10331E-003	3.37095E-004
	108	108	4.99608E-002	-7.65965E-003	0.00000E+000	-3.82682E-004	-7.49173E-002	4.02518E-002	3.40414E+001	11	...........	6.70890E-002	-4.27542E-003	5.71113E-001	6.19028E-001	-2.93743E-002	-3.93296E-002	6.59115E-001	-4.33746E-002	-5.13878E-004	3.27482E-005	-4.37453E-003	-4.74154E-003	2.24997E-004	3.01251E-004	-5.04859E-003	3.32234E-004
	109	109	4.99608E-002	-7.56046E-003	0.00000E+000	-3.77727E-004	-7.39237E-002	4.02442E-002	3.40629E+001	11	...........	6.71001E-002	-4.21444E-003	5.71050E-001	6.19073E-001	-2.93607E-002	-3.93329E-002	6.59037E-001	-4.33808E-002	-5.07308E-004	3.18631E-005	-4.31740E-003	-4.68048E-003	2.21980E-004	2.97375E-004	-4.98262E-003	3.27979E-004
	110	110	4.99607E-002	-7.46553E-003	0.00000E+000	-3.72983E-004	-7.29753E-002	4.03303E-002	3.40314E+001	11	...........	6.72251E-002	-4.29833E-003	5.71051E-001	6.18854E-001	-2.93799E-002	-3.93358E-002	6.59140E-001	-4.35022E-002	-5.01871E-004	3.20893E-005	-4.26320E-003	-4.62007E-003	2.19336E-004	2.93663E-004	-4.92082E-003	3.24767E-004
	111	111	4.99608E-002	-7.36760E-003	0.00000E+000	-3.68091E-004	-7.20023E-002	4.02111E-002	3.40761E+001	11	...........	6.70608E-002	-4.32597E-003	5.71120E-001	6.18840E-001	-2.94232E-002	-3.93318E-002	6.59135E-001	-4.34857E-002	-4.94077E-004	3.18720E-005	-4.20778E-003	-4.55936E-003	2.16778E-004	2.89781E-004	-4.85624E-003	3.20385E-004
	112	112	4.99609E-002	-7.28278E-003	0.00000E+000	-3.63854E-004	-7.11620E-002	4.02632E-002	3.41035E+001	11	...........	6.71357E-002	-4.45792E-003	5.71068E-001	6.18839E-001	-2.94221E-002	-3.93131E-002	6.59039E-001	-4.35921E-002	-4.88935E-004	3.24660E-005	-4.15897E-003	-4.50687E-003	2.14275E-004	2.86308E-004	-4.79964E-003	3.17472E-004
	113	113	4.99610E-002	-7.20750E-003	0.00000E+000	-3.60094E-004	-7.04067E-002	4.04535E-002	3.39540E+001	11	...........	6.74479E-002	-4.47014E-003	5.71291E-001	6.18767E-001	-2.93821E-002	-3.92990E-002	6.59069E-001	-4.34908E-002	-4.86131E-004	3.22185E-005	-4.11758E-003	-4.45976E-003	2.11771E-004	2.83248E-004	-4.75024E-003	3.13460E-004
	114	114	4.99604E-002	-7.11579E-003	0.00000E+000	-3.55508E-004	-6.94927E-002	4.01963E-002	3.41261E+001	11	...........	6.70069E-002	-4.46542E-003	5.71495E-001	6.18629E-001	-2.93465E-002	-3.93125E-002	6.59026E-001	-4.34106E-002	-4.76807E-004	3.17750E-005	-4.06664E-003	-4.40203E-003	2.08824E-004	2.79739E-004	-4.68949E-003	3.08900E-004
	115	115	4.99612E-002	-7.03016E-003	0.00000E+000	-3.51235E-004	-6.86440E-002	4.03007E-002	3.40994E+001	11	...........	6.71829E-002	-4.27333E-003	5.71266E-001	6.18590E-001	-2.93278E-002	-3.93119E-002	6.58997E-001	-4.34069E-002	-4.72307E-004	3.00422E-005	-4.01609E-003	-4.34878E-003	2.06179E-004	2.76369E-004	-4.63285E-003	3.05158E-004
	116	116	4.99610E-002	-6.96772E-003	0.00000E+000	-3.48114E-004	-6.80270E-002	4.02964E-002	3.41247E+001	11	...........	6.71799E-002	-4.31306E-003	5.71318E-001	6.18431E-001	-2.93011E-002	-3.93147E-002	6.59152E-001	-4.33911E-002	-4.68090E-004	3.00522E-005	-3.98079E-003	-4.30905E-003	2.04162E-004	2.73934E-004	-4.59279E-003	3.02337E-004
	117	117	4.99610E-002	-6.90366E-003	0.00000E+000	-3.44914E-004	-6.73807E-002	4.03149E-002	3.41792E+001	11	...........	6.71972E-002	-4.21792E-003	5.71373E-001	6.18331E-001	-2.92954E-002	-3.93017E-002	6.59195E-001	-4.33772E-002	-4.63907E-004	2.91190E-005	-3.94456E-003	-4.26875E-003	2.02245E-004	2.71325E-004	-4.55086E-003	2.99461E-004
	118	118	4.99606E-002	-6.81134E-003	0.00000E+000	-3.40298E-004	-6.64640E-002	4.03171E-002	3.41658E+001	11	...........	6.72060E-002	-4.25611E-003	5.71454E-001	6.18200E-001	-2.93136E-002	-3.93121E-002	6.59160E-001	-4.34653E-002	-4.57762E-004	2.89898E-005	-3.89236E-003	-4.21077E-003	1.99665E-004	2.67768E-004	-4.48976E-003	2.96057E-004
	119	119	4.99605E-002	-6.70883E-003	0.00000E+000	-3.35177E-004	-6.54410E-002	4.03162E-002	3.41647E+001	11	...........	6.72208E-002	-4.24958E-003	5.71475E-001	6.18231E-001	-2.93103E-002	-3.93044E-002	6.59013E-001	-4.35326E-002	-4.50973E-004	2.85097E-005	-3.83393E-003	-4.14761E-003	1.96638E-004	2.63687E-004	-4.42120E-003	2.92053E-004
	120	120	4.99611E-002	-6.62268E-003	0.00000E+000	-3.30876E-004	-6.45790E-002	4.03193E-002	3.41652E+001	11	...........	6.72149E-002	-4.31875E-003	5.71373E-001	6.18171E-001	-2.92787E-002	-3.93176E-002	6.59003E-001	-4.37042E-002	-4.45142E-004	2.86017E-005	-3.78402E-003	-4.09394E-003	1.93904E-004	2.60388E-004	-4.36436E-003	2.89439E-004
	121	121	4.99608E-002	-6.55084E-003	0.00000E+000	-3.27285E-004	-6.38617E-002	4.03256E-002	3.41542E+001	11	...........	6.72249E-002	-4.23139E-003	5.71347E-001	6.18096E-001	-2.92735E-002	-3.93368E-002	6.58978E-001	-4.36757E-002	-4.40379E-004	2.77191E-005	-3.74280E-003	-4.04904E-003	1.91766E-004	2.57689E-004	-4.31686E-003	2.86112E-004
	122	122	4.99608E-002	-6.46249E-003	0.00000E+000	-3.22871E-004	-6.30047E-002	4.03275E-002	3.41235E+001	11	...........	6.72454E-002	-4.23736E-003	5.71510E-001	6.18148E-001	-2.92911E-002	-3.93443E-002	6.58985E-001	-4.35533E-002	-4.34573E-004	2.73839E-005	-3.69338E-003	-3.99478E-003	1.89294E-004	2.54262E-004	-4.25869E-003	2.81463E-004
	123	123	4.99608E-002	-6.37577E-003	0.00000E+000	-3.18539E-004	-6.21457E-002	4.03289E-002	3.41240E+001	11	...........	6.72535E-002	-4.34806E-003	5.71303E-001	6.18100E-001	-2.93122E-002	-3.93631E-002	6.59082E-001	-4.36560E-002	-4.28793E-004	2.77222E-005	-3.64250E-003	-3.94086E-003	1.86888E-004	2.50970E-004	-4.20215E-003	2.78340E-004
	124	124	4.99614E-002	-6.30747E-003	0.00000E+000	-3.15130E-004	-6.14627E-002	4.03424E-002	3.41436E+001	11	...........	6.72585E-002	-4.30361E-003	5.71109E-001	6.18099E-001	-2.92950E-002	-3.93646E-002	6.59171E-001	-4.36576E-002	-4.24231E-004	2.71449E-005	-3.60225E-003	-3.89864E-003	1.84777E-004	2.48291E-004	-4.15770E-003	2.75369E-004
	125	125	4.99609E-002	-6.24021E-003	0.00000E+000	-3.11766E-004	-6.07927E-002	4.03589E-002	3.41468E+001	11	...........	6.72707E-002	-4.24750E-003	5.71192E-001	6.18104E-001	-2.92949E-002	-3.93703E-002	6.59199E-001	-4.37189E-002	-4.19783E-004	2.65053E-005	-3.56436E-003	-3.85710E-003	1.82806E-004	2.45679E-004	-4.11354E-003	2.72815E-004
	126	126	4.99609E-002	-6.16302E-003	0.00000E+000	-3.07910E-004	-6.00217E-002	4.03644E-002	3.41470E+001	11	...........	6.72731E-002	-4.34431E-003	5.70978E-001	6.18108E-001	-2.93176E-002	-3.93621E-002	6.59077E-001	-4.35714E-002	-4.14605E-004	2.67740E-005	-3.51895E-003	-3.80941E-003	1.80685E-004	2.42589E-004	-4.06190E-003	2.68531E-004
	127	127	4.99611E-002	-6.09211E-003	0.00000E+000	-3.04369E-004	-5.93173E-002	4.03637E-002	3.41577E+001	11	...........	6.73006E-002	-4.28389E-003	5.70817E-001	6.18217E-001	-2.93182E-002	-3.93581E-002	6.59029E-001	-4.36615E-002	-4.10003E-004	2.60979E-005	-3.47748E-003	-3.76625E-003	1.78610E-004	2.39774E-004	-4.01488E-003	2.65991E-004
	128	128	4.99608E-002	-6.02902E-003	0.00000E+000	-3.01214E-004	-5.86857E-002	4.03646E-002	3.41542E+001	11	...........	6.73051E-002	-4.21625E-003	5.70826E-001	6.18259E-001	-2.93072E-002	-3.93783E-002	6.59065E-001	-4.36607E-002	-4.05784E-004	2.54198E-005	-3.44152E-003	-3.72750E-003	1.76694E-004	2.37413E-004	-3.97351E-003	2.63231E-004
	129	129	4.99612E-002	-5.95850E-003	0.00000E+000	-2.97694E-004	-5.79830E-002	4.03697E-002	3.41300E+001	11	...........	6.73097E-002	-4.07458E-003	5.70752E-001	6.18214E-001	-2.93329E-002	-3.93865E-002	6.59076E-001	-4.36229E-002	-4.01065E-004	2.42784E-005	-3.40082E-003	-3.68362E-003	1.74780E-004	2.34684E-004	-3.92710E-003	2.59927E-004
	130	130	4.99611E-002	-5.89350E-003	0.00000E+000	-2.94446E-004	-5.73347E-002	4.03765E-002	3.41393E+001	11	...........	6.73229E-002	-4.12722E-003	5.70790E-001	6.18202E-001	-2.93589E-002	-3.93965E-002	6.59256E-001	-4.34558E-002	-3.96768E-004	2.43238E-005	-3.36395E-003	-3.64337E-003	1.73027E-004	2.32184E-004	-3.88533E-003	2.56107E-004
	131	131	4.99609E-002	-5.82855E-003	0.00000E+000	-2.91199E-004	-5.66900E-002	4.03877E-002	3.41266E+001	11	...........	6.73275E-002	-4.21833E-003	5.70685E-001	6.18184E-001	-2.93831E-002	-3.93731E-002	6.59238E-001	-4.34212E-002	-3.92422E-004	2.45868E-005	-3.32626E-003	-3.60311E-003	1.71261E-004	2.29488E-004	-3.84240E-003	2.53083E-004
	132	132	4.99614E-002	-5.76205E-003	0.00000E+000	-2.87880E-004	-5.60300E-002	4.03983E-002	3.41303E+001	11	...........	6.73519E-002	-4.11319E-003	5.70722E-001	6.18157E-001	-2.93864E-002	-3.93889E-002	6.59205E-001	-4.35579E-002	-3.88085E-004	2.37004E-005	-3.28853E-003	-3.56185E-003	1.69326E-004	2.26961E-004	-3.79838E-003	2.50983E-004
	133	133	4.99612E-002	-5.70653E-003	0.00000E+000	-2.85105E-004	-5.54787E-002	4.04111E-002	3.41465E+001	11	...........	6.73650E-002	-4.28847E-003	5.70669E-001	6.18176E-001	-2.94012E-002	-3.93365E-002	6.59183E-001	-4.36992E-002	-3.84421E-004	2.44723E-005	-3.25654E-003	-3.52764E-003	1.67779E-004	2.24475E-004	-3.76165E-003	2.49371E-004
	134	134	4.99609E-002	-5.63936E-003	0.00000E+000	-2.81747E-004	-5.48073E-002	4.02781E-002	3.41324E+001	11	...........	6.73700E-002	-4.18208E-003	5.70672E-001	6.18203E-001	-2.93431E-002	-3.93296E-002	6.59174E-001	-4.35514E-002	-3.79924E-004	2.35843E-005	-3.21823E-003	-3.48627E-003	1.65476E-004	2.21794E-004	-3.71732E-003	2.45602E-004
	135	135	4.99613E-002	-5.57613E-003	0.00000E+000	-2.78590E-004	-5.41787E-002	4.04280E-002	3.41256E+001	11	...........	6.73929E-002	-4.05042E-003	5.70772E-001	6.18212E-001	-2.93656E-002	-3.93442E-002	6.59192E-001	-4.35561E-002	-3.75792E-004	2.25856E-005	-3.18270E-003	-3.44723E-003	1.63746E-004	2.19388E-004	-3.67574E-003	2.42875E-004
	136	136	4.99614E-002	-5.52596E-003	0.00000E+000	-2.76085E-004	-5.36817E-002	4.04314E-002	3.41659E+001	11	...........	6.73904E-002	-4.18667E-003	5.70778E-001	6.18227E-001	-2.93946E-002	-3.93417E-002	6.59225E-001	-4.36571E-002	-3.72397E-004	2.31353E-005	-3.15410E-003	-3.41629E-003	1.62433E-004	2.17400E-004	-3.64285E-003	2.41247E-004
	137	137	4.99609E-002	-5.46693E-003	0.00000E+000	-2.73133E-004	-5.30910E-002	4.04295E-002	3.41507E+001	11	...........	6.73964E-002	-4.28625E-003	5.70863E-001	6.18127E-001	-2.93869E-002	-3.93201E-002	6.59237E-001	-4.37467E-002	-3.68451E-004	2.34326E-005	-3.12087E-003	-3.37926E-003	1.60656E-004	2.14960E-004	-3.60400E-003	2.39160E-004
	138	138	4.99611E-002	-5.40778E-003	0.00000E+000	-2.70179E-004	-5.25043E-002	4.04314E-002	3.41540E+001	11	...........	6.74008E-002	-4.33958E-003	5.70941E-001	6.18072E-001	-2.93628E-002	-3.93137E-002	6.59268E-001	-4.38506E-002	-3.64489E-004	2.34675E-005	-3.08752E-003	-3.34240E-003	1.58788E-004	2.12600E-004	-3.56518E-003	2.37134E-004
	139	139	4.99612E-002	-5.34431E-003	0.00000E+000	-2.67008E-004	-5.18733E-002	4.04427E-002	3.41440E+001	11	...........	6.74201E-002	-4.27194E-003	5.70911E-001	6.18077E-001	-2.93806E-002	-3.93172E-002	6.59311E-001	-4.36961E-002	-3.60314E-004	2.28306E-005	-3.05113E-003	-3.30319E-003	1.57019E-004	2.10124E-004	-3.52356E-003	2.33526E-004
	140	140	4.99611E-002	-5.29239E-003	0.00000E+000	-2.64414E-004	-5.13567E-002	4.04404E-002	3.41399E+001	11	...........	6.74286E-002	-4.23778E-003	5.70915E-001	6.18152E-001	-2.94122E-002	-3.93379E-002	6.59319E-001	-4.35494E-002	-3.56858E-004	2.24280E-005	-3.02150E-003	-3.27150E-003	1.55661E-004	2.08191E-004	-3.48937E-003	2.30480E-004
	141	141	4.99614E-002	-5.23105E-003	0.00000E+000	-2.61350E-004	-5.07607E-002	4.04487E-002	3.41541E+001	11	...........	6.74275E-002	-4.35778E-003	5.70977E-001	6.18181E-001	-2.93785E-002	-3.93218E-002	6.59323E-001	-4.33994E-002	-3.52716E-004	2.27957E-005	-2.98681E-003	-3.23373E-003	1.53680E-004	2.05694E-004	-3.44895E-003	2.27025E-004
	142	142	4.99612E-002	-5.18203E-003	0.00000E+000	-2.58900E-004	-5.02773E-002	4.04515E-002	3.41588E+001	11	...........	6.74453E-002	-4.36486E-003	5.71076E-001	6.18140E-001	-2.94262E-002	-3.93415E-002	6.59257E-001	-4.35258E-002	-3.49503E-004	2.26188E-005	-2.95933E-003	-3.20322E-003	1.52488E-004	2.03869E-004	-3.41629E-003	2.25552E-004
	143	143	4.99610E-002	-5.12270E-003	0.00000E+000	-2.55935E-004	-4.96853E-002	4.05526E-002	3.39670E+001	11	...........	6.75953E-002	-4.28236E-003	5.71141E-001	6.18082E-001	-2.94194E-002	-3.93658E-002	6.59237E-001	-4.36486E-002	-3.46270E-004	2.19372E-005	-2.92578E-003	-3.16624E-003	1.50707E-004	2.01659E-004	-3.37707E-003	2.23599E-004
	144	144	4.99615E-002	-5.07030E-003	0.00000E+000	-2.53320E-004	-4.91587E-002	4.04627E-002	3.40631E+001	11	...........	6.74456E-002	-4.22819E-003	5.71077E-001	6.18254E-001	-2.93944E-002	-3.93465E-002	6.59354E-001	-4.35804E-002	-3.41969E-004	2.14382E-005	-2.89553E-003	-3.13474E-003	1.49039E-004	1.99499E-004	-3.34312E-003	2.20966E-004
	145	144.48	4.99611E-002	-5.03989E-003	0.00000E+000	-2.51799E-004	-4.88618E-002	4.04727E-002	3.40578E+001	11	...........	6.74644E-002	-4.28356E-003	5.71142E-001	6.18288E-001	-2.93328E-002	-3.93519E-002	6.59231E-001	-4.35341E-002	-3.40013E-004	2.15887E-005	-2.87849E-003	-3.11610E-003	1.47834E-004	1.98329E-004	-3.32245E-003	2.19407E-004
STARTTIMEOFFSET	QUANT	524575.4	Start Time Offset (s)
