EXPLAIN
TAG	PWR800_DISCHARGE
TITLE	LABEL	PWR Discharge	Test Identifier
DATE	LABEL	10/18/2022	Date
TIME	LABEL	6:53:18	Time
NOTES	NOTES	1	Notes...
	
PSTAT	PSTAT	REF3000-21114	Potentiostat
CAPACITY	QUANT	5.30000E-002	Capacity (A-hr)
CELLTYPE	SELECTOR	1	Cell Type
WORKINGCONNECTION	SELECTOR	0	Working Connection
MAXDISCHARGETIME	VARIABLEANDUNITS	7.20000E+003	s	2.00000E+000	hour(s)	Max Discharge Time
DISCHARGEMODE	MULTIPARAM	0	1.00000E-001	Discharge Mode	Constant Current	Amp(s)
VOLTAGEFINISH	TWOPARAM	T	5.00000E-003	7.20000E+003	Voltage Finish	I (A) <	Max Time(s)
SAMPLETIME	QUANT	1.00000E+000	Sample Period (s)
DISCHARGESTOPAT1	MULTIPARAM	1	5.00000E-002	Stop At 1	|Voltage| < Limit	V
DISCHARGESTOPAT2	MULTIPARAM	0	0.00000E+000	Stop At 2	None	N/A
AESELECTOR	AESELECTOR	0x1	T	Set Limits	AE Channels
AESBHCSELECTOR	TOGGLE	F	Save Both Half Cells
IRCOMP	TOGGLE	F	IR Measure
EOC	QUANT	0.5081456	Open Circuit (V)
SEQUENCER	TOGGLE	TRUE	Run as Sequence
PSTATMODEL	IQUANT	5	Pstat Model
PSTATSECTION	LABEL	REF3000-21114	Pstat Section
PSTATSERIALNO	LABEL	21114	Pstat Serial Number
CTRLMODE	IQUANT	0	Control Mode
ELECTROMETER	IQUANT	0	RE=0 or CS=1
IESTAB	IQUANT	0	I/E Stability
CASPEED	IQUANT	4	Control Amp Speed
CONVENTION	IQUANT	1	Current Convention
ICHRANGE	IQUANT	2	Ich Range
ICHRANGEMODE	TOGGLE	T	Ich Auto Range
ICHOFFSETENABLE	TOGGLE	F	Ich Offset Enable
ICHOFFSET	QUANT	0	Ich Offset (V)
ICHFILTER	IQUANT	1	Ich Filter
VCHRANGE	IQUANT	3	Vch Range
VCHRANGEMODE	TOGGLE	T	Vch Auto Range
VCHOFFSETENABLE	TOGGLE	F	Vch Offset Enable
VCHOFFSET	QUANT	0	Vch Offset (V)
VCHFILTER	IQUANT	1	Vch Filter
ACHRANGE	IQUANT	2	Ach Range
ACHOFFSETENABLE	TOGGLE	F	Ach Offset Enable
ACHOFFSET	QUANT	0	Ach Offset (V)
ACHFILTER	IQUANT	1	Ach Filter
IERANGELOWERLIMIT	IQUANT	9	I/E Range Lower Limit
IERANGEMODE	TOGGLE	F	I/E AutoRange
IERANGE	IQUANT	9	I/E Range
POSFEEDENABLE	TOGGLE	F	Positive Feedback IR Comp
POSFEEDRESISTANCE	QUANT	0	Positive Feedback Resistance (ohm)
ACHSELECT	IQUANT	1	Ach Select
SENSECABLEID	IQUANT	13	Sense Cable ID
PWRCABLEID	IQUANT	13	Power Cable ID
DCCALDATE	LABEL		DC Calibration Date
ACCALDATE	LABEL		AC Calibration Date
THERMOSELECT	IQUANT	1	Thermo Select
FRAMEWORKVERSION	LABEL	7.8.6	Framework Version
INSTRUMENTVERSION	LABEL	4.50	Instrument Version
COMPLIANCEVOLTAGE	IQUANT	0	Compliance Voltage
CURVE	TABLE	46
	Pt	T	Vf	Im	Vu	Pwr	Sig	Ach	Temp	IERange	Over	Vf1	Vf2	Vf3	Vf4	Vf5	Vf6	Vf7	Vf8	Pwr1	Pwr2	Pwr3	Pwr4	Pwr5	Pwr6	Pwr7	Pwr8
	#	s	V	A	V	W	V	V	deg C	#	bits	V	V	V	V	V	V	V	V	W	W	W	W	W	W	W	W
	0	1	2.63486E-001	-1.00095E-001	0.00000E+000	-2.63736E-002	-9.94000E-001	3.49338E-002	2.87444E+001	11	...........	5.81815E-002	-5.19986E-003	6.04953E-001	5.30796E-001	-2.67683E-002	-3.80567E-002	7.03601E-001	-4.39051E-002	-5.82367E-003	5.20480E-004	-6.05527E-002	-5.31300E-002	2.67937E-003	3.80928E-003	-7.04269E-002	4.39468E-003
	1	2	1.62879E-001	-1.00095E-001	0.00000E+000	-1.63035E-002	-9.94000E-001	3.49228E-002	2.80469E+001	11	...........	5.82186E-002	-5.19208E-003	6.05017E-001	5.30898E-001	-2.67497E-002	-3.80457E-002	7.03596E-001	-4.38975E-002	-5.82741E-003	5.19703E-004	-6.05594E-002	-5.31404E-002	2.67752E-003	3.80820E-003	-7.04267E-002	4.39394E-003
	2	2.775	8.34198E-002	-1.00095E-001	0.00000E+000	-8.34992E-003	-9.94000E-001	3.48500E-002	2.73108E+001	11	...........	5.81099E-002	-5.22832E-003	6.05068E-001	5.30829E-001	-2.67310E-002	-3.80505E-002	7.03498E-001	-4.38790E-002	-5.81652E-003	5.23329E-004	-6.05643E-002	-5.31334E-002	2.67564E-003	3.80868E-003	-7.04167E-002	4.39208E-003
	3	3	4.91392E-002	-9.34464E-002	0.00000E+000	-4.59189E-003	-9.27914E-001	3.48726E-002	2.69952E+001	11	...........	5.81809E-002	-5.25988E-003	6.05168E-001	5.30837E-001	-2.68599E-002	-3.80025E-002	7.03619E-001	-4.38765E-002	-5.43679E-003	4.91517E-004	-5.65508E-002	-4.96048E-002	2.50996E-003	3.55119E-003	-6.57507E-002	4.10011E-003
	4	4	4.94415E-002	-6.89845E-002	0.00000E+000	-3.41069E-003	-6.84715E-001	3.50682E-002	2.75639E+001	11	...........	5.83718E-002	-5.26028E-003	6.05147E-001	5.30842E-001	-2.67487E-002	-3.80639E-002	7.03646E-001	-4.39229E-002	-4.02675E-003	3.62877E-004	-4.17458E-002	-3.66199E-002	1.84525E-003	2.62582E-003	-4.85406E-002	3.03000E-003
	5	5	4.96863E-002	-4.59091E-002	0.00000E+000	-2.28105E-003	-4.55311E-001	3.51254E-002	2.93736E+001	11	...........	5.84439E-002	-5.26625E-003	6.05163E-001	5.30882E-001	-2.67581E-002	-3.80711E-002	7.03683E-001	-4.39682E-002	-2.68311E-003	2.41769E-004	-2.77825E-002	-2.43723E-002	1.22844E-003	1.74781E-003	-3.23055E-002	2.01854E-003
	6	6	4.97742E-002	-3.34782E-002	0.00000E+000	-1.66635E-003	-3.31719E-001	3.51761E-002	2.97124E+001	11	...........	5.85033E-002	-5.29486E-003	6.05166E-001	5.31074E-001	-2.67624E-002	-3.80657E-002	7.03643E-001	-4.38765E-002	-1.95859E-003	1.77263E-004	-2.02599E-002	-1.77794E-002	8.95956E-004	1.27437E-003	-2.35567E-002	1.46891E-003
	7	7	4.98195E-002	-2.59238E-002	0.00000E+000	-1.29151E-003	-2.56609E-001	3.52317E-002	3.01789E+001	11	...........	5.85790E-002	-5.31639E-003	6.05073E-001	5.30960E-001	-2.67554E-002	-3.80668E-002	7.03586E-001	-4.37957E-002	-1.51859E-003	1.37821E-004	-1.56858E-002	-1.37645E-002	6.93602E-004	9.86836E-004	-1.82396E-002	1.13535E-003
	8	8	4.98507E-002	-2.09595E-002	0.00000E+000	-1.04485E-003	-2.07247E-001	3.52509E-002	3.06707E+001	11	...........	5.85971E-002	-5.33556E-003	6.05009E-001	5.30965E-001	-2.67654E-002	-3.80200E-002	7.03607E-001	-4.37258E-002	-1.22816E-003	1.11831E-004	-1.26807E-002	-1.11287E-002	5.60989E-004	7.96880E-004	-1.47472E-002	9.16471E-004
	9	9	4.98655E-002	-1.75754E-002	0.00000E+000	-8.76403E-004	-1.73601E-001	3.52384E-002	3.04995E+001	11	...........	5.85853E-002	-5.26167E-003	6.04893E-001	5.30891E-001	-2.67664E-002	-3.80161E-002	7.03606E-001	-4.37010E-002	-1.02966E-003	9.24757E-005	-1.06312E-002	-9.33061E-003	4.70429E-004	6.68147E-004	-1.23661E-002	7.68060E-004
	10	10	4.98769E-002	-1.52410E-002	0.00000E+000	-7.60176E-004	-1.50380E-001	3.52537E-002	3.10035E+001	11	...........	5.86117E-002	-5.26931E-003	6.04834E-001	5.30768E-001	-2.67537E-002	-3.80065E-002	7.03518E-001	-4.37279E-002	-8.93302E-004	8.03097E-005	-9.21830E-003	-8.08945E-003	4.07755E-004	5.79259E-004	-1.07223E-002	6.66459E-004
	11	11	4.98858E-002	-1.35341E-002	0.00000E+000	-6.75157E-004	-1.33413E-001	3.52927E-002	3.15386E+001	11	...........	5.86668E-002	-5.30597E-003	6.04841E-001	5.30763E-001	-2.67321E-002	-3.79949E-002	7.03487E-001	-4.38164E-002	-7.94000E-004	7.18113E-005	-8.18595E-003	-7.18338E-003	3.61793E-004	5.14225E-004	-9.52104E-003	5.93013E-004
	12	12	4.98894E-002	-1.22509E-002	0.00000E+000	-6.11189E-004	-1.20637E-001	3.53004E-002	3.12544E+001	11	...........	5.86658E-002	-5.30319E-003	6.04897E-001	5.30704E-001	-2.67303E-002	-3.80019E-002	7.03497E-001	-4.37842E-002	-7.18708E-004	6.49688E-005	-7.41052E-003	-6.50159E-003	3.27469E-004	4.65557E-004	-8.61846E-003	5.36394E-004
	13	13	4.98925E-002	-1.12349E-002	0.00000E+000	-5.60538E-004	-1.10552E-001	3.53392E-002	3.09895E+001	11	...........	5.86975E-002	-5.26792E-003	6.04876E-001	5.30691E-001	-2.67217E-002	-3.80135E-002	7.03534E-001	-4.38658E-002	-6.59462E-004	5.91846E-005	-6.79574E-003	-5.96227E-003	3.00216E-004	4.27078E-004	-7.90415E-003	4.92829E-004
	14	14	4.98987E-002	-1.04799E-002	0.00000E+000	-5.22935E-004	-1.03056E-001	3.53471E-002	3.17419E+001	11	...........	5.87196E-002	-5.26472E-003	6.05043E-001	5.30680E-001	-2.67353E-002	-3.80215E-002	7.03548E-001	-4.38881E-002	-6.15377E-004	5.51739E-005	-6.34080E-003	-5.56148E-003	2.80184E-004	3.98463E-004	-7.37312E-003	4.59943E-004
	15	15	4.98971E-002	-9.84537E-003	0.00000E+000	-4.91255E-004	-9.67507E-002	3.53085E-002	3.15964E+001	11	...........	5.86893E-002	-5.26486E-003	6.05205E-001	5.30710E-001	-2.67404E-002	-3.80400E-002	7.03534E-001	-4.39222E-002	-5.77818E-004	5.18345E-005	-5.95847E-003	-5.22504E-003	2.63269E-004	3.74518E-004	-6.92656E-003	4.32431E-004
	16	16	4.98988E-002	-9.33912E-003	0.00000E+000	-4.66011E-004	-9.17003E-002	3.53517E-002	3.15491E+001	11	...........	5.87306E-002	-5.20889E-003	6.05250E-001	5.30764E-001	-2.67471E-002	-3.80276E-002	7.03576E-001	-4.38899E-002	-5.48492E-004	4.86464E-005	-5.65251E-003	-4.95687E-003	2.49794E-004	3.55145E-004	-6.57078E-003	4.09893E-004
	17	17	4.99004E-002	-8.85051E-003	0.00000E+000	-4.41644E-004	-8.68733E-002	3.53175E-002	3.17614E+001	11	...........	5.86996E-002	-5.22125E-003	6.05285E-001	5.30731E-001	-2.67656E-002	-3.80272E-002	7.03601E-001	-4.38411E-002	-5.19521E-004	4.62107E-005	-5.35708E-003	-4.69724E-003	2.36889E-004	3.36560E-004	-6.22722E-003	3.88016E-004
	18	18	4.99009E-002	-8.52282E-003	0.00000E+000	-4.25297E-004	-8.36077E-002	3.53290E-002	3.13359E+001	11	...........	5.87058E-002	-5.26764E-003	6.05239E-001	5.30747E-001	-2.67596E-002	-3.80464E-002	7.03516E-001	-4.39214E-002	-5.00339E-004	4.48952E-005	-5.15834E-003	-4.52347E-003	2.28067E-004	3.24263E-004	-5.99595E-003	3.74334E-004
	19	19	4.99008E-002	-8.22610E-003	0.00000E+000	-4.10489E-004	-8.06517E-002	3.53975E-002	3.15586E+001	11	...........	5.87876E-002	-5.29250E-003	6.05132E-001	5.30787E-001	-2.67539E-002	-3.80404E-002	7.03699E-001	-4.38571E-002	-4.83593E-004	4.35366E-005	-4.97787E-003	-4.36630E-003	2.20080E-004	3.12924E-004	-5.78870E-003	3.60773E-004
	20	20	4.99027E-002	-7.95196E-003	0.00000E+000	-3.96824E-004	-7.79157E-002	3.52843E-002	3.18839E+001	11	...........	5.87603E-002	-5.29431E-003	6.05289E-001	5.30809E-001	-2.67065E-002	-3.80464E-002	7.03761E-001	-4.38704E-002	-4.67259E-004	4.21001E-005	-4.81323E-003	-4.22097E-003	2.12369E-004	3.02543E-004	-5.59628E-003	3.48856E-004
	21	21	4.99020E-002	-7.71793E-003	0.00000E+000	-3.85140E-004	-7.56080E-002	3.52724E-002	3.20056E+001	11	...........	5.88040E-002	-5.34069E-003	6.05379E-001	5.30865E-001	-2.67283E-002	-3.80657E-002	7.03772E-001	-4.38442E-002	-4.53845E-004	4.12191E-005	-4.67227E-003	-4.09718E-003	2.06287E-004	2.93788E-004	-5.43167E-003	3.38386E-004
	22	22	4.99023E-002	-7.50057E-003	0.00000E+000	-3.74296E-004	-7.34323E-002	3.52787E-002	3.16152E+001	11	...........	5.88061E-002	-5.30792E-003	6.05401E-001	5.30958E-001	-2.67718E-002	-3.81139E-002	7.03763E-001	-4.39406E-002	-4.41079E-004	3.98124E-005	-4.54085E-003	-3.98249E-003	2.00804E-004	2.85876E-004	-5.27862E-003	3.29579E-004
	23	23	4.99038E-002	-7.33897E-003	0.00000E+000	-3.66243E-004	-7.18250E-002	3.52812E-002	3.21703E+001	11	...........	5.88192E-002	-5.24681E-003	6.05363E-001	5.30915E-001	-2.68189E-002	-3.80899E-002	7.03596E-001	-4.40296E-002	-4.31672E-004	3.85061E-005	-4.44274E-003	-3.89637E-003	1.96823E-004	2.79540E-004	-5.16367E-003	3.23132E-004
	24	24	4.99036E-002	-7.15964E-003	0.00000E+000	-3.57292E-004	-7.00340E-002	3.52839E-002	3.22026E+001	11	...........	5.88303E-002	-5.29153E-003	6.05363E-001	5.30900E-001	-2.67458E-002	-3.80799E-002	7.03775E-001	-4.39389E-002	-4.21204E-004	3.78854E-005	-4.33418E-003	-3.80105E-003	1.91491E-004	2.72638E-004	-5.03878E-003	3.14587E-004
	25	25	4.99026E-002	-6.96274E-003	0.00000E+000	-3.47459E-004	-6.80660E-002	3.52637E-002	3.19001E+001	11	...........	5.87944E-002	-5.24472E-003	6.05299E-001	5.30888E-001	-2.67472E-002	-3.80792E-002	7.03789E-001	-4.40349E-002	-4.09371E-004	3.65176E-005	-4.21454E-003	-3.69644E-003	1.86234E-004	2.65135E-004	-4.90030E-003	3.06603E-004
	26	26	4.99036E-002	-6.82411E-003	0.00000E+000	-3.40548E-004	-6.66810E-002	3.52818E-002	3.21410E+001	11	...........	5.88194E-002	-5.24528E-003	6.05225E-001	5.30922E-001	-2.67660E-002	-3.80618E-002	7.03747E-001	-4.39097E-002	-4.01391E-004	3.57944E-005	-4.13012E-003	-3.62307E-003	1.82654E-004	2.59738E-004	-4.80245E-003	2.99645E-004
	27	27	4.99039E-002	-6.71253E-003	0.00000E+000	-3.34982E-004	-6.55637E-002	3.53787E-002	3.24325E+001	11	...........	5.90211E-002	-5.25472E-003	6.05149E-001	5.30963E-001	-2.67189E-002	-3.80642E-002	7.03726E-001	-4.38519E-002	-3.96181E-004	3.52725E-005	-4.06208E-003	-3.56410E-003	1.79351E-004	2.55507E-004	-4.72378E-003	2.94358E-004
	28	28	4.99038E-002	-6.56339E-003	0.00000E+000	-3.27538E-004	-6.40533E-002	3.53053E-002	3.20912E+001	11	...........	5.88653E-002	-5.30069E-003	6.05249E-001	5.30841E-001	-2.67464E-002	-3.81001E-002	7.03769E-001	-4.38810E-002	-3.86356E-004	3.47905E-005	-3.97248E-003	-3.48412E-003	1.75547E-004	2.50066E-004	-4.61910E-003	2.88008E-004
	29	29	4.99049E-002	-6.43246E-003	0.00000E+000	-3.21011E-004	-6.28147E-002	3.52734E-002	3.21551E+001	11	...........	5.88040E-002	-5.26139E-003	6.05364E-001	5.30719E-001	-2.67608E-002	-3.80644E-002	7.03836E-001	-4.39600E-002	-3.78255E-004	3.38437E-005	-3.89398E-003	-3.41383E-003	1.72138E-004	2.44848E-004	-4.52740E-003	2.82771E-004
	30	30	4.99031E-002	-6.34202E-003	0.00000E+000	-3.16486E-004	-6.19243E-002	3.54052E-002	3.24696E+001	11	...........	5.90542E-002	-5.26458E-003	6.05444E-001	5.30663E-001	-2.67189E-002	-3.80569E-002	7.03966E-001	-4.39540E-002	-3.74523E-004	3.33881E-005	-3.83974E-003	-3.36548E-003	1.69452E-004	2.41358E-004	-4.46456E-003	2.78757E-004
	31	31	4.99043E-002	-6.20946E-003	0.00000E+000	-3.09879E-004	-6.06017E-002	3.52862E-002	3.22232E+001	11	...........	5.88350E-002	-5.27556E-003	6.05468E-001	5.30687E-001	-2.67397E-002	-3.80254E-002	7.03961E-001	-4.39149E-002	-3.65333E-004	3.27583E-005	-3.75962E-003	-3.29528E-003	1.66039E-004	2.36117E-004	-4.37121E-003	2.72687E-004
	32	32	4.99047E-002	-6.11087E-003	0.00000E+000	-3.04961E-004	-5.96153E-002	3.53788E-002	3.27563E+001	11	...........	5.90046E-002	-5.15458E-003	6.05538E-001	5.30708E-001	-2.67379E-002	-3.80497E-002	7.03930E-001	-4.39326E-002	-3.60569E-004	3.14990E-005	-3.70036E-003	-3.24309E-003	1.63392E-004	2.32517E-004	-4.30162E-003	2.68466E-004
	33	33	4.99037E-002	-6.01328E-003	0.00000E+000	-3.00085E-004	-5.86470E-002	3.53431E-002	3.27193E+001	11	...........	5.89415E-002	-5.22639E-003	6.05491E-001	5.30711E-001	-2.67117E-002	-3.80494E-002	7.04000E-001	-4.39403E-002	-3.54432E-004	3.14277E-005	-3.64099E-003	-3.19131E-003	1.60625E-004	2.28802E-004	-4.23335E-003	2.64225E-004
	34	34	4.99043E-002	-5.87814E-003	0.00000E+000	-2.93344E-004	-5.73003E-002	3.53151E-002	3.20198E+001	11	...........	5.88907E-002	-5.21500E-003	6.05664E-001	5.30687E-001	-2.67564E-002	-3.80467E-002	7.03999E-001	-4.39964E-002	-3.46168E-004	3.06545E-005	-3.56018E-003	-3.11945E-003	1.57278E-004	2.23644E-004	-4.13820E-003	2.58617E-004
	35	35	4.99043E-002	-5.79322E-003	0.00000E+000	-2.89106E-004	-5.64453E-002	3.53157E-002	3.22308E+001	11	...........	5.88990E-002	-5.24958E-003	6.05644E-001	5.30789E-001	-2.67331E-002	-3.80451E-002	7.03917E-001	-4.39887E-002	-3.41215E-004	3.04120E-005	-3.50863E-003	-3.07497E-003	1.54870E-004	2.20404E-004	-4.07794E-003	2.54836E-004
	36	36	4.99050E-002	-5.73371E-003	0.00000E+000	-2.86141E-004	-5.58663E-002	3.54185E-002	3.24524E+001	11	...........	5.90824E-002	-5.27764E-003	6.05486E-001	5.30931E-001	-2.67192E-002	-3.80303E-002	7.03894E-001	-4.39032E-002	-3.38761E-004	3.02605E-005	-3.47168E-003	-3.04420E-003	1.53200E-004	2.18055E-004	-4.03593E-003	2.51728E-004
	37	37	4.99041E-002	-5.64828E-003	0.00000E+000	-2.81872E-004	-5.50093E-002	3.54342E-002	3.24352E+001	11	...........	5.90908E-002	-5.24750E-003	6.05491E-001	5.31070E-001	-2.67492E-002	-3.80340E-002	7.03880E-001	-4.39587E-002	-3.33762E-004	2.96394E-005	-3.41998E-003	-2.99963E-003	1.51087E-004	2.14827E-004	-3.97571E-003	2.48291E-004
	38	38	4.99048E-002	-5.56234E-003	0.00000E+000	-2.77588E-004	-5.41600E-002	3.53889E-002	3.27772E+001	11	...........	5.90392E-002	-5.19153E-003	6.05506E-001	5.31041E-001	-2.67351E-002	-3.80651E-002	7.03763E-001	-4.39543E-002	-3.28396E-004	2.88770E-005	-3.36803E-003	-2.95383E-003	1.48710E-004	2.11731E-004	-3.91457E-003	2.44489E-004
	39	39	4.99033E-002	-5.46383E-003	0.00000E+000	-2.72663E-004	-5.31707E-002	3.53344E-002	3.22610E+001	11	...........	5.89156E-002	-5.17875E-003	6.05625E-001	5.31023E-001	-2.67560E-002	-3.80765E-002	7.03813E-001	-4.39317E-002	-3.21904E-004	2.82958E-005	-3.30903E-003	-2.90141E-003	1.46190E-004	2.08044E-004	-3.84551E-003	2.40035E-004
	40	40	4.99053E-002	-5.38232E-003	0.00000E+000	-2.68606E-004	-5.23707E-002	3.53993E-002	3.20735E+001	11	...........	5.90300E-002	-5.17486E-003	6.05566E-001	5.30852E-001	-2.67737E-002	-3.80767E-002	7.03915E-001	-4.39403E-002	-3.17718E-004	2.78528E-005	-3.25935E-003	-2.85722E-003	1.44105E-004	2.04941E-004	-3.78869E-003	2.36501E-004
	41	41	4.99052E-002	-5.34049E-003	0.00000E+000	-2.66518E-004	-5.19460E-002	3.53338E-002	3.29907E+001	11	...........	5.91375E-002	-5.11042E-003	6.05617E-001	5.30895E-001	-2.67524E-002	-3.80601E-002	7.03948E-001	-4.39247E-002	-3.15823E-004	2.72921E-005	-3.23429E-003	-2.83524E-003	1.42871E-004	2.03260E-004	-3.75942E-003	2.34579E-004
	42	42	4.99040E-002	-5.26493E-003	0.00000E+000	-2.62741E-004	-5.11967E-002	3.53815E-002	3.24590E+001	11	...........	5.90183E-002	-5.20125E-003	6.05717E-001	5.30971E-001	-2.67260E-002	-3.80443E-002	7.04026E-001	-4.39026E-002	-3.10727E-004	2.73842E-005	-3.18906E-003	-2.79552E-003	1.40710E-004	2.00300E-004	-3.70664E-003	2.31144E-004
	43	43	4.99048E-002	-5.17614E-003	0.00000E+000	-2.58314E-004	-5.03230E-002	3.54397E-002	3.26170E+001	11	...........	5.91131E-002	-5.22194E-003	6.05641E-001	5.30901E-001	-2.67521E-002	-3.80356E-002	7.03911E-001	-4.39814E-002	-3.05977E-004	2.70295E-005	-3.13488E-003	-2.74802E-003	1.38472E-004	1.96877E-004	-3.64354E-003	2.27654E-004
	44	44	4.99047E-002	-5.10419E-003	0.00000E+000	-2.54723E-004	-4.96043E-002	3.54273E-002	3.27272E+001	11	...........	5.91015E-002	-5.22458E-003	6.05456E-001	5.30820E-001	-2.67283E-002	-3.80656E-002	7.03885E-001	-4.40989E-002	-3.01666E-004	2.66673E-005	-3.09036E-003	-2.70941E-003	1.36427E-004	1.94294E-004	-3.59276E-003	2.25089E-004
	45	44.6683	4.99043E-002	-5.05798E-003	0.00000E+000	-2.52415E-004	-4.91546E-002	3.54449E-002	3.21439E+001	11	...........	5.91426E-002	-5.24522E-003	6.05378E-001	5.30822E-001	-2.67059E-002	-3.80515E-002	7.03821E-001	-4.41860E-002	-2.99142E-004	2.65302E-005	-3.06199E-003	-2.68489E-003	1.35078E-004	1.92464E-004	-3.55991E-003	2.23492E-004
STARTTIMEOFFSET	QUANT	988881	Start Time Offset (s)
