EXPLAIN
TAG	PWR800_DISCHARGE
TITLE	LABEL	PWR Discharge	Test Identifier
DATE	LABEL	10/11/2022	Date
TIME	LABEL	8:14:39	Time
NOTES	NOTES	1	Notes...
	
PSTAT	PSTAT	REF3000-21114	Potentiostat
CAPACITY	QUANT	5.30000E-002	Capacity (A-hr)
CELLTYPE	SELECTOR	1	Cell Type
WORKINGCONNECTION	SELECTOR	0	Working Connection
MAXDISCHARGETIME	VARIABLEANDUNITS	7.20000E+003	s	2.00000E+000	hour(s)	Max Discharge Time
DISCHARGEMODE	MULTIPARAM	0	1.00000E-001	Discharge Mode	Constant Current	Amp(s)
VOLTAGEFINISH	TWOPARAM	T	5.00000E-003	7.20000E+003	Voltage Finish	I (A) <	Max Time(s)
SAMPLETIME	QUANT	1.00000E+000	Sample Period (s)
DISCHARGESTOPAT1	MULTIPARAM	1	5.00000E-002	Stop At 1	|Voltage| < Limit	V
DISCHARGESTOPAT2	MULTIPARAM	0	0.00000E+000	Stop At 2	None	N/A
AESELECTOR	AESELECTOR	0x1	T	Set Limits	AE Channels
AESBHCSELECTOR	TOGGLE	F	Save Both Half Cells
IRCOMP	TOGGLE	F	IR Measure
EOC	QUANT	0.5891213	Open Circuit (V)
SEQUENCER	TOGGLE	TRUE	Run as Sequence
PSTATMODEL	IQUANT	5	Pstat Model
PSTATSECTION	LABEL	REF3000-21114	Pstat Section
PSTATSERIALNO	LABEL	21114	Pstat Serial Number
CTRLMODE	IQUANT	0	Control Mode
ELECTROMETER	IQUANT	0	RE=0 or CS=1
IESTAB	IQUANT	0	I/E Stability
CASPEED	IQUANT	4	Control Amp Speed
CONVENTION	IQUANT	1	Current Convention
ICHRANGE	IQUANT	2	Ich Range
ICHRANGEMODE	TOGGLE	T	Ich Auto Range
ICHOFFSETENABLE	TOGGLE	F	Ich Offset Enable
ICHOFFSET	QUANT	0	Ich Offset (V)
ICHFILTER	IQUANT	1	Ich Filter
VCHRANGE	IQUANT	3	Vch Range
VCHRANGEMODE	TOGGLE	T	Vch Auto Range
VCHOFFSETENABLE	TOGGLE	F	Vch Offset Enable
VCHOFFSET	QUANT	0	Vch Offset (V)
VCHFILTER	IQUANT	1	Vch Filter
ACHRANGE	IQUANT	2	Ach Range
ACHOFFSETENABLE	TOGGLE	F	Ach Offset Enable
ACHOFFSET	QUANT	0	Ach Offset (V)
ACHFILTER	IQUANT	1	Ach Filter
IERANGELOWERLIMIT	IQUANT	9	I/E Range Lower Limit
IERANGEMODE	TOGGLE	F	I/E AutoRange
IERANGE	IQUANT	9	I/E Range
POSFEEDENABLE	TOGGLE	F	Positive Feedback IR Comp
POSFEEDRESISTANCE	QUANT	0	Positive Feedback Resistance (ohm)
ACHSELECT	IQUANT	1	Ach Select
SENSECABLEID	IQUANT	13	Sense Cable ID
PWRCABLEID	IQUANT	13	Power Cable ID
DCCALDATE	LABEL		DC Calibration Date
ACCALDATE	LABEL		AC Calibration Date
THERMOSELECT	IQUANT	1	Thermo Select
FRAMEWORKVERSION	LABEL	7.8.6	Framework Version
INSTRUMENTVERSION	LABEL	4.50	Instrument Version
COMPLIANCEVOLTAGE	IQUANT	0	Compliance Voltage
CURVE	TABLE	289
	Pt	T	Vf	Im	Vu	Pwr	Sig	Ach	Temp	IERange	Over	Vf1	Vf2	Vf3	Vf4	Vf5	Vf6	Vf7	Vf8	Pwr1	Pwr2	Pwr3	Pwr4	Pwr5	Pwr6	Pwr7	Pwr8
	#	s	V	A	V	W	V	V	deg C	#	bits	V	V	V	V	V	V	V	V	W	W	W	W	W	W	W	W
	0	1	3.77663E-001	-1.00099E-001	0.00000E+000	-3.78038E-002	-9.94000E-001	3.15189E-002	2.75783E+001	11	...........	5.22697E-002	-3.50083E-003	5.56600E-001	6.88609E-001	-3.10651E-002	-3.94371E-002	6.45156E-001	-4.24733E-002	-5.23217E-003	3.50431E-004	-5.57153E-002	-6.89293E-002	3.10960E-003	3.94763E-003	-6.45797E-002	4.25155E-003
	1	2	2.89233E-001	-1.00100E-001	0.00000E+000	-2.89521E-002	-9.94000E-001	3.17001E-002	2.67079E+001	11	...........	5.25776E-002	-3.40194E-003	5.56650E-001	6.88480E-001	-3.10767E-002	-3.94401E-002	6.45205E-001	-4.25887E-002	-5.26301E-003	3.40534E-004	-5.57206E-002	-6.89167E-002	3.11077E-003	3.94795E-003	-6.45849E-002	4.26313E-003
	2	3	2.25389E-001	-1.00101E-001	0.00000E+000	-2.25616E-002	-9.94000E-001	3.16054E-002	2.58467E+001	11	...........	5.24104E-002	-3.49514E-003	5.56584E-001	6.88367E-001	-3.10642E-002	-3.94335E-002	6.45181E-001	-4.25328E-002	-5.24632E-003	3.49866E-004	-5.57144E-002	-6.89060E-002	3.10954E-003	3.94732E-003	-6.45830E-002	4.25756E-003
	3	4	1.76992E-001	-1.00100E-001	0.00000E+000	-1.77170E-002	-9.94000E-001	3.16093E-002	2.61529E+001	11	...........	5.24210E-002	-3.56792E-003	5.56565E-001	6.88396E-001	-3.10831E-002	-3.94289E-002	6.45161E-001	-4.25092E-002	-5.24736E-003	3.57150E-004	-5.57123E-002	-6.89086E-002	3.11142E-003	3.94684E-003	-6.45808E-002	4.25518E-003
	4	5	1.40010E-001	-1.00100E-001	0.00000E+000	-1.40151E-002	-9.94000E-001	3.16929E-002	2.59266E+001	11	...........	5.25560E-002	-3.60333E-003	5.56671E-001	6.88314E-001	-3.10858E-002	-3.94404E-002	6.45150E-001	-4.24021E-002	-5.26086E-003	3.60694E-004	-5.57228E-002	-6.89003E-002	3.11169E-003	3.94799E-003	-6.45796E-002	4.24445E-003
	5	6	1.10112E-001	-1.00100E-001	0.00000E+000	-1.10222E-002	-9.94000E-001	3.15686E-002	2.52745E+001	11	...........	5.23467E-002	-3.57153E-003	5.56520E-001	6.88365E-001	-3.11028E-002	-3.94504E-002	6.45079E-001	-4.23696E-002	-5.23992E-003	3.57511E-004	-5.57078E-002	-6.89056E-002	3.11340E-003	3.94900E-003	-6.45726E-002	4.24121E-003
	6	7	8.75865E-002	-1.00101E-001	0.00000E+000	-8.76746E-003	-9.94000E-001	3.17421E-002	2.52687E+001	11	...........	5.26574E-002	-3.54625E-003	5.56530E-001	6.88242E-001	-3.11203E-002	-3.94611E-002	6.45058E-001	-4.23871E-002	-5.27103E-003	3.54981E-004	-5.57089E-002	-6.88934E-002	3.11516E-003	3.95008E-003	-6.45706E-002	4.24297E-003
	7	8	7.09957E-002	-1.00100E-001	0.00000E+000	-7.10671E-003	-9.94000E-001	3.18175E-002	2.53247E+001	11	...........	5.27674E-002	-3.55583E-003	5.56614E-001	6.88100E-001	-3.11308E-002	-3.94624E-002	6.45149E-001	-4.23217E-002	-5.28204E-003	3.55941E-004	-5.57173E-002	-6.88791E-002	3.11621E-003	3.95020E-003	-6.45797E-002	4.23642E-003
	8	9	5.70480E-002	-1.00101E-001	0.00000E+000	-5.71056E-003	-9.94000E-001	3.16302E-002	2.52227E+001	11	...........	5.28672E-002	-3.57292E-003	5.56724E-001	6.88068E-001	-3.11340E-002	-3.94610E-002	6.45134E-001	-4.24208E-002	-5.29206E-003	3.57652E-004	-5.57286E-002	-6.88763E-002	3.11654E-003	3.95008E-003	-6.45785E-002	4.24636E-003
	9	9.24667	5.08003E-002	-1.00101E-001	0.00000E+000	-5.08518E-003	-9.94000E-001	3.20831E-002	2.47787E+001	11	...........	5.31695E-002	-3.55631E-003	5.56760E-001	6.88078E-001	-3.11216E-002	-3.94645E-002	6.45154E-001	-4.25912E-002	-5.32234E-003	3.55991E-004	-5.57325E-002	-6.88776E-002	3.11532E-003	3.95045E-003	-6.45809E-002	4.26344E-003
	10	10	4.98706E-002	-9.58642E-002	0.00000E+000	-4.78080E-003	-9.51859E-001	3.18671E-002	2.52505E+001	11	...........	5.28719E-002	-3.58407E-003	5.56818E-001	6.88138E-001	-3.11362E-002	-3.94631E-002	6.45192E-001	-4.26005E-002	-5.06852E-003	3.43584E-004	-5.33789E-002	-6.59678E-002	2.98485E-003	3.78310E-003	-6.18509E-002	4.08386E-003
	11	11	4.99531E-002	-9.14122E-002	0.00000E+000	-4.56632E-003	-9.07601E-001	3.21128E-002	2.52062E+001	11	...........	5.32639E-002	-3.59222E-003	5.56760E-001	6.88180E-001	-3.11390E-002	-3.94754E-002	6.45255E-001	-4.24044E-002	-4.86897E-003	3.28373E-004	-5.08946E-002	-6.29081E-002	2.84649E-003	3.60853E-003	-5.89841E-002	3.87628E-003
	12	12	4.99686E-002	-8.82808E-002	0.00000E+000	-4.41127E-003	-8.76467E-001	3.20520E-002	2.53548E+001	11	...........	5.31587E-002	-3.49181E-003	5.56705E-001	6.88281E-001	-3.11242E-002	-3.94842E-002	6.45223E-001	-4.24067E-002	-4.69290E-003	3.08259E-004	-4.91464E-002	-6.07620E-002	2.74767E-003	3.48569E-003	-5.69608E-002	3.74369E-003
	13	13	4.99842E-002	-8.65844E-002	0.00000E+000	-4.32785E-003	-8.59587E-001	3.23057E-002	2.56732E+001	11	...........	5.35965E-002	-3.55181E-003	5.56628E-001	6.88367E-001	-3.11321E-002	-3.95031E-002	6.45232E-001	-4.25101E-002	-4.64062E-003	3.07531E-004	-4.81953E-002	-5.96018E-002	2.69555E-003	3.42035E-003	-5.58670E-002	3.68071E-003
	14	14	4.99428E-002	-8.36650E-002	0.00000E+000	-4.17846E-003	-8.30567E-001	3.21730E-002	2.54758E+001	11	...........	5.33956E-002	-3.68819E-003	5.56633E-001	6.88432E-001	-3.11172E-002	-3.95096E-002	6.45246E-001	-4.26628E-002	-4.46734E-003	3.08573E-004	-4.65707E-002	-5.75976E-002	2.60342E-003	3.30557E-003	-5.39845E-002	3.56938E-003
	15	15	4.99939E-002	-8.10510E-002	0.00000E+000	-4.05205E-003	-8.04596E-001	3.23034E-002	2.53196E+001	11	...........	5.35976E-002	-3.67792E-003	5.56632E-001	6.88385E-001	-3.11190E-002	-3.95181E-002	6.45311E-001	-4.24975E-002	-4.34414E-003	2.98099E-004	-4.51156E-002	-5.57943E-002	2.52223E-003	3.20298E-003	-5.23031E-002	3.44446E-003
	16	16	4.99613E-002	-8.13347E-002	0.00000E+000	-4.06359E-003	-8.07417E-001	3.23819E-002	2.56602E+001	11	...........	5.37199E-002	-3.57736E-003	5.56597E-001	6.88345E-001	-3.11086E-002	-3.95336E-002	6.45230E-001	-4.25287E-002	-4.36929E-003	2.90964E-004	-4.52707E-002	-5.59863E-002	2.53021E-003	3.21545E-003	-5.24795E-002	3.45906E-003
	17	17	4.99812E-002	-8.10590E-002	0.00000E+000	-4.05142E-003	-8.04681E-001	3.24763E-002	2.56599E+001	11	...........	5.38764E-002	-3.59778E-003	5.56711E-001	6.88365E-001	-3.11186E-002	-3.95183E-002	6.45238E-001	-4.24235E-002	-4.36716E-003	2.91632E-004	-4.51264E-002	-5.57982E-002	2.52244E-003	3.20331E-003	-5.23023E-002	3.43880E-003
	18	18	5.00026E-002	-7.87097E-002	0.00000E+000	-3.93569E-003	-7.81317E-001	3.24946E-002	2.59449E+001	11	...........	5.38918E-002	-3.63306E-003	5.56832E-001	6.88451E-001	-3.11007E-002	-3.95510E-002	6.45297E-001	-4.24131E-002	-4.24181E-003	2.85957E-004	-4.38281E-002	-5.41878E-002	2.44793E-003	3.11305E-003	-5.07911E-002	3.33832E-003
	19	19	4.99956E-002	-7.91672E-002	0.00000E+000	-3.95801E-003	-7.85866E-001	3.25586E-002	2.58239E+001	11	...........	5.40781E-002	-3.62542E-003	5.56903E-001	6.88467E-001	-3.11136E-002	-3.95657E-002	6.45342E-001	-4.24028E-002	-4.28121E-003	2.87014E-004	-4.40885E-002	-5.45040E-002	2.46318E-003	3.13230E-003	-5.10899E-002	3.35691E-003
	20	20	4.99607E-002	-7.71694E-002	0.00000E+000	-3.85544E-003	-7.65989E-001	3.24417E-002	2.59916E+001	11	...........	5.39706E-002	-3.62375E-003	5.56987E-001	6.88441E-001	-3.11037E-002	-3.95562E-002	6.45337E-001	-4.25157E-002	-4.16487E-003	2.79642E-004	-4.29823E-002	-5.31266E-002	2.40026E-003	3.05253E-003	-4.98002E-002	3.28091E-003
	21	21	4.99927E-002	-7.67322E-002	0.00000E+000	-3.83605E-003	-7.61645E-001	3.24666E-002	2.59518E+001	11	...........	5.41314E-002	-3.54819E-003	5.57058E-001	6.88443E-001	-3.10990E-002	-3.95537E-002	6.45445E-001	-4.26115E-002	-4.15362E-003	2.72261E-004	-4.27442E-002	-5.28258E-002	2.38630E-003	3.03505E-003	-4.95264E-002	3.26968E-003
	22	22	4.99745E-002	-7.65440E-002	0.00000E+000	-3.82525E-003	-7.59773E-001	3.25807E-002	2.62193E+001	11	...........	5.43347E-002	-3.64181E-003	5.57305E-001	6.88397E-001	-3.10660E-002	-3.95518E-002	6.45470E-001	-4.26300E-002	-4.15900E-003	2.78758E-004	-4.26584E-002	-5.26926E-002	2.37791E-003	3.02745E-003	-4.94069E-002	3.26307E-003
	23	23	4.99731E-002	-7.46356E-002	0.00000E+000	-3.72977E-003	-7.40798E-001	3.25067E-002	2.61316E+001	11	...........	5.42061E-002	-3.74514E-003	5.57439E-001	6.88392E-001	-3.10622E-002	-3.95492E-002	6.45324E-001	-4.26969E-002	-4.04571E-003	2.79521E-004	-4.16048E-002	-5.13786E-002	2.31835E-003	2.95178E-003	-4.81641E-002	3.18671E-003
	24	24	5.00149E-002	-7.43078E-002	0.00000E+000	-3.71649E-003	-7.37541E-001	3.26002E-002	2.58948E+001	11	...........	5.43546E-002	-3.74778E-003	5.57314E-001	6.88466E-001	-3.10671E-002	-3.95585E-002	6.45182E-001	-4.26662E-002	-4.03897E-003	2.78489E-004	-4.14128E-002	-5.11584E-002	2.30853E-003	2.93950E-003	-4.79421E-002	3.17044E-003
	25	25	4.99865E-002	-7.34043E-002	0.00000E+000	-3.66922E-003	-7.28557E-001	3.26004E-002	2.61078E+001	11	...........	5.43562E-002	-3.70736E-003	5.57249E-001	6.88608E-001	-3.10565E-002	-3.95512E-002	6.45292E-001	-4.26996E-002	-3.98998E-003	2.72136E-004	-4.09045E-002	-5.05468E-002	2.27968E-003	2.90323E-003	-4.73672E-002	3.13433E-003
	26	26	5.00077E-002	-7.35084E-002	0.00000E+000	-3.67598E-003	-7.29595E-001	3.27128E-002	2.63446E+001	11	...........	5.45417E-002	-3.79250E-003	5.57137E-001	6.88506E-001	-3.10461E-002	-3.95524E-002	6.45301E-001	-4.27994E-002	-4.00927E-003	2.78781E-004	-4.09542E-002	-5.06110E-002	2.28215E-003	2.90743E-003	-4.74350E-002	3.14612E-003
	27	27	4.99566E-002	-7.21665E-002	0.00000E+000	-3.60519E-003	-7.16263E-001	3.26657E-002	2.61666E+001	11	...........	5.44582E-002	-3.71375E-003	5.57001E-001	6.88430E-001	-3.10242E-002	-3.95371E-002	6.45233E-001	-4.27200E-002	-3.93006E-003	2.68008E-004	-4.01968E-002	-4.96815E-002	2.23890E-003	2.85325E-003	-4.65642E-002	3.08295E-003
	28	28	4.99913E-002	-7.12008E-002	0.00000E+000	-3.55942E-003	-7.06679E-001	3.28332E-002	2.63630E+001	11	...........	5.47394E-002	-3.66736E-003	5.57092E-001	6.88426E-001	-3.10414E-002	-3.95365E-002	6.45136E-001	-4.25447E-002	-3.89749E-003	2.61119E-004	-3.96654E-002	-4.90165E-002	2.21017E-003	2.81503E-003	-4.59343E-002	3.02922E-003
	29	29	4.99920E-002	-7.08696E-002	0.00000E+000	-3.54291E-003	-7.03385E-001	3.27789E-002	2.65498E+001	11	...........	5.46587E-002	-3.65972E-003	5.57077E-001	6.88409E-001	-3.10343E-002	-3.95424E-002	6.45210E-001	-4.24556E-002	-3.87365E-003	2.59363E-004	-3.94798E-002	-4.87873E-002	2.19939E-003	2.80235E-003	-4.57258E-002	3.00881E-003
	30	30	4.99586E-002	-7.00713E-002	0.00000E+000	-3.50066E-003	-6.95445E-001	3.28042E-002	2.59738E+001	11	...........	5.46826E-002	-3.66319E-003	5.57062E-001	6.88512E-001	-3.10236E-002	-3.95308E-002	6.45263E-001	-4.25394E-002	-3.83168E-003	2.56685E-004	-3.90341E-002	-4.82449E-002	2.17386E-003	2.76998E-003	-4.52144E-002	2.98079E-003
	31	31	4.99932E-002	-6.94782E-002	0.00000E+000	-3.47344E-003	-6.89544E-001	3.29255E-002	2.63882E+001	11	...........	5.49044E-002	-3.59097E-003	5.56989E-001	6.88544E-001	-3.10465E-002	-3.95224E-002	6.45360E-001	-4.25944E-002	-3.81466E-003	2.49494E-004	-3.86986E-002	-4.78388E-002	2.15706E-003	2.74594E-003	-4.48385E-002	2.95939E-003
	32	32	4.99875E-002	-6.90192E-002	0.00000E+000	-3.45009E-003	-6.84980E-001	3.29018E-002	2.63788E+001	11	...........	5.48668E-002	-3.71431E-003	5.56983E-001	6.88317E-001	-3.10597E-002	-3.95221E-002	6.45376E-001	-4.25840E-002	-3.78686E-003	2.56358E-004	-3.84425E-002	-4.75071E-002	2.14372E-003	2.72778E-003	-4.45433E-002	2.93911E-003
	33	33	4.99741E-002	-6.68911E-002	0.00000E+000	-3.34282E-003	-6.63816E-001	3.29538E-002	2.54321E+001	11	...........	5.49410E-002	-3.68069E-003	5.57233E-001	6.88195E-001	-3.10629E-002	-3.95043E-002	6.45320E-001	-4.27775E-002	-3.67506E-003	2.46206E-004	-3.72739E-002	-4.60341E-002	2.07783E-003	2.64249E-003	-4.31662E-002	2.86143E-003
	34	34	5.00212E-002	-6.62409E-002	0.00000E+000	-3.31345E-003	-6.57351E-001	3.28803E-002	2.67174E+001	11	...........	5.48267E-002	-3.63778E-003	5.57350E-001	6.88146E-001	-3.10611E-002	-3.95101E-002	6.45182E-001	-4.26331E-002	-3.63177E-003	2.40970E-004	-3.69194E-002	-4.55834E-002	2.05751E-003	2.61719E-003	-4.27374E-002	2.82405E-003
	35	35	4.99633E-002	-6.68372E-002	0.00000E+000	-3.33941E-003	-6.63279E-001	3.31723E-002	2.61848E+001	11	...........	5.52996E-002	-3.62028E-003	5.57558E-001	6.88033E-001	-3.10415E-002	-3.95090E-002	6.45111E-001	-4.25944E-002	-3.69607E-003	2.41969E-004	-3.72656E-002	-4.59862E-002	2.07473E-003	2.64067E-003	-4.31174E-002	2.84689E-003
	36	36	4.99888E-002	-6.55642E-002	0.00000E+000	-3.27747E-003	-6.50624E-001	3.29718E-002	2.62829E+001	11	...........	5.49544E-002	-3.53125E-003	5.57587E-001	6.88041E-001	-3.10260E-002	-3.94987E-002	6.45160E-001	-4.26601E-002	-3.60304E-003	2.31523E-004	-3.65577E-002	-4.51108E-002	2.03419E-003	2.58970E-003	-4.22994E-002	2.79698E-003
	37	37	5.00067E-002	-6.57622E-002	0.00000E+000	-3.28855E-003	-6.52590E-001	3.31177E-002	2.62447E+001	11	...........	5.52208E-002	-3.47222E-003	5.57528E-001	6.87871E-001	-3.10246E-002	-3.94806E-002	6.45192E-001	-4.26922E-002	-3.63144E-003	2.28341E-004	-3.66643E-002	-4.52359E-002	2.04024E-003	2.59633E-003	-4.24292E-002	2.80753E-003
	38	38	4.99886E-002	-6.45002E-002	0.00000E+000	-3.22427E-003	-6.40041E-001	3.31442E-002	2.60444E+001	11	...........	5.52740E-002	-3.53903E-003	5.57574E-001	6.87774E-001	-3.10333E-002	-3.94586E-002	6.45194E-001	-4.26919E-002	-3.56518E-003	2.28268E-004	-3.59636E-002	-4.43615E-002	2.00165E-003	2.54509E-003	-4.16151E-002	2.75364E-003
	39	39	4.99639E-002	-6.36193E-002	0.00000E+000	-3.17867E-003	-6.31281E-001	3.30154E-002	2.64153E+001	11	...........	5.50603E-002	-3.60069E-003	5.57633E-001	6.87748E-001	-3.10314E-002	-3.94678E-002	6.45105E-001	-4.27526E-002	-3.50290E-003	2.29074E-004	-3.54762E-002	-4.37540E-002	1.97420E-003	2.51091E-003	-4.10411E-002	2.71989E-003
	40	40	4.99838E-002	-6.32540E-002	0.00000E+000	-3.16167E-003	-6.27651E-001	3.33166E-002	2.61972E+001	11	...........	5.55586E-002	-3.58917E-003	5.57655E-001	6.87803E-001	-3.10382E-002	-3.95029E-002	6.45170E-001	-4.26472E-002	-3.51431E-003	2.27029E-004	-3.52739E-002	-4.35063E-002	1.96329E-003	2.49872E-003	-4.08096E-002	2.69761E-003
	41	41	5.00114E-002	-6.23182E-002	0.00000E+000	-3.11662E-003	-6.18351E-001	3.31804E-002	2.62719E+001	11	...........	5.53182E-002	-3.63278E-003	5.57614E-001	6.87770E-001	-3.10139E-002	-3.95135E-002	6.45136E-001	-4.26397E-002	-3.44733E-003	2.26388E-004	-3.47495E-002	-4.28606E-002	1.93273E-003	2.46241E-003	-4.02037E-002	2.65723E-003
	42	42	4.99896E-002	-6.30728E-002	0.00000E+000	-3.15299E-003	-6.25846E-001	3.32319E-002	2.67061E+001	11	...........	5.53999E-002	-3.66556E-003	5.57541E-001	6.87766E-001	-3.09740E-002	-3.95133E-002	6.45167E-001	-4.25469E-002	-3.49423E-003	2.31197E-004	-3.51657E-002	-4.33793E-002	1.95362E-003	2.49222E-003	-4.06925E-002	2.68356E-003
	43	43	4.99776E-002	-6.22861E-002	0.00000E+000	-3.11291E-003	-6.18031E-001	3.33996E-002	2.66240E+001	11	...........	5.56726E-002	-3.67306E-003	5.57501E-001	6.87737E-001	-3.09753E-002	-3.95336E-002	6.45149E-001	-4.25046E-002	-3.46763E-003	2.28780E-004	-3.47245E-002	-4.28364E-002	1.92933E-003	2.46239E-003	-4.01838E-002	2.64744E-003
	44	44	4.99788E-002	-6.13947E-002	0.00000E+000	-3.06843E-003	-6.09172E-001	3.32849E-002	2.66515E+001	11	...........	5.54869E-002	-3.56556E-003	5.57472E-001	6.87843E-001	-3.09754E-002	-3.95326E-002	6.45187E-001	-4.24760E-002	-3.40661E-003	2.18906E-004	-3.42258E-002	-4.22299E-002	1.90173E-003	2.42710E-003	-3.96111E-002	2.60780E-003
	45	45	5.00028E-002	-6.10177E-002	0.00000E+000	-3.05105E-003	-6.05425E-001	3.33488E-002	2.68325E+001	11	...........	5.56086E-002	-3.56083E-003	5.57631E-001	6.87781E-001	-3.09536E-002	-3.95085E-002	6.45198E-001	-4.24861E-002	-3.39311E-003	2.17274E-004	-3.40253E-002	-4.19668E-002	1.88872E-003	2.41072E-003	-3.93685E-002	2.59240E-003
	46	46	4.99831E-002	-5.99962E-002	0.00000E+000	-2.99879E-003	-5.95271E-001	3.33361E-002	2.68187E+001	11	...........	5.55982E-002	-3.58931E-003	5.57773E-001	6.87849E-001	-3.09339E-002	-3.95151E-002	6.45127E-001	-4.24260E-002	-3.33568E-003	2.15345E-004	-3.34642E-002	-4.12683E-002	1.85591E-003	2.37076E-003	-3.87051E-002	2.54540E-003
	47	47	4.99697E-002	-5.98997E-002	0.00000E+000	-2.99317E-003	-5.94313E-001	3.33969E-002	2.71232E+001	11	...........	5.56879E-002	-3.55861E-003	5.57688E-001	6.87825E-001	-3.09381E-002	-3.95110E-002	6.45039E-001	-4.23707E-002	-3.33569E-003	2.13160E-004	-3.34054E-002	-4.12005E-002	1.85318E-003	2.36669E-003	-3.86376E-002	2.53799E-003
	48	48	4.99887E-002	-5.90351E-002	0.00000E+000	-2.95108E-003	-5.85713E-001	3.34140E-002	2.66563E+001	11	...........	5.57153E-002	-3.69500E-003	5.57603E-001	6.87891E-001	-3.09243E-002	-3.95046E-002	6.45097E-001	-4.24537E-002	-3.28915E-003	2.18135E-004	-3.29181E-002	-4.06097E-002	1.82562E-003	2.33216E-003	-3.80834E-002	2.50626E-003
	49	49	4.99955E-002	-5.77808E-002	0.00000E+000	-2.88878E-003	-5.73244E-001	3.33950E-002	2.66741E+001	11	...........	5.56718E-002	-3.66333E-003	5.57542E-001	6.87823E-001	-3.09410E-002	-3.95247E-002	6.45037E-001	-4.24658E-002	-3.21676E-003	2.11670E-004	-3.22152E-002	-3.97430E-002	1.78779E-003	2.28377E-003	-3.72707E-002	2.45371E-003
	50	50	4.99900E-002	-5.75043E-002	0.00000E+000	-2.87464E-003	-5.70491E-001	3.33902E-002	2.71255E+001	11	...........	5.56631E-002	-3.71667E-003	5.57573E-001	6.87847E-001	-3.09325E-002	-3.95547E-002	6.45069E-001	-4.25472E-002	-3.20086E-003	2.13724E-004	-3.20628E-002	-3.95541E-002	1.77875E-003	2.27457E-003	-3.70942E-002	2.44665E-003
	51	51	4.99914E-002	-5.78260E-002	0.00000E+000	-2.89080E-003	-5.73691E-001	3.35927E-002	2.67510E+001	11	...........	5.60192E-002	-3.67681E-003	5.57575E-001	6.87858E-001	-3.09204E-002	-3.95506E-002	6.45138E-001	-4.26365E-002	-3.23937E-003	2.12615E-004	-3.22424E-002	-3.97761E-002	1.78800E-003	2.28705E-003	-3.73058E-002	2.46550E-003
	52	52	4.99799E-002	-5.67591E-002	0.00000E+000	-2.83681E-003	-5.63075E-001	3.34748E-002	2.71062E+001	11	...........	5.57985E-002	-3.65847E-003	5.57567E-001	6.87819E-001	-3.09175E-002	-3.95454E-002	6.45088E-001	-4.25926E-002	-3.16707E-003	2.07651E-004	-3.16470E-002	-3.90400E-002	1.75485E-003	2.24456E-003	-3.66146E-002	2.41752E-003
	53	53	4.99948E-002	-5.59450E-002	0.00000E+000	-2.79696E-003	-5.54979E-001	3.36364E-002	2.67687E+001	11	...........	5.60715E-002	-3.68194E-003	5.57612E-001	6.87681E-001	-3.09468E-002	-3.95743E-002	6.45150E-001	-4.25512E-002	-3.13692E-003	2.05986E-004	-3.11956E-002	-3.84723E-002	1.73132E-003	2.21398E-003	-3.60929E-002	2.38053E-003
	54	54	4.99933E-002	-5.62488E-002	0.00000E+000	-2.81207E-003	-5.58002E-001	3.35767E-002	2.70438E+001	11	...........	5.59917E-002	-3.58028E-003	5.57575E-001	6.87764E-001	-3.09585E-002	-3.95476E-002	6.44992E-001	-4.24346E-002	-3.14947E-003	2.01386E-004	-3.13630E-002	-3.86859E-002	1.74138E-003	2.22451E-003	-3.62801E-002	2.38690E-003
	55	55	4.99773E-002	-5.46637E-002	0.00000E+000	-2.73195E-003	-5.42245E-001	3.35789E-002	2.69390E+001	11	...........	5.59949E-002	-3.52153E-003	5.57500E-001	6.87823E-001	-3.09672E-002	-3.95390E-002	6.45077E-001	-4.25449E-002	-3.06089E-003	1.92500E-004	-3.04750E-002	-3.75990E-002	1.69278E-003	2.16135E-003	-3.52623E-002	2.32566E-003
	56	56	5.00003E-002	-5.45390E-002	0.00000E+000	-2.72697E-003	-5.41004E-001	3.36308E-002	2.69632E+001	11	...........	5.60887E-002	-3.49889E-003	5.57518E-001	6.87847E-001	-3.09906E-002	-3.95224E-002	6.45224E-001	-4.25269E-002	-3.05903E-003	1.90826E-004	-3.04065E-002	-3.75145E-002	1.69019E-003	2.15551E-003	-3.51899E-002	2.31938E-003
	57	57	4.99747E-002	-5.39276E-002	0.00000E+000	-2.69502E-003	-5.34919E-001	3.37415E-002	2.71248E+001	11	...........	5.62562E-002	-3.62181E-003	5.57445E-001	6.87839E-001	-3.09832E-002	-3.95479E-002	6.45200E-001	-4.25635E-002	-3.03377E-003	1.95315E-004	-3.00617E-002	-3.70935E-002	1.67085E-003	2.13273E-003	-3.47941E-002	2.29535E-003
	58	58	4.99952E-002	-5.38472E-002	0.00000E+000	-2.69210E-003	-5.34123E-001	3.37154E-002	2.71461E+001	11	...........	5.62094E-002	-3.60708E-003	5.57595E-001	6.87772E-001	-3.09675E-002	-3.95571E-002	6.45132E-001	-4.26087E-002	-3.02672E-003	1.94231E-004	-3.00249E-002	-3.70346E-002	1.66751E-003	2.13004E-003	-3.47385E-002	2.29436E-003
	59	59	4.99808E-002	-5.31872E-002	0.00000E+000	-2.65834E-003	-5.27558E-001	3.37035E-002	2.69028E+001	11	...........	5.61944E-002	-3.54722E-003	5.57622E-001	6.87749E-001	-3.09881E-002	-3.95651E-002	6.45079E-001	-4.26481E-002	-2.98883E-003	1.88667E-004	-2.96584E-002	-3.65795E-002	1.64817E-003	2.10436E-003	-3.43100E-002	2.26833E-003
	60	60	4.99987E-002	-5.22386E-002	0.00000E+000	-2.61186E-003	-5.18134E-001	3.37372E-002	2.70205E+001	11	...........	5.62504E-002	-3.71806E-003	5.57627E-001	6.87629E-001	-3.09993E-002	-3.95593E-002	6.45096E-001	-4.26433E-002	-2.93844E-003	1.94226E-004	-2.91296E-002	-3.59208E-002	1.61936E-003	2.06652E-003	-3.36989E-002	2.22763E-003
	61	61	4.99781E-002	-5.16061E-002	0.00000E+000	-2.57917E-003	-5.11852E-001	3.37294E-002	2.72708E+001	11	...........	5.62329E-002	-3.64611E-003	5.57759E-001	6.87538E-001	-3.10296E-002	-3.95600E-002	6.45093E-001	-4.26764E-002	-2.90196E-003	1.88162E-004	-2.87838E-002	-3.54811E-002	1.60132E-003	2.04154E-003	-3.32908E-002	2.20236E-003
	62	62	4.99937E-002	-5.14032E-002	0.00000E+000	-2.56983E-003	-5.09849E-001	3.38533E-002	2.73847E+001	11	...........	5.64512E-002	-3.59833E-003	5.57751E-001	6.87408E-001	-3.10357E-002	-3.95165E-002	6.45078E-001	-4.26108E-002	-2.90177E-003	1.84966E-004	-2.86702E-002	-3.53350E-002	1.59533E-003	2.03127E-003	-3.31591E-002	2.19033E-003
	63	63	4.99835E-002	-5.09182E-002	0.00000E+000	-2.54507E-003	-5.05020E-001	3.38719E-002	2.72803E+001	11	...........	5.64718E-002	-3.48611E-003	5.57608E-001	6.87450E-001	-3.10311E-002	-3.94947E-002	6.45144E-001	-4.26358E-002	-2.87544E-003	1.77506E-004	-2.83924E-002	-3.50037E-002	1.58005E-003	2.01100E-003	-3.28496E-002	2.17094E-003
	64	64	4.99919E-002	-5.02925E-002	0.00000E+000	-2.51422E-003	-4.98807E-001	3.39097E-002	2.73954E+001	11	...........	5.65321E-002	-3.51625E-003	5.57546E-001	6.87631E-001	-3.10282E-002	-3.94974E-002	6.45115E-001	-4.26436E-002	-2.84314E-003	1.76841E-004	-2.80404E-002	-3.45827E-002	1.56048E-003	1.98642E-003	-3.24444E-002	2.14465E-003
	65	65	4.99948E-002	-4.91794E-002	0.00000E+000	-2.45871E-003	-4.87739E-001	3.37952E-002	2.71299E+001	11	...........	5.63553E-002	-3.60597E-003	5.57458E-001	6.87735E-001	-3.10653E-002	-3.95006E-002	6.45029E-001	-4.26301E-002	-2.77152E-003	1.77340E-004	-2.74154E-002	-3.38224E-002	1.52777E-003	1.94261E-003	-3.17221E-002	2.09652E-003
	66	66	4.99949E-002	-4.92068E-002	0.00000E+000	-2.46009E-003	-4.88009E-001	3.38256E-002	2.74941E+001	11	...........	5.63983E-002	-3.62903E-003	5.57500E-001	6.87814E-001	-3.10693E-002	-3.95012E-002	6.45024E-001	-4.26846E-002	-2.77518E-003	1.78573E-004	-2.74328E-002	-3.38452E-002	1.52882E-003	1.94373E-003	-3.17396E-002	2.10037E-003
	67	67	4.99546E-002	-4.89231E-002	0.00000E+000	-2.44393E-003	-4.85189E-001	3.40261E-002	2.71364E+001	11	...........	5.67304E-002	-3.66972E-003	5.57373E-001	6.87696E-001	-3.10589E-002	-3.95062E-002	6.45201E-001	-4.26047E-002	-2.77543E-003	1.79534E-004	-2.72684E-002	-3.36442E-002	1.51950E-003	1.93277E-003	-3.15652E-002	2.08435E-003
	68	68	5.00084E-002	-4.70875E-002	0.00000E+000	-2.35477E-003	-4.66927E-001	3.38734E-002	2.70106E+001	11	...........	5.64689E-002	-3.66625E-003	5.57333E-001	6.87551E-001	-3.10661E-002	-3.95290E-002	6.45162E-001	-4.26154E-002	-2.65898E-003	1.72635E-004	-2.62434E-002	-3.23751E-002	1.46283E-003	1.86132E-003	-3.03791E-002	2.00665E-003
	69	69	5.00056E-002	-4.77036E-002	0.00000E+000	-2.38545E-003	-4.73055E-001	3.39861E-002	2.73200E+001	11	...........	5.66604E-002	-3.58194E-003	5.57349E-001	6.87566E-001	-3.10794E-002	-3.95272E-002	6.45193E-001	-4.25878E-002	-2.70290E-003	1.70872E-004	-2.65875E-002	-3.27993E-002	1.48260E-003	1.88559E-003	-3.07780E-002	2.03159E-003
	70	70	4.99662E-002	-4.66634E-002	0.00000E+000	-2.33159E-003	-4.62716E-001	3.39273E-002	2.72727E+001	11	...........	5.65803E-002	-3.57472E-003	5.57225E-001	6.87465E-001	-3.10956E-002	-3.95204E-002	6.45318E-001	-4.26775E-002	-2.64023E-003	1.66809E-004	-2.60020E-002	-3.20795E-002	1.45102E-003	1.84416E-003	-3.01127E-002	1.99148E-003
	71	71	4.99918E-002	-4.67645E-002	0.00000E+000	-2.33784E-003	-4.63719E-001	3.41092E-002	2.70669E+001	11	...........	5.68704E-002	-3.54556E-003	5.57348E-001	6.87222E-001	-3.11011E-002	-3.95026E-002	6.45252E-001	-4.26001E-002	-2.65952E-003	1.65806E-004	-2.60641E-002	-3.21376E-002	1.45443E-003	1.84732E-003	-3.01749E-002	1.99218E-003
	72	72	5.00012E-002	-4.63772E-002	0.00000E+000	-2.31891E-003	-4.59866E-001	3.40773E-002	2.74486E+001	11	...........	5.68157E-002	-3.71167E-003	5.57301E-001	6.87234E-001	-3.10747E-002	-3.94808E-002	6.45320E-001	-4.25396E-002	-2.63495E-003	1.72137E-004	-2.58460E-002	-3.18719E-002	1.44116E-003	1.83101E-003	-2.99281E-002	1.97286E-003
	73	73	4.99778E-002	-4.49696E-002	0.00000E+000	-2.24748E-003	-4.45869E-001	3.39638E-002	2.71941E+001	11	...........	5.66178E-002	-3.67208E-003	5.57328E-001	6.87255E-001	-3.10721E-002	-3.94803E-002	6.45245E-001	-4.25746E-002	-2.54608E-003	1.65132E-004	-2.50628E-002	-3.09056E-002	1.39730E-003	1.77541E-003	-2.90164E-002	1.91456E-003
	74	74	4.99910E-002	-4.50944E-002	0.00000E+000	-2.25432E-003	-4.47115E-001	3.40646E-002	2.76479E+001	11	...........	5.68036E-002	-3.75111E-003	5.57422E-001	6.87376E-001	-3.10694E-002	-3.94768E-002	6.45206E-001	-4.26550E-002	-2.56153E-003	1.69154E-004	-2.51366E-002	-3.09968E-002	1.40106E-003	1.78018E-003	-2.90952E-002	1.92350E-003
	75	75	5.00007E-002	-4.45013E-002	0.00000E+000	-2.22510E-003	-4.41213E-001	3.42020E-002	2.74681E+001	11	...........	5.70211E-002	-3.64125E-003	5.57423E-001	6.87257E-001	-3.10558E-002	-3.94775E-002	6.45113E-001	-4.26086E-002	-2.53752E-003	1.62041E-004	-2.48061E-002	-3.05839E-002	1.38203E-003	1.75680E-003	-2.87084E-002	1.89614E-003
	76	76	4.99668E-002	-4.32579E-002	0.00000E+000	-2.16146E-003	-4.28853E-001	3.39970E-002	2.74034E+001	11	...........	5.66650E-002	-3.60514E-003	5.57406E-001	6.87126E-001	-3.10603E-002	-3.94781E-002	6.45137E-001	-4.26596E-002	-2.45121E-003	1.55951E-004	-2.41122E-002	-2.97236E-002	1.34360E-003	1.70774E-003	-2.79073E-002	1.84536E-003
	77	77	5.00032E-002	-4.35376E-002	0.00000E+000	-2.17702E-003	-4.31633E-001	3.42845E-002	2.72392E+001	11	...........	5.71637E-002	-3.75778E-003	5.57465E-001	6.86953E-001	-3.10529E-002	-3.94935E-002	6.45192E-001	-4.25535E-002	-2.48877E-003	1.63605E-004	-2.42707E-002	-2.99083E-002	1.35197E-003	1.71945E-003	-2.80901E-002	1.85268E-003
	78	78	4.99832E-002	-4.32503E-002	0.00000E+000	-2.16179E-003	-4.28780E-001	3.41129E-002	2.79241E+001	11	...........	5.68851E-002	-3.76917E-003	5.57540E-001	6.87005E-001	-3.10387E-002	-3.95136E-002	6.45107E-001	-4.26653E-002	-2.46030E-003	1.63018E-004	-2.41138E-002	-2.97132E-002	1.34244E-003	1.70898E-003	-2.79011E-002	1.84529E-003
	79	79	4.99895E-002	-4.27063E-002	0.00000E+000	-2.13487E-003	-4.23365E-001	3.41556E-002	2.76513E+001	11	...........	5.69628E-002	-3.72069E-003	5.57650E-001	6.86988E-001	-3.10506E-002	-3.95361E-002	6.45207E-001	-4.25310E-002	-2.43267E-003	1.58897E-004	-2.38152E-002	-2.93387E-002	1.32606E-003	1.68844E-003	-2.75544E-002	1.81634E-003
	80	80	4.99888E-002	-4.26710E-002	0.00000E+000	-2.13307E-003	-4.23016E-001	3.43852E-002	2.83329E+001	11	...........	5.73365E-002	-3.69361E-003	5.57702E-001	6.87081E-001	-3.10332E-002	-3.95308E-002	6.45218E-001	-4.25182E-002	-2.44660E-003	1.57610E-004	-2.37977E-002	-2.93184E-002	1.32422E-003	1.68682E-003	-2.75321E-002	1.81429E-003
	81	81	4.99903E-002	-4.17934E-002	0.00000E+000	-2.08927E-003	-4.14288E-001	3.43073E-002	2.74845E+001	11	...........	5.72081E-002	-3.66181E-003	5.57589E-001	6.86881E-001	-3.10215E-002	-3.95406E-002	6.45175E-001	-4.24983E-002	-2.39092E-003	1.53039E-004	-2.33036E-002	-2.87071E-002	1.29650E-003	1.65254E-003	-2.69641E-002	1.77615E-003
	82	82	4.99862E-002	-4.10142E-002	0.00000E+000	-2.05014E-003	-4.06556E-001	3.41276E-002	2.79324E+001	11	...........	5.69090E-002	-3.61417E-003	5.57375E-001	6.86875E-001	-3.10112E-002	-3.95458E-002	6.45065E-001	-4.25497E-002	-2.33408E-003	1.48232E-004	-2.28603E-002	-2.81716E-002	1.27190E-003	1.62194E-003	-2.64568E-002	1.74514E-003
	83	83	5.00038E-002	-4.12925E-002	0.00000E+000	-2.06478E-003	-4.09323E-001	3.42600E-002	2.81723E+001	11	...........	5.71189E-002	-3.60875E-003	5.57457E-001	6.86894E-001	-3.10093E-002	-3.95224E-002	6.45090E-001	-4.25185E-002	-2.35858E-003	1.49014E-004	-2.30188E-002	-2.83636E-002	1.28045E-003	1.63198E-003	-2.66374E-002	1.75570E-003
	84	84	4.99821E-002	-4.02781E-002	0.00000E+000	-2.01319E-003	-3.99242E-001	3.44062E-002	2.71786E+001	11	...........	5.73715E-002	-3.59708E-003	5.57631E-001	6.86949E-001	-3.09894E-002	-3.95101E-002	6.45142E-001	-4.25339E-002	-2.31082E-003	1.44884E-004	-2.24603E-002	-2.76690E-002	1.24820E-003	1.59139E-003	-2.59851E-002	1.71318E-003
	85	85	4.99877E-002	-3.96702E-002	0.00000E+000	-1.98302E-003	-3.93201E-001	3.42153E-002	2.78152E+001	11	...........	5.70565E-002	-3.56792E-003	5.57633E-001	6.86898E-001	-3.09844E-002	-3.95293E-002	6.45124E-001	-4.25826E-002	-2.26344E-003	1.41540E-004	-2.21214E-002	-2.72494E-002	1.22916E-003	1.56813E-003	-2.55922E-002	1.68926E-003
	86	86	4.99719E-002	-3.99200E-002	0.00000E+000	-1.99488E-003	-3.95683E-001	3.45296E-002	2.79249E+001	11	...........	5.75733E-002	-3.61000E-003	5.57782E-001	6.86861E-001	-3.09561E-002	-3.95318E-002	6.45131E-001	-4.26490E-002	-2.29833E-003	1.44111E-004	-2.22666E-002	-2.74195E-002	1.23577E-003	1.57811E-003	-2.57536E-002	1.70255E-003
	87	87	4.99868E-002	-3.75451E-002	0.00000E+000	-1.87676E-003	-3.72067E-001	3.43274E-002	2.69219E+001	11	...........	5.72381E-002	-3.50153E-003	5.57699E-001	6.86823E-001	-3.09594E-002	-3.95087E-002	6.45126E-001	-4.27068E-002	-2.14901E-003	1.31465E-004	-2.09389E-002	-2.57868E-002	1.16238E-003	1.48336E-003	-2.42213E-002	1.60343E-003
	88	88	5.00014E-002	-3.78577E-002	0.00000E+000	-1.89294E-003	-3.75173E-001	3.43620E-002	2.75213E+001	11	...........	5.72928E-002	-3.57625E-003	5.57686E-001	6.86695E-001	-3.09678E-002	-3.95167E-002	6.45011E-001	-4.26442E-002	-2.16897E-003	1.35388E-004	-2.11127E-002	-2.59967E-002	1.17237E-003	1.49601E-003	-2.44186E-002	1.61441E-003
	89	89	4.99963E-002	-3.79327E-002	0.00000E+000	-1.89650E-003	-3.75922E-001	3.44627E-002	2.80985E+001	11	...........	5.74472E-002	-3.66458E-003	5.57587E-001	6.86721E-001	-3.09907E-002	-3.95121E-002	6.44899E-001	-4.26000E-002	-2.17913E-003	1.39008E-004	-2.11508E-002	-2.60492E-002	1.17556E-003	1.49880E-003	-2.44628E-002	1.61593E-003
	90	90	4.99859E-002	-3.74088E-002	0.00000E+000	-1.86991E-003	-3.70716E-001	3.42948E-002	2.76564E+001	11	...........	5.71751E-002	-3.61528E-003	5.57574E-001	6.86821E-001	-3.09857E-002	-3.95151E-002	6.45007E-001	-4.25125E-002	-2.13885E-003	1.35243E-004	-2.08582E-002	-2.56932E-002	1.15914E-003	1.47821E-003	-2.41289E-002	1.59034E-003
	91	91	4.99822E-002	-3.71907E-002	0.00000E+000	-1.85887E-003	-3.68547E-001	3.45512E-002	2.77769E+001	11	...........	5.76189E-002	-3.59222E-003	5.57611E-001	6.86811E-001	-3.09951E-002	-3.95207E-002	6.45032E-001	-4.24815E-002	-2.14289E-003	1.33597E-004	-2.07379E-002	-2.55430E-002	1.15273E-003	1.46980E-003	-2.39892E-002	1.57992E-003
	92	92	4.99793E-002	-3.64454E-002	0.00000E+000	-1.82152E-003	-3.61129E-001	3.43842E-002	2.75327E+001	11	...........	5.73321E-002	-3.57819E-003	5.57522E-001	6.86722E-001	-3.09999E-002	-3.94789E-002	6.44933E-001	-4.25708E-002	-2.08949E-003	1.30409E-004	-2.03191E-002	-2.50279E-002	1.12980E-003	1.43882E-003	-2.35048E-002	1.55151E-003
	93	93	5.00130E-002	-3.61868E-002	0.00000E+000	-1.80981E-003	-3.58562E-001	3.45190E-002	2.77950E+001	11	...........	5.75536E-002	-3.66917E-003	5.57646E-001	6.86744E-001	-3.10031E-002	-3.94603E-002	6.45030E-001	-4.25264E-002	-2.08268E-003	1.32775E-004	-2.01794E-002	-2.48511E-002	1.12190E-003	1.42794E-003	-2.33416E-002	1.53889E-003
	94	94	4.99929E-002	-3.62156E-002	0.00000E+000	-1.81052E-003	-3.58841E-001	3.46224E-002	2.83971E+001	11	...........	5.77342E-002	-3.74542E-003	5.57644E-001	6.86632E-001	-3.10225E-002	-3.94578E-002	6.45068E-001	-4.25481E-002	-2.09087E-003	1.35642E-004	-2.01954E-002	-2.48667E-002	1.12350E-003	1.42899E-003	-2.33615E-002	1.54090E-003
	95	95	4.99717E-002	-3.55694E-002	0.00000E+000	-1.77746E-003	-3.52417E-001	3.44262E-002	2.76968E+001	11	...........	5.74021E-002	-3.68514E-003	5.57541E-001	6.86487E-001	-3.10322E-002	-3.94346E-002	6.45183E-001	-4.26390E-002	-2.04175E-003	1.31078E-004	-1.98314E-002	-2.44179E-002	1.10380E-003	1.40266E-003	-2.29487E-002	1.51664E-003
	96	96	4.99955E-002	-3.50777E-002	0.00000E+000	-1.75373E-003	-3.47528E-001	3.46132E-002	2.80393E+001	11	...........	5.77031E-002	-3.63403E-003	5.57660E-001	6.86551E-001	-3.10208E-002	-3.94501E-002	6.45142E-001	-4.26549E-002	-2.02409E-003	1.27473E-004	-1.95614E-002	-2.40826E-002	1.08814E-003	1.38382E-003	-2.26301E-002	1.49624E-003
	97	97	4.99983E-002	-3.51696E-002	0.00000E+000	-1.75842E-003	-3.48441E-001	3.45809E-002	2.81698E+001	11	...........	5.76379E-002	-3.57403E-003	5.57648E-001	6.86589E-001	-3.10231E-002	-3.94549E-002	6.45061E-001	-4.25572E-002	-2.02710E-003	1.25697E-004	-1.96123E-002	-2.41471E-002	1.09107E-003	1.38761E-003	-2.26866E-002	1.49672E-003
	98	98	4.99890E-002	-3.45834E-002	0.00000E+000	-1.72879E-003	-3.42612E-001	3.45684E-002	2.81302E+001	11	...........	5.76372E-002	-3.61069E-003	5.57589E-001	6.86628E-001	-3.10589E-002	-3.94649E-002	6.45094E-001	-4.25412E-002	-1.99329E-003	1.24870E-004	-1.92833E-002	-2.37459E-002	1.07412E-003	1.36483E-003	-2.23095E-002	1.47122E-003
	99	99	4.99769E-002	-3.40930E-002	0.00000E+000	-1.70386E-003	-3.37737E-001	3.45685E-002	2.79095E+001	11	...........	5.76308E-002	-3.62306E-003	5.57539E-001	6.86631E-001	-3.10628E-002	-3.94706E-002	6.45145E-001	-4.26757E-002	-1.96481E-003	1.23521E-004	-1.90082E-002	-2.34093E-002	1.05902E-003	1.34567E-003	-2.19949E-002	1.45494E-003
	100	100	4.99993E-002	-3.35828E-002	0.00000E+000	-1.67911E-003	-3.32665E-001	3.46210E-002	2.80392E+001	11	...........	5.77296E-002	-3.62556E-003	5.57441E-001	6.86679E-001	-3.10858E-002	-3.94728E-002	6.45226E-001	-4.27092E-002	-1.93872E-003	1.21756E-004	-1.87204E-002	-2.30606E-002	1.04395E-003	1.32561E-003	-2.16685E-002	1.43429E-003
	101	101	4.99890E-002	-3.33669E-002	0.00000E+000	-1.66797E-003	-3.30517E-001	3.46963E-002	2.81482E+001	11	...........	5.78564E-002	-3.69819E-003	5.57601E-001	6.86616E-001	-3.11043E-002	-3.94742E-002	6.45209E-001	-4.25618E-002	-1.93049E-003	1.23397E-004	-1.86054E-002	-2.29102E-002	1.03785E-003	1.31713E-003	-2.15286E-002	1.42015E-003
	102	102	4.99924E-002	-3.29591E-002	0.00000E+000	-1.64770E-003	-3.26458E-001	3.46060E-002	2.85689E+001	11	...........	5.76992E-002	-3.57861E-003	5.57740E-001	6.86769E-001	-3.10879E-002	-3.94804E-002	6.45231E-001	-4.25050E-002	-1.90171E-003	1.17948E-004	-1.83826E-002	-2.26353E-002	1.02463E-003	1.30124E-003	-2.12662E-002	1.40093E-003
	103	103	4.99939E-002	-3.27792E-002	0.00000E+000	-1.63876E-003	-3.24670E-001	3.46516E-002	2.79762E+001	11	...........	5.77800E-002	-3.45514E-003	5.57779E-001	6.86715E-001	-3.10544E-002	-3.94597E-002	6.45216E-001	-4.25331E-002	-1.89398E-003	1.13257E-004	-1.82835E-002	-2.25100E-002	1.01794E-003	1.29346E-003	-2.11497E-002	1.39420E-003
	104	104	4.99828E-002	-3.23795E-002	0.00000E+000	-1.61842E-003	-3.20694E-001	3.47019E-002	2.81532E+001	11	...........	5.78733E-002	-3.46292E-003	5.57759E-001	6.86716E-001	-3.10307E-002	-3.94647E-002	6.45365E-001	-4.25258E-002	-1.87391E-003	1.12127E-004	-1.80599E-002	-2.22355E-002	1.00476E-003	1.27785E-003	-2.08966E-002	1.37696E-003
	105	105	4.99881E-002	-3.07415E-002	0.00000E+000	-1.53671E-003	-3.04421E-001	3.46686E-002	2.70740E+001	11	...........	5.77989E-002	-3.44181E-003	5.57750E-001	6.86655E-001	-3.10483E-002	-3.94733E-002	6.45250E-001	-4.25279E-002	-1.77682E-003	1.05806E-004	-1.71461E-002	-2.11088E-002	9.54472E-004	1.21347E-003	-1.98360E-002	1.30737E-003
	106	106	4.99971E-002	-3.07817E-002	0.00000E+000	-1.53899E-003	-3.04825E-001	3.44543E-002	2.84345E+001	11	...........	5.74508E-002	-3.49264E-003	5.57657E-001	6.86722E-001	-3.10275E-002	-3.94647E-002	6.45247E-001	-4.26911E-002	-1.76843E-003	1.07509E-004	-1.71656E-002	-2.11384E-002	9.55079E-004	1.21479E-003	-1.98618E-002	1.31410E-003
	107	107	4.99827E-002	-3.13909E-002	0.00000E+000	-1.56900E-003	-3.10871E-001	3.50117E-002	2.76001E+001	11	...........	5.84701E-002	-3.68486E-003	5.57804E-001	6.86730E-001	-3.10481E-002	-3.94725E-002	6.45173E-001	-4.26686E-002	-1.83543E-003	1.15671E-004	-1.75100E-002	-2.15571E-002	9.74627E-004	1.23908E-003	-2.02526E-002	1.33941E-003
	108	108	4.99896E-002	-3.01850E-002	0.00000E+000	-1.50894E-003	-2.98905E-001	3.45224E-002	2.78338E+001	11	...........	5.75643E-002	-3.64903E-003	5.57688E-001	6.86743E-001	-3.10496E-002	-3.94728E-002	6.45278E-001	-4.26824E-002	-1.73758E-003	1.10146E-004	-1.68338E-002	-2.07293E-002	9.37231E-004	1.19149E-003	-1.94777E-002	1.28837E-003
	109	109	5.00000E-002	-3.01261E-002	0.00000E+000	-1.50630E-003	-2.98318E-001	3.48554E-002	2.78240E+001	11	...........	5.81178E-002	-3.61028E-003	5.57619E-001	6.86926E-001	-3.10379E-002	-3.94732E-002	6.45285E-001	-4.27442E-002	-1.75086E-003	1.08764E-004	-1.67989E-002	-2.06944E-002	9.35051E-004	1.18917E-003	-1.94399E-002	1.28771E-003
	110	110	4.99992E-002	-2.99675E-002	0.00000E+000	-1.49835E-003	-2.96743E-001	3.48283E-002	2.84171E+001	11	...........	5.80744E-002	-3.61458E-003	5.57562E-001	6.86989E-001	-3.10300E-002	-3.94592E-002	6.45016E-001	-4.27900E-002	-1.74035E-003	1.08320E-004	-1.67087E-002	-2.05874E-002	9.29892E-004	1.18249E-003	-1.93295E-002	1.28231E-003
	111	111	4.99764E-002	-2.95026E-002	0.00000E+000	-1.47444E-003	-2.92124E-001	3.47269E-002	2.81015E+001	11	...........	5.79031E-002	-3.57972E-003	5.57443E-001	6.87043E-001	-3.10065E-002	-3.94982E-002	6.45018E-001	-4.27243E-002	-1.70829E-003	1.05611E-004	-1.64460E-002	-2.02696E-002	9.14774E-004	1.16530E-003	-1.90297E-002	1.26048E-003
	112	112	5.00031E-002	-2.89710E-002	0.00000E+000	-1.44864E-003	-2.86829E-001	3.48761E-002	2.81026E+001	11	...........	5.81521E-002	-3.61208E-003	5.57466E-001	6.87007E-001	-3.09958E-002	-3.94999E-002	6.45150E-001	-4.26464E-002	-1.68473E-003	1.04646E-004	-1.61504E-002	-1.99033E-002	8.97981E-004	1.14435E-003	-1.86907E-002	1.23551E-003
	113	113	4.99853E-002	-2.86599E-002	0.00000E+000	-1.43257E-003	-2.83733E-001	3.46653E-002	2.81469E+001	11	...........	5.78143E-002	-3.52306E-003	5.57527E-001	6.87162E-001	-3.10029E-002	-3.95101E-002	6.45117E-001	-4.27262E-002	-1.65695E-003	1.00970E-004	-1.59786E-002	-1.96940E-002	8.88539E-004	1.13236E-003	-1.84890E-002	1.22453E-003
	114	114	4.99936E-002	-2.88150E-002	0.00000E+000	-1.44056E-003	-2.85279E-001	3.49008E-002	2.85368E+001	11	...........	5.81764E-002	-3.47139E-003	5.57276E-001	6.87145E-001	-3.09860E-002	-3.95343E-002	6.45255E-001	-4.26432E-002	-1.67635E-003	1.00028E-004	-1.60579E-002	-1.98001E-002	8.92859E-004	1.13918E-003	-1.85930E-002	1.22876E-003
	115	115	4.99750E-002	-2.81563E-002	0.00000E+000	-1.40711E-003	-2.78726E-001	3.48573E-002	2.79569E+001	11	...........	5.81231E-002	-3.51167E-003	5.57092E-001	6.87100E-001	-3.10139E-002	-3.95108E-002	6.45281E-001	-4.26182E-002	-1.63653E-003	9.88754E-005	-1.56856E-002	-1.93462E-002	8.73235E-004	1.11248E-003	-1.81687E-002	1.19997E-003
	116	116	4.99935E-002	-2.76255E-002	0.00000E+000	-1.38110E-003	-2.73447E-001	3.48497E-002	2.76669E+001	11	...........	5.80832E-002	-3.65764E-003	5.56965E-001	6.87196E-001	-3.10415E-002	-3.94722E-002	6.45233E-001	-4.26915E-002	-1.60458E-003	1.01044E-004	-1.53864E-002	-1.89841E-002	8.57538E-004	1.09044E-003	-1.78249E-002	1.17937E-003
	117	117	4.99933E-002	-2.76058E-002	0.00000E+000	-1.38010E-003	-2.73253E-001	3.49707E-002	2.83786E+001	11	...........	5.83056E-002	-3.77792E-003	5.57043E-001	6.87154E-001	-3.10426E-002	-3.94446E-002	6.45255E-001	-4.27242E-002	-1.60957E-003	1.04292E-004	-1.53776E-002	-1.89694E-002	8.56956E-004	1.08890E-003	-1.78127E-002	1.17943E-003
	118	118	4.99949E-002	-2.72219E-002	0.00000E+000	-1.36095E-003	-2.69439E-001	3.47277E-002	2.82549E+001	11	...........	5.79140E-002	-3.73528E-003	5.57115E-001	6.87144E-001	-3.10306E-002	-3.94506E-002	6.45047E-001	-4.27336E-002	-1.57653E-003	1.01681E-004	-1.51657E-002	-1.87054E-002	8.44710E-004	1.07392E-003	-1.75594E-002	1.16329E-003
	119	119	4.99914E-002	-2.70474E-002	0.00000E+000	-1.35214E-003	-2.67699E-001	3.50044E-002	2.80110E+001	11	...........	5.83821E-002	-3.75222E-003	5.57194E-001	6.87135E-001	-3.10040E-002	-3.94547E-002	6.44995E-001	-4.26604E-002	-1.57908E-003	1.01488E-004	-1.50706E-002	-1.85852E-002	8.38577E-004	1.06715E-003	-1.74454E-002	1.15385E-003
	120	120	4.99863E-002	-2.63774E-002	0.00000E+000	-1.31851E-003	-2.61034E-001	3.48252E-002	2.83133E+001	11	...........	5.80699E-002	-3.73792E-003	5.57134E-001	6.87128E-001	-3.10256E-002	-3.94329E-002	6.45084E-001	-4.26633E-002	-1.53173E-003	9.85965E-005	-1.46957E-002	-1.81246E-002	8.18373E-004	1.04014E-003	-1.70156E-002	1.12535E-003
	121	121	4.99838E-002	-2.60102E-002	0.00000E+000	-1.30009E-003	-2.57381E-001	3.48964E-002	2.86866E+001	11	...........	5.81944E-002	-3.70375E-003	5.56982E-001	6.87113E-001	-3.10253E-002	-3.94456E-002	6.45141E-001	-4.28736E-002	-1.51365E-003	9.63352E-005	-1.44872E-002	-1.78719E-002	8.06973E-004	1.02599E-003	-1.67802E-002	1.11515E-003
	122	122	5.00053E-002	-2.52868E-002	0.00000E+000	-1.26447E-003	-2.50187E-001	3.50651E-002	2.81065E+001	11	...........	5.84569E-002	-3.61681E-003	5.56931E-001	6.87070E-001	-3.10371E-002	-3.94607E-002	6.45058E-001	-4.28953E-002	-1.47819E-003	9.14575E-005	-1.40830E-002	-1.73738E-002	7.84829E-004	9.97835E-004	-1.63115E-002	1.08469E-003
	123	123	4.99846E-002	-2.51042E-002	0.00000E+000	-1.25482E-003	-2.48375E-001	3.47847E-002	2.77082E+001	11	...........	5.80060E-002	-3.59500E-003	5.57067E-001	6.87002E-001	-3.10235E-002	-3.94403E-002	6.44969E-001	-4.28036E-002	-1.45619E-003	9.02495E-005	-1.39847E-002	-1.72466E-002	7.78819E-004	9.90116E-004	-1.61914E-002	1.07455E-003
	124	124	4.99925E-002	-2.53759E-002	0.00000E+000	-1.26860E-003	-2.51078E-001	3.51163E-002	2.85132E+001	11	...........	5.85471E-002	-3.67667E-003	5.57172E-001	6.86789E-001	-3.09942E-002	-3.94614E-002	6.44922E-001	-4.26449E-002	-1.48568E-003	9.32987E-005	-1.41387E-002	-1.74279E-002	7.86505E-004	1.00137E-003	-1.63655E-002	1.08215E-003
	125	125	4.99873E-002	-2.47505E-002	0.00000E+000	-1.23721E-003	-2.44858E-001	3.49141E-002	2.79735E+001	11	...........	5.82125E-002	-3.62236E-003	5.57263E-001	6.86496E-001	-3.09937E-002	-3.94544E-002	6.44947E-001	-4.25810E-002	-1.44079E-003	8.96552E-005	-1.37925E-002	-1.69911E-002	7.67110E-004	9.76517E-004	-1.59627E-002	1.05390E-003
	126	126	4.99952E-002	-2.45796E-002	0.00000E+000	-1.22886E-003	-2.43160E-001	3.50376E-002	2.83223E+001	11	...........	5.84078E-002	-3.64653E-003	5.57273E-001	6.86597E-001	-3.10100E-002	-3.94469E-002	6.45093E-001	-4.27736E-002	-1.43564E-003	8.96302E-005	-1.36976E-002	-1.68763E-002	7.62214E-004	9.69591E-004	-1.58561E-002	1.05136E-003
	127	127	4.99948E-002	-2.44944E-002	0.00000E+000	-1.22459E-003	-2.42310E-001	3.51120E-002	2.88746E+001	11	...........	5.85367E-002	-3.75583E-003	5.57297E-001	6.86713E-001	-3.10300E-002	-3.94522E-002	6.45212E-001	-4.27361E-002	-1.43382E-003	9.19969E-005	-1.36507E-002	-1.68206E-002	7.60062E-004	9.66359E-004	-1.58041E-002	1.04680E-003
	128	128	4.99855E-002	-2.40819E-002	0.00000E+000	-1.20374E-003	-2.38209E-001	3.49734E-002	2.82984E+001	11	...........	5.83176E-002	-3.67153E-003	5.57230E-001	6.86666E-001	-3.10208E-002	-3.94643E-002	6.45241E-001	-4.26906E-002	-1.40440E-003	8.84172E-005	-1.34191E-002	-1.65362E-002	7.47039E-004	9.50374E-004	-1.55386E-002	1.02807E-003
	129	129	4.99955E-002	-2.37581E-002	0.00000E+000	-1.18780E-003	-2.34983E-001	3.49882E-002	2.84064E+001	11	...........	5.83394E-002	-3.60194E-003	5.57063E-001	6.86667E-001	-3.10064E-002	-3.94381E-002	6.45284E-001	-4.26954E-002	-1.38604E-003	8.55754E-005	-1.32348E-002	-1.63139E-002	7.36653E-004	9.36974E-004	-1.53307E-002	1.01436E-003
	130	130	4.99907E-002	-2.37746E-002	0.00000E+000	-1.18851E-003	-2.35149E-001	3.51609E-002	2.90096E+001	11	...........	5.86257E-002	-3.62222E-003	5.57055E-001	6.86620E-001	-3.09935E-002	-3.94449E-002	6.45223E-001	-4.28214E-002	-1.39380E-003	8.61170E-005	-1.32438E-002	-1.63241E-002	7.36859E-004	9.37787E-004	-1.53400E-002	1.01806E-003
	131	131	4.99918E-002	-2.31152E-002	0.00000E+000	-1.15557E-003	-2.28592E-001	3.50304E-002	2.82241E+001	11	...........	5.84192E-002	-3.61056E-003	5.57011E-001	6.86751E-001	-3.10186E-002	-3.94314E-002	6.45211E-001	-4.27700E-002	-1.35037E-003	8.34586E-005	-1.28754E-002	-1.58744E-002	7.17000E-004	9.11463E-004	-1.49142E-002	9.88636E-004
	132	132	4.99968E-002	-2.28820E-002	0.00000E+000	-1.14403E-003	-2.26275E-001	3.51031E-002	2.83447E+001	11	...........	5.85310E-002	-3.70333E-003	5.56939E-001	6.86818E-001	-3.10193E-002	-3.94207E-002	6.45183E-001	-4.27353E-002	-1.33931E-003	8.47397E-005	-1.27439E-002	-1.57158E-002	7.09784E-004	9.02025E-004	-1.47631E-002	9.77869E-004
	133	133	4.99937E-002	-2.27853E-002	0.00000E+000	-1.13912E-003	-2.25315E-001	3.51435E-002	2.86457E+001	11	...........	5.85911E-002	-3.76028E-003	5.56938E-001	6.86880E-001	-3.10290E-002	-3.94242E-002	6.45225E-001	-4.26662E-002	-1.33502E-003	8.56792E-005	-1.26900E-002	-1.56508E-002	7.07007E-004	8.98293E-004	-1.47017E-002	9.72165E-004
	134	134	4.99842E-002	-2.24321E-002	0.00000E+000	-1.12125E-003	-2.21800E-001	3.50405E-002	2.89433E+001	11	...........	5.84171E-002	-3.58042E-003	5.56885E-001	6.86868E-001	-3.10162E-002	-3.94107E-002	6.45229E-001	-4.26867E-002	-1.31042E-003	8.03162E-005	-1.24921E-002	-1.54079E-002	6.95759E-004	8.84064E-004	-1.44738E-002	9.57551E-004
	135	135	4.99873E-002	-2.22398E-002	0.00000E+000	-1.11171E-003	-2.19889E-001	3.52807E-002	2.89697E+001	11	...........	5.88317E-002	-3.54583E-003	5.56795E-001	6.86984E-001	-3.10218E-002	-3.94139E-002	6.45210E-001	-4.27572E-002	-1.30840E-003	7.88585E-005	-1.23830E-002	-1.52784E-002	6.89918E-004	8.76555E-004	-1.43493E-002	9.50910E-004
	136	136	4.99884E-002	-2.18841E-002	0.00000E+000	-1.09395E-003	-2.16355E-001	3.51092E-002	2.85481E+001	11	...........	5.85411E-002	-3.63625E-003	5.56686E-001	6.87223E-001	-3.10301E-002	-3.94217E-002	6.45178E-001	-4.28112E-002	-1.28112E-003	7.95762E-005	-1.21826E-002	-1.50393E-002	6.79068E-004	8.62709E-004	-1.41192E-002	9.36887E-004
	137	137	4.99888E-002	-2.13562E-002	0.00000E+000	-1.06757E-003	-2.11102E-001	3.51362E-002	2.84985E+001	11	...........	5.85851E-002	-3.65917E-003	5.56762E-001	6.87335E-001	-3.10237E-002	-3.94083E-002	6.45354E-001	-4.28300E-002	-1.25116E-003	7.81461E-005	-1.18903E-002	-1.46789E-002	6.62551E-004	8.41614E-004	-1.37823E-002	9.14688E-004
	138	138	4.99945E-002	-2.09455E-002	0.00000E+000	-1.04716E-003	-2.07021E-001	3.51491E-002	2.82847E+001	11	...........	5.86121E-002	-3.58333E-003	5.56871E-001	6.87269E-001	-3.10399E-002	-3.94271E-002	6.45300E-001	-4.27025E-002	-1.22766E-003	7.50546E-005	-1.16639E-002	-1.43952E-002	6.50145E-004	8.25819E-004	-1.35161E-002	8.94424E-004
	139	139	5.00055E-002	-2.10710E-002	0.00000E+000	-1.05367E-003	-2.08263E-001	3.51450E-002	2.88822E+001	11	...........	5.85957E-002	-3.59000E-003	5.56908E-001	6.87485E-001	-3.10554E-002	-3.94568E-002	6.45248E-001	-4.26903E-002	-1.23467E-003	7.56448E-005	-1.17346E-002	-1.44860E-002	6.54368E-004	8.31394E-004	-1.35960E-002	8.99526E-004
	140	140	4.99842E-002	-2.06460E-002	0.00000E+000	-1.03197E-003	-2.04047E-001	3.51887E-002	2.86476E+001	11	...........	5.86828E-002	-3.56319E-003	5.56928E-001	6.87511E-001	-3.10531E-002	-3.94426E-002	6.45313E-001	-4.27378E-002	-1.21156E-003	7.35657E-005	-1.14983E-002	-1.41943E-002	6.41121E-004	8.14332E-004	-1.33231E-002	8.82363E-004
	141	141	4.99991E-002	-2.05644E-002	0.00000E+000	-1.02820E-003	-2.03230E-001	3.51271E-002	2.84864E+001	11	...........	5.85736E-002	-3.55264E-003	5.56760E-001	6.87449E-001	-3.10542E-002	-3.94411E-002	6.45218E-001	-4.27215E-002	-1.20453E-003	7.30577E-005	-1.14494E-002	-1.41369E-002	6.38609E-004	8.11081E-004	-1.32685E-002	8.78541E-004
	142	142	4.99903E-002	-2.02781E-002	0.00000E+000	-1.01371E-003	-2.00388E-001	3.52445E-002	2.82733E+001	11	...........	5.87700E-002	-3.47097E-003	5.56671E-001	6.87560E-001	-3.10565E-002	-3.94458E-002	6.45365E-001	-4.27665E-002	-1.19174E-003	7.03847E-005	-1.12882E-002	-1.39424E-002	6.29767E-004	7.99886E-004	-1.30868E-002	8.67223E-004
	143	143	4.99841E-002	-1.97916E-002	0.00000E+000	-9.89267E-004	-1.95552E-001	3.51890E-002	2.85273E+001	11	...........	5.86661E-002	-3.59236E-003	5.56794E-001	6.87578E-001	-3.10385E-002	-3.94628E-002	6.45387E-001	-4.26418E-002	-1.16110E-003	7.10986E-005	-1.10199E-002	-1.36083E-002	6.14302E-004	7.81032E-004	-1.27732E-002	8.43950E-004
	144	144	5.00004E-002	-1.96509E-002	0.00000E+000	-9.82553E-004	-1.94150E-001	3.52813E-002	2.77708E+001	11	...........	5.88053E-002	-3.47792E-003	5.56682E-001	6.87384E-001	-3.10254E-002	-3.94847E-002	6.45370E-001	-4.26550E-002	-1.15558E-003	6.83441E-005	-1.09393E-002	-1.35077E-002	6.09677E-004	7.75910E-004	-1.26821E-002	8.38209E-004
	145	145	4.99834E-002	-1.95178E-002	0.00000E+000	-9.75565E-004	-1.92831E-001	3.52172E-002	2.92329E+001	11	...........	5.87079E-002	-3.41778E-003	5.56700E-001	6.87280E-001	-3.10072E-002	-3.95021E-002	6.45234E-001	-4.26182E-002	-1.14585E-003	6.67074E-005	-1.08655E-002	-1.34142E-002	6.05192E-004	7.70993E-004	-1.25935E-002	8.31812E-004
	146	146	4.99918E-002	-1.94744E-002	0.00000E+000	-9.73558E-004	-1.92399E-001	3.53786E-002	2.84604E+001	11	...........	5.89887E-002	-3.60444E-003	5.56739E-001	6.87300E-001	-3.09842E-002	-3.95093E-002	6.45196E-001	-4.26585E-002	-1.14877E-003	7.01943E-005	-1.08421E-002	-1.33847E-002	6.03397E-004	7.69419E-004	-1.25648E-002	8.30747E-004
	147	147	4.99914E-002	-1.90920E-002	0.00000E+000	-9.54436E-004	-1.88599E-001	3.51323E-002	2.87518E+001	11	...........	5.85828E-002	-3.68736E-003	5.56712E-001	6.87353E-001	-3.09824E-002	-3.95026E-002	6.45223E-001	-4.25914E-002	-1.11846E-003	7.03991E-005	-1.06288E-002	-1.31230E-002	5.91516E-004	7.54185E-004	-1.23186E-002	8.13155E-004
	148	148	4.99934E-002	-1.89925E-002	0.00000E+000	-9.49502E-004	-1.87608E-001	3.53592E-002	2.89111E+001	11	...........	5.89617E-002	-3.74208E-003	5.56696E-001	6.87389E-001	-3.09889E-002	-3.95017E-002	6.45157E-001	-4.26740E-002	-1.11983E-003	7.10717E-005	-1.05731E-002	-1.30553E-002	5.88558E-004	7.50237E-004	-1.22532E-002	8.10488E-004
	149	149	4.99975E-002	-1.86453E-002	0.00000E+000	-9.32218E-004	-1.84147E-001	3.54150E-002	2.87132E+001	11	...........	5.90525E-002	-3.54208E-003	5.56688E-001	6.87332E-001	-3.09826E-002	-3.95032E-002	6.45257E-001	-4.27787E-002	-1.10105E-003	6.60431E-005	-1.03796E-002	-1.28155E-002	5.77680E-004	7.36548E-004	-1.20310E-002	7.97622E-004
	150	150	4.99812E-002	-1.84979E-002	0.00000E+000	-9.24545E-004	-1.82685E-001	3.52231E-002	2.93863E+001	11	...........	5.87306E-002	-3.57583E-003	5.56571E-001	6.87180E-001	-3.09718E-002	-3.94956E-002	6.45294E-001	-4.27517E-002	-1.08639E-003	6.61453E-005	-1.02954E-002	-1.27114E-002	5.72912E-004	7.30583E-004	-1.19366E-002	7.90815E-004
	151	151	4.99943E-002	-1.79678E-002	0.00000E+000	-8.98288E-004	-1.77421E-001	3.53068E-002	2.82012E+001	11	...........	5.88618E-002	-3.56500E-003	5.56489E-001	6.87212E-001	-3.09596E-002	-3.94835E-002	6.45326E-001	-4.25911E-002	-1.05762E-003	6.40553E-005	-9.99890E-003	-1.23477E-002	5.56276E-004	7.09432E-004	-1.15951E-002	7.65269E-004
	152	152	5.00047E-002	-1.79222E-002	0.00000E+000	-8.96193E-004	-1.76962E-001	3.51937E-002	2.88359E+001	11	...........	5.86851E-002	-3.52458E-003	5.56427E-001	6.87291E-001	-3.09718E-002	-3.94644E-002	6.45362E-001	-4.25503E-002	-1.05177E-003	6.31682E-005	-9.97238E-003	-1.23177E-002	5.55082E-004	7.07289E-004	-1.15663E-002	7.62593E-004
	153	153	4.99869E-002	-1.79892E-002	0.00000E+000	-8.99224E-004	-1.77635E-001	3.53882E-002	2.93040E+001	11	...........	5.90099E-002	-3.61819E-003	5.56404E-001	6.87397E-001	-3.09824E-002	-3.94624E-002	6.45347E-001	-4.25864E-002	-1.06154E-003	6.50883E-005	-1.00093E-002	-1.23657E-002	5.57347E-004	7.09895E-004	-1.16093E-002	7.66094E-004
	154	154	4.99910E-002	-1.74299E-002	0.00000E+000	-8.71339E-004	-1.72064E-001	3.53899E-002	2.84895E+001	11	...........	5.90056E-002	-3.69319E-003	5.56450E-001	6.87451E-001	-3.09775E-002	-3.94751E-002	6.45447E-001	-4.26131E-002	-1.02846E-003	6.43720E-005	-9.69887E-003	-1.19822E-002	5.39935E-004	6.88048E-004	-1.12501E-002	7.42742E-004
	155	155	4.99954E-002	-1.71516E-002	0.00000E+000	-8.57500E-004	-1.69294E-001	3.53332E-002	2.89150E+001	11	...........	5.89076E-002	-3.62278E-003	5.56367E-001	6.87527E-001	-3.09982E-002	-3.94767E-002	6.45478E-001	-4.26115E-002	-1.01036E-003	6.21363E-005	-9.54256E-003	-1.17922E-002	5.31667E-004	6.77087E-004	-1.10710E-002	7.30854E-004
	156	156	4.99863E-002	-1.71279E-002	0.00000E+000	-8.56159E-004	-1.69061E-001	3.53002E-002	2.87203E+001	11	...........	5.88382E-002	-3.57764E-003	5.56285E-001	6.87293E-001	-3.10186E-002	-3.94535E-002	6.45467E-001	-4.25517E-002	-1.00777E-003	6.12773E-005	-9.52797E-003	-1.17719E-002	5.31283E-004	6.75754E-004	-1.10555E-002	7.28819E-004
	157	157	4.99971E-002	-1.69162E-002	0.00000E+000	-8.45760E-004	-1.66957E-001	3.54457E-002	2.92452E+001	11	...........	5.91131E-002	-3.57125E-003	5.56330E-001	6.87313E-001	-3.10317E-002	-3.94444E-002	6.45450E-001	-4.25544E-002	-9.99968E-004	6.04120E-005	-9.41098E-003	-1.16267E-002	5.24938E-004	6.67250E-004	-1.09186E-002	7.19859E-004
	158	158	4.99883E-002	-1.68779E-002	0.00000E+000	-8.43698E-004	-1.66575E-001	3.53593E-002	2.86289E+001	11	...........	5.89633E-002	-3.62667E-003	5.56330E-001	6.87384E-001	-3.10394E-002	-3.94581E-002	6.45456E-001	-4.25215E-002	-9.95178E-004	6.12106E-005	-9.38969E-003	-1.16016E-002	5.23881E-004	6.65970E-004	-1.08939E-002	7.17675E-004
	159	159	4.99999E-002	-1.65314E-002	0.00000E+000	-8.26570E-004	-1.63133E-001	3.53574E-002	2.87849E+001	11	...........	5.89387E-002	-3.58347E-003	5.56275E-001	6.87518E-001	-3.10293E-002	-3.94744E-002	6.45295E-001	-4.27139E-002	-9.74341E-004	5.92399E-005	-9.19602E-003	-1.13657E-002	5.12958E-004	6.52568E-004	-1.06676E-002	7.06121E-004
	160	160	4.99869E-002	-1.61745E-002	0.00000E+000	-8.08515E-004	-1.59578E-001	3.52655E-002	2.89444E+001	11	...........	5.88149E-002	-3.66569E-003	5.56202E-001	6.87656E-001	-3.10254E-002	-3.94801E-002	6.45321E-001	-4.27015E-002	-9.51303E-004	5.92909E-005	-8.99630E-003	-1.11225E-002	5.01822E-004	6.38573E-004	-1.04378E-002	6.90678E-004
	161	161	4.99959E-002	-1.62604E-002	0.00000E+000	-8.12954E-004	-1.60432E-001	3.55471E-002	2.94858E+001	11	...........	5.92908E-002	-3.65625E-003	5.56090E-001	6.87526E-001	-3.09982E-002	-3.94967E-002	6.45353E-001	-4.26486E-002	-9.64095E-004	5.94522E-005	-9.04226E-003	-1.11795E-002	5.04044E-004	6.42233E-004	-1.04937E-002	6.93485E-004
	162	162	4.99882E-002	-1.60334E-002	0.00000E+000	-8.01483E-004	-1.58171E-001	3.54038E-002	2.87944E+001	11	...........	5.90382E-002	-3.64569E-003	5.56094E-001	6.87492E-001	-3.10047E-002	-3.95015E-002	6.45432E-001	-4.27388E-002	-9.46585E-004	5.84530E-005	-8.91610E-003	-1.10229E-002	4.97112E-004	6.33345E-004	-1.03485E-002	6.85249E-004
	163	163	4.99958E-002	-1.57615E-002	0.00000E+000	-7.88010E-004	-1.55464E-001	3.53964E-002	2.88411E+001	11	...........	5.90160E-002	-3.66708E-003	5.56279E-001	6.87261E-001	-3.10083E-002	-3.94812E-002	6.45448E-001	-4.26904E-002	-9.30181E-004	5.77988E-005	-8.76780E-003	-1.08323E-002	4.88738E-004	6.22284E-004	-1.01732E-002	6.72866E-004
	164	164	4.99907E-002	-1.56547E-002	0.00000E+000	-7.82589E-004	-1.54406E-001	3.53857E-002	2.91235E+001	11	...........	5.90153E-002	-3.68917E-003	5.56404E-001	6.87003E-001	-3.10137E-002	-3.94458E-002	6.45483E-001	-4.26907E-002	-9.23865E-004	5.77527E-005	-8.71033E-003	-1.07548E-002	4.85510E-004	6.17512E-004	-1.01048E-002	6.68309E-004
	165	165	4.99919E-002	-1.55425E-002	0.00000E+000	-7.77000E-004	-1.53291E-001	3.54322E-002	2.90335E+001	11	...........	5.90922E-002	-3.64958E-003	5.56407E-001	6.87018E-001	-3.10225E-002	-3.94324E-002	6.45355E-001	-4.26433E-002	-9.18443E-004	5.67238E-005	-8.64797E-003	-1.06780E-002	4.82168E-004	6.12879E-004	-1.00304E-002	6.62785E-004
	166	166	4.99938E-002	-1.53207E-002	0.00000E+000	-7.65940E-004	-1.51087E-001	3.54872E-002	2.91870E+001	11	...........	5.91685E-002	-3.63097E-003	5.56341E-001	6.86971E-001	-3.10006E-002	-3.94308E-002	6.45250E-001	-4.26036E-002	-9.06503E-004	5.56291E-005	-8.52354E-003	-1.05249E-002	4.74950E-004	6.04108E-004	-9.88569E-003	6.52717E-004
	167	167	4.99933E-002	-1.52665E-002	0.00000E+000	-7.63222E-004	-1.50550E-001	3.54580E-002	2.89775E+001	11	...........	5.91317E-002	-3.67583E-003	5.56380E-001	6.86979E-001	-3.10012E-002	-3.94233E-002	6.45244E-001	-4.26453E-002	-9.02732E-004	5.61170E-005	-8.49397E-003	-1.04877E-002	4.73280E-004	6.01855E-004	-9.85060E-003	6.51043E-004
	168	168	4.99921E-002	-1.51101E-002	0.00000E+000	-7.55384E-004	-1.48991E-001	3.54887E-002	2.91050E+001	11	...........	5.91635E-002	-3.67167E-003	5.56398E-001	6.86936E-001	-3.10067E-002	-3.94407E-002	6.45196E-001	-4.27189E-002	-8.93963E-004	5.54791E-005	-8.40720E-003	-1.03796E-002	4.68512E-004	5.95951E-004	-9.74895E-003	6.45485E-004
	169	169	4.99953E-002	-1.47043E-002	0.00000E+000	-7.35145E-004	-1.44949E-001	3.54506E-002	2.85652E+001	11	...........	5.91008E-002	-3.58986E-003	5.56326E-001	6.86947E-001	-3.09906E-002	-3.94600E-002	6.45238E-001	-4.26944E-002	-8.69035E-004	5.27863E-005	-8.18037E-003	-1.01010E-002	4.55693E-004	5.80230E-004	-9.48776E-003	6.27791E-004
	170	170	4.99929E-002	-1.46980E-002	0.00000E+000	-7.34796E-004	-1.44886E-001	3.53616E-002	2.97023E+001	11	...........	5.89572E-002	-3.64931E-003	5.56407E-001	6.86880E-001	-3.09922E-002	-3.94561E-002	6.45203E-001	-4.26432E-002	-8.66555E-004	5.36376E-005	-8.17809E-003	-1.00958E-002	4.55524E-004	5.79927E-004	-9.48321E-003	6.26771E-004
	171	171	4.99892E-002	-1.44425E-002	0.00000E+000	-7.21969E-004	-1.42344E-001	3.55893E-002	2.87044E+001	11	...........	5.93511E-002	-3.67556E-003	5.56522E-001	6.86863E-001	-3.10035E-002	-3.94456E-002	6.45225E-001	-4.26581E-002	-8.57177E-004	5.30842E-005	-8.03756E-003	-9.92000E-003	4.47767E-004	5.69692E-004	-9.31865E-003	6.16088E-004
	172	172	4.99971E-002	-1.43137E-002	0.00000E+000	-7.15645E-004	-1.41070E-001	3.53935E-002	2.93218E+001	11	...........	5.90082E-002	-3.56611E-003	5.56451E-001	6.87021E-001	-3.09885E-002	-3.94353E-002	6.45160E-001	-4.26801E-002	-8.44628E-004	5.10444E-005	-7.96489E-003	-9.83384E-003	4.43561E-004	5.64466E-004	-9.23466E-003	6.10912E-004
	173	173	4.99929E-002	-1.42081E-002	0.00000E+000	-7.10305E-004	-1.40021E-001	3.55343E-002	2.91720E+001	11	...........	5.92546E-002	-3.54778E-003	5.56526E-001	6.87238E-001	-3.09851E-002	-3.94242E-002	6.45251E-001	-4.25819E-002	-8.41896E-004	5.04072E-005	-7.90718E-003	-9.76436E-003	4.40241E-004	5.60143E-004	-9.16780E-003	6.05009E-004
	174	174	4.99943E-002	-1.39851E-002	0.00000E+000	-6.99174E-004	-1.37807E-001	3.54562E-002	2.90425E+001	11	...........	5.91353E-002	-3.57819E-003	5.56490E-001	6.87340E-001	-3.09892E-002	-3.94385E-002	6.45216E-001	-4.25911E-002	-8.27011E-004	5.00413E-005	-7.78254E-003	-9.61249E-003	4.33386E-004	5.51550E-004	-9.02339E-003	5.95640E-004
	175	175	4.99972E-002	-1.40183E-002	0.00000E+000	-7.00875E-004	-1.38133E-001	3.55887E-002	2.92292E+001	11	...........	5.93383E-002	-3.57000E-003	5.56432E-001	6.87341E-001	-3.09826E-002	-3.94379E-002	6.45255E-001	-4.26976E-002	-8.31821E-004	5.00453E-005	-7.80022E-003	-9.63534E-003	4.34323E-004	5.52852E-004	-9.04536E-003	5.98548E-004
	176	176	4.99875E-002	-1.37415E-002	0.00000E+000	-6.86901E-004	-1.35377E-001	3.54372E-002	2.90970E+001	11	...........	5.90807E-002	-3.55361E-003	5.56330E-001	6.87289E-001	-3.09956E-002	-3.94353E-002	6.45339E-001	-4.27581E-002	-8.11856E-004	4.88318E-005	-7.64480E-003	-9.44436E-003	4.25924E-004	5.41899E-004	-8.86790E-003	5.87559E-004
	177	177	4.99860E-002	-1.34075E-002	0.00000E+000	-6.70186E-004	-1.32059E-001	3.55352E-002	2.90432E+001	11	...........	5.92506E-002	-3.48278E-003	5.56240E-001	6.87534E-001	-3.10135E-002	-3.94392E-002	6.45342E-001	-4.27883E-002	-7.94400E-004	4.66952E-005	-7.45777E-003	-9.21810E-003	4.15812E-004	5.28780E-004	-8.65240E-003	5.73683E-004
	178	178	4.99952E-002	-1.32157E-002	0.00000E+000	-6.60720E-004	-1.30146E-001	3.55434E-002	2.85240E+001	11	...........	5.92582E-002	-3.52431E-003	5.56274E-001	6.87561E-001	-3.10435E-002	-3.94528E-002	6.45394E-001	-4.25633E-002	-7.83136E-004	4.65760E-005	-7.35153E-003	-9.08658E-003	4.10260E-004	5.21395E-004	-8.52931E-003	5.62503E-004
	179	179	4.99959E-002	-1.32872E-002	0.00000E+000	-6.64305E-004	-1.30854E-001	3.54282E-002	2.88864E+001	11	...........	5.93249E-002	-3.55278E-003	5.56220E-001	6.87522E-001	-3.10258E-002	-3.94514E-002	6.45389E-001	-4.24274E-002	-7.88260E-004	4.72064E-005	-7.39059E-003	-9.13523E-003	4.12246E-004	5.24198E-004	-8.57540E-003	5.63740E-004
	180	180	4.99905E-002	-1.30956E-002	0.00000E+000	-6.54654E-004	-1.28954E-001	3.55567E-002	2.90094E+001	11	...........	5.92786E-002	-3.62819E-003	5.56134E-001	6.87382E-001	-3.10333E-002	-3.94317E-002	6.45333E-001	-4.24792E-002	-7.76287E-004	4.75133E-005	-7.28289E-003	-9.00167E-003	4.06399E-004	5.16380E-004	-8.45101E-003	5.56289E-004
	181	181	4.99921E-002	-1.28086E-002	0.00000E+000	-6.40331E-004	-1.26101E-001	3.55691E-002	2.87480E+001	11	...........	5.93037E-002	-3.59583E-003	5.56051E-001	6.87293E-001	-3.10631E-002	-3.94372E-002	6.45392E-001	-4.25894E-002	-7.59600E-004	4.60577E-005	-7.12226E-003	-8.80329E-003	3.97875E-004	5.05137E-004	-8.26660E-003	5.45512E-004
	182	182	4.99946E-002	-1.25624E-002	0.00000E+000	-6.28053E-004	-1.23653E-001	3.55235E-002	2.88248E+001	11	...........	5.92347E-002	-3.60431E-003	5.56148E-001	6.87384E-001	-3.10574E-002	-3.94135E-002	6.45405E-001	-4.25467E-002	-7.44132E-004	4.52788E-005	-6.98657E-003	-8.63521E-003	3.90156E-004	4.95129E-004	-8.10786E-003	5.34490E-004
	183	183	4.99971E-002	-1.25905E-002	0.00000E+000	-6.29490E-004	-1.23932E-001	3.56933E-002	2.89409E+001	11	...........	5.95099E-002	-3.69278E-003	5.56223E-001	6.87334E-001	-3.10854E-002	-3.94054E-002	6.45361E-001	-4.25203E-002	-7.49261E-004	4.64940E-005	-7.00314E-003	-8.65390E-003	3.91382E-004	4.96135E-004	-8.12544E-003	5.35353E-004
	184	184	4.99941E-002	-1.26179E-002	0.00000E+000	-6.30819E-004	-1.24206E-001	3.55921E-002	2.90477E+001	11	...........	5.93406E-002	-3.72778E-003	5.56029E-001	6.87471E-001	-3.10683E-002	-3.94536E-002	6.45634E-001	-4.26389E-002	-7.48752E-004	4.70367E-005	-7.01591E-003	-8.67443E-003	3.92017E-004	4.97821E-004	-8.14654E-003	5.38013E-004
	185	185	4.99933E-002	-1.23671E-002	0.00000E+000	-6.18272E-004	-1.21706E-001	3.55435E-002	2.91357E+001	11	...........	5.92760E-002	-3.67250E-003	5.56004E-001	6.87519E-001	-3.11026E-002	-3.94490E-002	6.45602E-001	-4.26544E-002	-7.33073E-004	4.54182E-005	-6.87616E-003	-8.50262E-003	3.84650E-004	4.87871E-004	-7.98423E-003	5.27512E-004
	186	186	4.99861E-002	-1.19458E-002	0.00000E+000	-5.97122E-004	-1.17516E-001	3.54897E-002	2.85783E+001	11	...........	5.91646E-002	-3.60083E-003	5.55995E-001	6.87541E-001	-3.11229E-002	-3.94753E-002	6.45538E-001	-4.27528E-002	-7.06766E-004	4.30147E-005	-6.64178E-003	-8.21319E-003	3.71787E-004	4.71562E-004	-7.71144E-003	5.10714E-004
	187	187	5.00016E-002	-1.20056E-002	0.00000E+000	-6.00298E-004	-1.18107E-001	3.56176E-002	2.89138E+001	11	...........	5.93917E-002	-3.53833E-003	5.56071E-001	6.87448E-001	-3.10949E-002	-3.94574E-002	6.45410E-001	-4.26957E-002	-7.13031E-004	4.24797E-005	-6.67595E-003	-8.25321E-003	3.73312E-004	4.73709E-004	-7.74852E-003	5.12587E-004
	188	188	4.99950E-002	-1.20525E-002	0.00000E+000	-6.02566E-004	-1.18574E-001	3.58231E-002	2.96664E+001	11	...........	5.97310E-002	-3.47528E-003	5.56041E-001	6.87391E-001	-3.11017E-002	-3.94332E-002	6.45418E-001	-4.27114E-002	-7.19910E-004	4.18859E-005	-6.70170E-003	-8.28480E-003	3.74854E-004	4.75270E-004	-7.77892E-003	5.14781E-004
	189	189	4.99899E-002	-1.16430E-002	0.00000E+000	-5.82033E-004	-1.14511E-001	3.55558E-002	2.84016E+001	11	...........	5.92761E-002	-3.60653E-003	5.56053E-001	6.87467E-001	-3.10974E-002	-3.94490E-002	6.45488E-001	-4.28247E-002	-6.90151E-004	4.19908E-005	-6.47412E-003	-8.00417E-003	3.62066E-004	4.59305E-004	-7.51542E-003	4.98608E-004
	190	190	4.99876E-002	-1.14026E-002	0.00000E+000	-5.69987E-004	-1.12117E-001	3.54522E-002	2.91793E+001	11	...........	5.91069E-002	-3.62778E-003	5.56232E-001	6.87477E-001	-3.10606E-002	-3.94633E-002	6.45556E-001	-4.28449E-002	-6.73970E-004	4.13659E-005	-6.34247E-003	-7.83899E-003	3.54170E-004	4.49983E-004	-7.36099E-003	4.88541E-004
	191	191	4.99994E-002	-1.16590E-002	0.00000E+000	-5.82942E-004	-1.14667E-001	3.59519E-002	2.91607E+001	11	...........	5.99506E-002	-3.61597E-003	5.56354E-001	6.87394E-001	-3.10779E-002	-3.94468E-002	6.45674E-001	-4.27587E-002	-6.98962E-004	4.21586E-005	-6.48652E-003	-8.01431E-003	3.62337E-004	4.59910E-004	-7.52791E-003	4.98523E-004
	192	192	4.99929E-002	-1.14522E-002	0.00000E+000	-5.72531E-004	-1.12613E-001	3.55818E-002	2.94152E+001	11	...........	5.93547E-002	-3.55792E-003	5.56417E-001	6.87471E-001	-3.11035E-002	-3.94635E-002	6.45628E-001	-4.27360E-002	-6.79745E-004	4.07461E-005	-6.37223E-003	-7.87309E-003	3.56205E-004	4.51945E-004	-7.39390E-003	4.89423E-004
	193	193	4.99909E-002	-1.13227E-002	0.00000E+000	-5.66029E-004	-1.11323E-001	3.55268E-002	2.90923E+001	11	...........	5.92225E-002	-3.42236E-003	5.56295E-001	6.87512E-001	-3.10875E-002	-3.94614E-002	6.45556E-001	-4.26425E-002	-6.70556E-004	3.87502E-005	-6.29873E-003	-7.78446E-003	3.51993E-004	4.46808E-004	-7.30941E-003	4.82826E-004
	194	194	4.99959E-002	-1.13257E-002	0.00000E+000	-5.66238E-004	-1.11357E-001	3.58345E-002	2.94220E+001	11	...........	5.97436E-002	-3.50028E-003	5.56158E-001	6.87546E-001	-3.10643E-002	-3.94572E-002	6.45582E-001	-4.26658E-002	-6.76637E-004	3.96430E-005	-6.29886E-003	-7.78692E-003	3.51824E-004	4.46880E-004	-7.31165E-003	4.83219E-004
	195	195	4.99925E-002	-1.11828E-002	0.00000E+000	-5.59053E-004	-1.09930E-001	3.56408E-002	2.90337E+001	11	...........	5.94226E-002	-3.60486E-003	5.55993E-001	6.87566E-001	-3.10499E-002	-3.94583E-002	6.45737E-001	-4.26046E-002	-6.64509E-004	4.03123E-005	-6.21754E-003	-7.68889E-003	3.47223E-004	4.41253E-004	-7.22112E-003	4.76437E-004
	196	196	4.99966E-002	-1.09923E-002	0.00000E+000	-5.49576E-004	-1.08033E-001	3.54072E-002	2.90932E+001	11	...........	5.90565E-002	-3.55014E-003	5.56039E-001	6.87582E-001	-3.10201E-002	-3.94954E-002	6.45648E-001	-4.25826E-002	-6.49165E-004	3.90241E-005	-6.11213E-003	-7.55809E-003	3.40982E-004	4.34144E-004	-7.09714E-003	4.68080E-004
	197	197	4.99918E-002	-1.10119E-002	0.00000E+000	-5.50505E-004	-1.08231E-001	3.58897E-002	2.94274E+001	11	...........	5.98386E-002	-3.55778E-003	5.56263E-001	6.87642E-001	-3.10365E-002	-3.94797E-002	6.45561E-001	-4.24682E-002	-6.58938E-004	3.91779E-005	-6.12552E-003	-7.57226E-003	3.41772E-004	4.34747E-004	-7.10886E-003	4.67656E-004
	198	198	4.99928E-002	-1.07907E-002	0.00000E+000	-5.39459E-004	-1.06028E-001	3.56021E-002	2.90734E+001	11	...........	5.93706E-002	-3.61069E-003	5.56291E-001	6.87596E-001	-3.10518E-002	-3.94833E-002	6.45300E-001	-4.26157E-002	-6.40652E-004	3.89621E-005	-6.00279E-003	-7.41967E-003	3.35072E-004	4.26054E-004	-6.96327E-003	4.59855E-004
	199	199	4.99937E-002	-1.07267E-002	0.00000E+000	-5.36269E-004	-1.05387E-001	3.57132E-002	2.92677E+001	11	...........	5.95722E-002	-3.62806E-003	5.56304E-001	6.87491E-001	-3.10257E-002	-3.95017E-002	6.45317E-001	-4.26556E-002	-6.39015E-004	3.89171E-005	-5.96732E-003	-7.37453E-003	3.32804E-004	4.23723E-004	-6.92214E-003	4.57554E-004
	200	200	4.99956E-002	-1.06989E-002	0.00000E+000	-5.34899E-004	-1.05113E-001	3.58189E-002	2.98869E+001	11	...........	5.97271E-002	-3.61514E-003	5.56342E-001	6.87381E-001	-3.10036E-002	-3.95200E-002	6.45278E-001	-4.27587E-002	-6.39016E-004	3.86781E-005	-5.95226E-003	-7.35424E-003	3.31705E-004	4.22822E-004	-6.90378E-003	4.57473E-004
	201	201	4.99917E-002	-1.04270E-002	0.00000E+000	-5.21265E-004	-1.02433E-001	3.55622E-002	2.91553E+001	11	...........	5.93050E-002	-3.57972E-003	5.56351E-001	6.87366E-001	-3.10117E-002	-3.95356E-002	6.45271E-001	-4.27171E-002	-6.18375E-004	3.73259E-005	-5.80109E-003	-7.16719E-003	3.23360E-004	4.12239E-004	-6.72827E-003	4.45413E-004
	202	202	4.99934E-002	-1.03590E-002	0.00000E+000	-5.17880E-004	-1.01761E-001	3.57340E-002	2.93924E+001	11	...........	5.95937E-002	-3.56361E-003	5.56384E-001	6.87467E-001	-3.10487E-002	-3.95287E-002	6.45238E-001	-4.26340E-002	-6.17329E-004	3.69153E-005	-5.76356E-003	-7.12143E-003	3.21633E-004	4.09476E-004	-6.68399E-003	4.41644E-004
	203	203	4.99949E-002	-1.02580E-002	0.00000E+000	-5.12846E-004	-1.00771E-001	3.57162E-002	2.96172E+001	11	...........	5.95540E-002	-3.56333E-003	5.56601E-001	6.87508E-001	-3.10500E-002	-3.95335E-002	6.45353E-001	-4.26396E-002	-6.10903E-004	3.65526E-005	-5.70959E-003	-7.05243E-003	3.18510E-004	4.05533E-004	-6.62001E-003	4.37396E-004
	204	204	4.99956E-002	-1.02340E-002	0.00000E+000	-5.11656E-004	-1.00535E-001	3.57677E-002	2.97659E+001	11	...........	5.96343E-002	-3.63236E-003	5.56680E-001	6.87415E-001	-3.10721E-002	-3.95106E-002	6.45521E-001	-4.26149E-002	-6.10299E-004	3.71737E-005	-5.69708E-003	-7.03503E-003	3.17993E-004	4.04352E-004	-6.60629E-003	4.36122E-004
	205	205	4.99905E-002	-1.01169E-002	0.00000E+000	-5.05748E-004	-9.93660E-002	3.57292E-002	2.92102E+001	11	...........	5.95797E-002	-3.49847E-003	5.56478E-001	6.87502E-001	-3.10524E-002	-3.94878E-002	6.45392E-001	-4.26157E-002	-6.02761E-004	3.53936E-005	-5.62982E-003	-6.95538E-003	3.14153E-004	3.99493E-004	-6.52935E-003	4.31138E-004
	206	206	4.99955E-002	-1.00167E-002	0.00000E+000	-5.00791E-004	-9.83673E-002	3.57514E-002	2.98559E+001	11	...........	5.96133E-002	-3.48028E-003	5.56422E-001	6.87575E-001	-3.10546E-002	-3.94867E-002	6.45393E-001	-4.26578E-002	-5.97130E-004	3.48610E-005	-5.57353E-003	-6.88725E-003	3.11065E-004	3.95527E-004	-6.46473E-003	4.27291E-004
	207	207	4.99902E-002	-9.86331E-003	0.00000E+000	-4.93069E-004	-9.68413E-002	3.56102E-002	2.86979E+001	11	...........	5.93776E-002	-3.62861E-003	5.56484E-001	6.87634E-001	-3.10428E-002	-3.94983E-002	6.45423E-001	-4.26181E-002	-5.85660E-004	3.57901E-005	-5.48877E-003	-6.78235E-003	3.06185E-004	3.89584E-004	-6.36600E-003	4.20355E-004
	208	208	4.99976E-002	-9.79898E-003	0.00000E+000	-4.89926E-004	-9.62000E-002	3.58448E-002	2.95120E+001	11	...........	5.97768E-002	-3.57208E-003	5.56471E-001	6.87709E-001	-3.10410E-002	-3.95167E-002	6.45426E-001	-4.26587E-002	-5.85752E-004	3.50028E-005	-5.45285E-003	-6.73885E-003	3.04170E-004	3.87223E-004	-6.32451E-003	4.18012E-004
	209	209	4.99942E-002	-9.75520E-003	0.00000E+000	-4.87703E-004	-9.57680E-002	3.56961E-002	2.95783E+001	11	...........	5.95212E-002	-3.59444E-003	5.56573E-001	6.87699E-001	-3.10479E-002	-3.95014E-002	6.45349E-001	-4.26249E-002	-5.80642E-004	3.50645E-005	-5.42948E-003	-6.70864E-003	3.02879E-004	3.85344E-004	-6.29551E-003	4.15814E-004
	210	210	4.99897E-002	-9.65366E-003	0.00000E+000	-4.82583E-004	-9.47533E-002	3.58572E-002	2.97723E+001	11	...........	5.97768E-002	-3.51153E-003	5.56450E-001	6.87893E-001	-3.10639E-002	-3.95115E-002	6.45328E-001	-4.26662E-002	-5.77065E-004	3.38991E-005	-5.37178E-003	-6.64068E-003	2.99880E-004	3.81431E-004	-6.22978E-003	4.11886E-004
	211	211	4.99946E-002	-9.47397E-003	0.00000E+000	-4.73647E-004	-9.29680E-002	3.58474E-002	2.94749E+001	11	...........	5.97571E-002	-3.52750E-003	5.56399E-001	6.87954E-001	-3.10524E-002	-3.95274E-002	6.45312E-001	-4.26635E-002	-5.66137E-004	3.34194E-005	-5.27131E-003	-6.51765E-003	2.94189E-004	3.74481E-004	-6.11366E-003	4.04192E-004
	212	212	4.99964E-002	-9.47006E-003	0.00000E+000	-4.73469E-004	-9.29260E-002	3.57807E-002	2.93377E+001	11	...........	5.96721E-002	-3.71431E-003	5.56274E-001	6.87910E-001	-3.10365E-002	-3.95299E-002	6.45309E-001	-4.26149E-002	-5.65098E-004	3.51747E-005	-5.26794E-003	-6.51455E-003	2.93918E-004	3.74350E-004	-6.11111E-003	4.03565E-004
	213	213	4.99932E-002	-9.38087E-003	0.00000E+000	-4.68980E-004	-9.20433E-002	3.57697E-002	2.95850E+001	11	...........	5.96404E-002	-3.71750E-003	5.56212E-001	6.87992E-001	-3.10489E-002	-3.95233E-002	6.45309E-001	-4.26358E-002	-5.59479E-004	3.48734E-005	-5.21775E-003	-6.45397E-003	2.91266E-004	3.70763E-004	-6.05355E-003	3.99961E-004
	214	214	4.99943E-002	-9.30293E-003	0.00000E+000	-4.65094E-004	-9.12640E-002	3.57875E-002	2.93539E+001	11	...........	5.96671E-002	-3.66569E-003	5.56261E-001	6.87911E-001	-3.10393E-002	-3.95215E-002	6.45317E-001	-4.25081E-002	-5.55079E-004	3.41017E-005	-5.17486E-003	-6.39959E-003	2.88757E-004	3.67666E-004	-6.00334E-003	3.95450E-004
	215	215	4.99963E-002	-9.30670E-003	0.00000E+000	-4.65300E-004	-9.13027E-002	3.58831E-002	2.94801E+001	11	...........	5.98297E-002	-3.54528E-003	5.56339E-001	6.87828E-001	-3.10279E-002	-3.95151E-002	6.45214E-001	-4.26383E-002	-5.56817E-004	3.29948E-005	-5.17768E-003	-6.40140E-003	2.88767E-004	3.67755E-004	-6.00481E-003	3.96822E-004
	216	216	4.99877E-002	-8.98995E-003	0.00000E+000	-4.49387E-004	-8.81547E-002	3.55932E-002	2.92686E+001	11	...........	5.93464E-002	-3.53528E-003	5.56401E-001	6.87874E-001	-3.10187E-002	-3.95087E-002	6.45294E-001	-4.26974E-002	-5.33521E-004	3.17820E-005	-5.00202E-003	-6.18395E-003	2.78857E-004	3.55182E-004	-5.80116E-003	3.83847E-004
	217	217	4.99967E-002	-8.93675E-003	0.00000E+000	-4.46808E-004	-8.76273E-002	3.57816E-002	2.91725E+001	11	...........	5.96667E-002	-3.61181E-003	5.56554E-001	6.87839E-001	-3.10108E-002	-3.95033E-002	6.45280E-001	-4.26553E-002	-5.33226E-004	3.22778E-005	-4.97379E-003	-6.14704E-003	2.77136E-004	3.53032E-004	-5.76671E-003	3.81200E-004
	218	218	4.99936E-002	-9.07715E-003	0.00000E+000	-4.53799E-004	-8.90207E-002	3.60526E-002	3.00553E+001	11	...........	6.01212E-002	-3.64319E-003	5.56562E-001	6.88059E-001	-3.10114E-002	-3.95044E-002	6.45198E-001	-4.25665E-002	-5.45730E-004	3.30698E-005	-5.05200E-003	-6.24561E-003	2.81495E-004	3.58588E-004	-5.85656E-003	3.86383E-004
	219	219	4.99931E-002	-8.85265E-003	0.00000E+000	-4.42572E-004	-8.67933E-002	3.56878E-002	2.87625E+001	11	...........	5.95210E-002	-3.60417E-003	5.56516E-001	6.88005E-001	-3.10379E-002	-3.95044E-002	6.45050E-001	-4.24821E-002	-5.26918E-004	3.19064E-005	-4.92664E-003	-6.09066E-003	2.74768E-004	3.49719E-004	-5.71040E-003	3.76079E-004
	220	220	4.99953E-002	-8.70475E-003	0.00000E+000	-4.35196E-004	-8.53167E-002	3.58609E-002	2.91943E+001	11	...........	5.97824E-002	-3.56653E-003	5.56387E-001	6.87885E-001	-3.10533E-002	-3.95032E-002	6.45080E-001	-4.25214E-002	-5.20390E-004	3.10457E-005	-4.84321E-003	-5.98787E-003	2.70311E-004	3.43865E-004	-5.61525E-003	3.70138E-004
	221	221	4.99963E-002	-8.72223E-003	0.00000E+000	-4.36079E-004	-8.54907E-002	3.57808E-002	2.94630E+001	11	...........	5.96687E-002	-3.55444E-003	5.56280E-001	6.87995E-001	-3.10515E-002	-3.94974E-002	6.45094E-001	-4.25690E-002	-5.20445E-004	3.10027E-005	-4.85200E-003	-6.00085E-003	2.70839E-004	3.44505E-004	-5.62666E-003	3.71297E-004
	222	222	4.99917E-002	-8.66281E-003	0.00000E+000	-4.33068E-004	-8.49013E-002	3.59163E-002	2.94659E+001	11	...........	5.98778E-002	-3.63181E-003	5.56226E-001	6.88138E-001	-3.10590E-002	-3.95101E-002	6.44936E-001	-4.25556E-002	-5.18710E-004	3.14616E-005	-4.81848E-003	-5.96121E-003	2.69059E-004	3.42269E-004	-5.58696E-003	3.68651E-004
	223	223	4.99962E-002	-8.57242E-003	0.00000E+000	-4.28588E-004	-8.40027E-002	3.58079E-002	2.95942E+001	11	...........	5.96904E-002	-3.55417E-003	5.56093E-001	6.88146E-001	-3.10917E-002	-3.95014E-002	6.44915E-001	-4.26008E-002	-5.11692E-004	3.04678E-005	-4.76707E-003	-5.89908E-003	2.66531E-004	3.38623E-004	-5.52848E-003	3.65192E-004
	224	224	4.99919E-002	-8.43951E-003	0.00000E+000	-4.21907E-004	-8.26753E-002	3.58431E-002	2.90386E+001	11	...........	5.97581E-002	-3.52931E-003	5.56059E-001	6.88172E-001	-3.10889E-002	-3.94939E-002	6.45046E-001	-4.25378E-002	-5.04329E-004	2.97856E-005	-4.69286E-003	-5.80783E-003	2.62375E-004	3.33309E-004	-5.44387E-003	3.58998E-004
	225	225	4.99957E-002	-8.19802E-003	0.00000E+000	-4.09866E-004	-8.02727E-002	3.57571E-002	2.88008E+001	11	...........	5.96203E-002	-3.65736E-003	5.56033E-001	6.88137E-001	-3.11012E-002	-3.94593E-002	6.45243E-001	-4.25087E-002	-4.88768E-004	2.99831E-005	-4.55837E-003	-5.64136E-003	2.54969E-004	3.23488E-004	-5.28972E-003	3.48488E-004
	226	226	4.99925E-002	-8.27251E-003	0.00000E+000	-4.13563E-004	-8.10180E-002	3.58856E-002	2.94895E+001	11	...........	5.98325E-002	-3.71528E-003	5.55912E-001	6.88098E-001	-3.11018E-002	-3.94717E-002	6.45203E-001	-4.25861E-002	-4.94965E-004	3.07347E-005	-4.59879E-003	-5.69229E-003	2.57290E-004	3.26530E-004	-5.33744E-003	3.52294E-004
	227	227	4.99922E-002	-8.19151E-003	0.00000E+000	-4.09512E-004	-8.02093E-002	3.57916E-002	2.92570E+001	11	...........	5.96856E-002	-3.66361E-003	5.55919E-001	6.88054E-001	-3.10786E-002	-3.94785E-002	6.45257E-001	-4.24883E-002	-4.88915E-004	3.00105E-005	-4.55381E-003	-5.63620E-003	2.54581E-004	3.23388E-004	-5.28563E-003	3.48044E-004
	228	228	4.99980E-002	-8.13186E-003	0.00000E+000	-4.06577E-004	-7.96127E-002	3.60217E-002	2.91970E+001	11	...........	6.00553E-002	-3.57347E-003	5.56007E-001	6.87991E-001	-3.10714E-002	-3.94704E-002	6.45350E-001	-4.25332E-002	-4.88361E-004	2.90590E-005	-4.52137E-003	-5.59465E-003	2.52668E-004	3.20968E-004	-5.24790E-003	3.45874E-004
	229	229	4.99938E-002	-8.14513E-003	0.00000E+000	-4.07206E-004	-7.97480E-002	3.59217E-002	3.00031E+001	11	...........	5.99053E-002	-3.61736E-003	5.55919E-001	6.87777E-001	-3.10543E-002	-3.94678E-002	6.45278E-001	-4.24883E-002	-4.87936E-004	2.94639E-005	-4.52803E-003	-5.60203E-003	2.52941E-004	3.21470E-004	-5.25587E-003	3.46073E-004
	230	230	4.99900E-002	-7.94150E-003	0.00000E+000	-3.96996E-004	-7.77293E-002	3.57849E-002	2.88701E+001	11	...........	5.96665E-002	-3.59361E-003	5.56015E-001	6.87734E-001	-3.10400E-002	-3.94856E-002	6.45390E-001	-4.23647E-002	-4.73842E-004	2.85387E-005	-4.41560E-003	-5.46164E-003	2.46504E-004	3.13575E-004	-5.12536E-003	3.36440E-004
	231	231	4.99978E-002	-7.92629E-003	0.00000E+000	-3.96297E-004	-7.75793E-002	3.59058E-002	2.93937E+001	11	...........	5.98686E-002	-3.63639E-003	5.55851E-001	6.87715E-001	-3.10508E-002	-3.94821E-002	6.45399E-001	-4.22878E-002	-4.74536E-004	2.88231E-005	-4.40584E-003	-5.45103E-003	2.46118E-004	3.12946E-004	-5.11562E-003	3.35185E-004
	232	232	4.99918E-002	-7.91599E-003	0.00000E+000	-3.95735E-004	-7.74747E-002	3.59357E-002	2.95151E+001	11	...........	5.99183E-002	-3.63264E-003	5.55869E-001	6.87810E-001	-3.09996E-002	-3.94822E-002	6.45335E-001	-4.22476E-002	-4.74313E-004	2.87559E-005	-4.40026E-003	-5.44470E-003	2.45393E-004	3.12541E-004	-5.10847E-003	3.34432E-004
	233	233	4.99949E-002	-7.85179E-003	0.00000E+000	-3.92549E-004	-7.68427E-002	3.59195E-002	2.95590E+001	11	...........	5.98593E-002	-3.66042E-003	5.56013E-001	6.87801E-001	-3.10335E-002	-3.94704E-002	6.45281E-001	-4.23215E-002	-4.70003E-004	2.87408E-005	-4.36570E-003	-5.40047E-003	2.43668E-004	3.09913E-004	-5.06661E-003	3.32300E-004
	234	234	4.99960E-002	-7.70956E-003	0.00000E+000	-3.85447E-004	-7.54353E-002	3.59272E-002	2.90026E+001	11	...........	5.98937E-002	-3.70236E-003	5.56035E-001	6.87838E-001	-3.10631E-002	-3.94661E-002	6.45356E-001	-4.24535E-002	-4.61754E-004	2.85436E-005	-4.28678E-003	-5.30293E-003	2.39482E-004	3.04266E-004	-4.97541E-003	3.27298E-004
	235	235	4.99937E-002	-7.64921E-003	0.00000E+000	-3.82412E-004	-7.48273E-002	3.58046E-002	2.93727E+001	11	...........	5.96879E-002	-3.67806E-003	5.56167E-001	6.87881E-001	-3.10560E-002	-3.94918E-002	6.45329E-001	-4.24071E-002	-4.56565E-004	2.81342E-005	-4.25423E-003	-5.26175E-003	2.37554E-004	3.02081E-004	-4.93625E-003	3.24381E-004
	236	236	4.99944E-002	-7.63737E-003	0.00000E+000	-3.81826E-004	-7.47100E-002	3.59662E-002	2.95289E+001	11	...........	5.99736E-002	-3.62569E-003	5.56181E-001	6.87944E-001	-3.10096E-002	-3.94940E-002	6.45236E-001	-4.25285E-002	-4.58041E-004	2.76908E-005	-4.24777E-003	-5.25408E-003	2.36832E-004	3.01631E-004	-4.92791E-003	3.24806E-004
	237	237	4.99927E-002	-7.48043E-003	0.00000E+000	-3.73967E-004	-7.31387E-002	3.59241E-002	2.91964E+001	11	...........	5.99050E-002	-3.64000E-003	5.56224E-001	6.88043E-001	-3.09894E-002	-3.95089E-002	6.45242E-001	-4.25257E-002	-4.48115E-004	2.72288E-005	-4.16079E-003	-5.14686E-003	2.31814E-004	2.95543E-004	-4.82668E-003	3.18110E-004
	238	238	4.99934E-002	-7.47048E-003	0.00000E+000	-3.73475E-004	-7.30433E-002	3.58042E-002	2.94126E+001	11	...........	5.96961E-002	-3.61306E-003	5.56321E-001	6.88039E-001	-3.10161E-002	-3.94981E-002	6.45255E-001	-4.25953E-002	-4.45958E-004	2.69912E-005	-4.15599E-003	-5.13998E-003	2.31705E-004	2.95069E-004	-4.82036E-003	3.18207E-004
	239	239	4.99952E-002	-7.42584E-003	0.00000E+000	-3.71256E-004	-7.25967E-002	3.59738E-002	2.93858E+001	11	...........	5.99812E-002	-3.60806E-003	5.56311E-001	6.88068E-001	-3.10092E-002	-3.94910E-002	6.45291E-001	-4.27404E-002	-4.45411E-004	2.67928E-005	-4.13108E-003	-5.10949E-003	2.30269E-004	2.93254E-004	-4.79183E-003	3.17384E-004
	240	240	4.99948E-002	-7.38942E-003	0.00000E+000	-3.69432E-004	-7.22340E-002	3.59745E-002	2.95244E+001	11	...........	5.99911E-002	-3.64819E-003	5.56228E-001	6.88085E-001	-3.10018E-002	-3.94996E-002	6.45247E-001	-4.25967E-002	-4.43300E-004	2.69580E-005	-4.11021E-003	-5.08455E-003	2.29085E-004	2.91879E-004	-4.76800E-003	3.14765E-004
	241	241	4.99941E-002	-7.29950E-003	0.00000E+000	-3.64932E-004	-7.13347E-002	3.59295E-002	2.95941E+001	11	...........	5.99107E-002	-3.59306E-003	5.56263E-001	6.88165E-001	-3.09965E-002	-3.95062E-002	6.45324E-001	-4.25937E-002	-4.37318E-004	2.62275E-005	-4.06044E-003	-5.02326E-003	2.26259E-004	2.88376E-004	-4.71054E-003	3.10913E-004
	242	242	4.99951E-002	-7.25255E-003	0.00000E+000	-3.62592E-004	-7.08720E-002	3.59921E-002	2.95018E+001	11	...........	6.00201E-002	-3.58764E-003	5.56266E-001	6.88220E-001	-3.09553E-002	-3.95171E-002	6.45340E-001	-4.24904E-002	-4.35299E-004	2.60195E-005	-4.03435E-003	-4.99135E-003	2.24505E-004	2.86600E-004	-4.68036E-003	3.08164E-004
	243	243	4.99935E-002	-7.15930E-003	0.00000E+000	-3.57918E-004	-6.99433E-002	3.57999E-002	2.91882E+001	11	...........	5.96767E-002	-3.55681E-003	5.56205E-001	6.88236E-001	-3.09540E-002	-3.95415E-002	6.45263E-001	-4.25836E-002	-4.27243E-004	2.54642E-005	-3.98204E-003	-4.92729E-003	2.21609E-004	2.83090E-004	-4.61963E-003	3.04869E-004
	244	244	4.99920E-002	-7.13430E-003	0.00000E+000	-3.56658E-004	-6.96960E-002	3.59652E-002	2.95751E+001	11	...........	5.99510E-002	-3.48931E-003	5.56077E-001	6.88250E-001	-3.09768E-002	-3.95512E-002	6.45234E-001	-4.25243E-002	-4.27708E-004	2.48938E-005	-3.96722E-003	-4.91018E-003	2.20998E-004	2.82171E-004	-4.60329E-003	3.03381E-004
	245	245	4.99935E-002	-7.00225E-003	0.00000E+000	-3.50067E-004	-6.83827E-002	3.60564E-002	2.92118E+001	11	...........	6.01182E-002	-3.48583E-003	5.55917E-001	6.88087E-001	-3.09385E-002	-3.95736E-002	6.45184E-001	-4.24674E-002	-4.20963E-004	2.44087E-005	-3.89267E-003	-4.81816E-003	2.16639E-004	2.77104E-004	-4.51774E-003	2.97367E-004
	246	246	4.99959E-002	-6.99493E-003	0.00000E+000	-3.49718E-004	-6.83073E-002	3.59309E-002	2.97547E+001	11	...........	5.98950E-002	-3.52278E-003	5.55900E-001	6.88090E-001	-3.09058E-002	-3.95811E-002	6.45171E-001	-4.24440E-002	-4.18962E-004	2.46416E-005	-3.88849E-003	-4.81314E-003	2.16184E-004	2.76867E-004	-4.51293E-003	2.96893E-004
	247	247	4.99917E-002	-6.84890E-003	0.00000E+000	-3.42388E-004	-6.68520E-002	3.60582E-002	2.82110E+001	11	...........	6.01253E-002	-3.50153E-003	5.55917E-001	6.88075E-001	-3.09172E-002	-3.95806E-002	6.45179E-001	-4.25160E-002	-4.11792E-004	2.39816E-005	-3.80742E-003	-4.71256E-003	2.11749E-004	2.71083E-004	-4.41877E-003	2.91188E-004
	248	248	4.99980E-002	-6.74891E-003	0.00000E+000	-3.37432E-004	-6.58587E-002	3.56592E-002	2.92939E+001	11	...........	5.94487E-002	-3.47194E-003	5.55774E-001	6.88261E-001	-3.09064E-002	-3.95836E-002	6.45099E-001	-4.25154E-002	-4.01215E-004	2.34319E-005	-3.75087E-003	-4.64502E-003	2.08585E-004	2.67146E-004	-4.35372E-003	2.86933E-004
	249	249	4.99928E-002	-6.86502E-003	0.00000E+000	-3.43201E-004	-6.70167E-002	3.61641E-002	2.95435E+001	11	...........	6.02964E-002	-3.54389E-003	5.55822E-001	6.88288E-001	-3.09275E-002	-3.95846E-002	6.45228E-001	-4.24675E-002	-4.13936E-004	2.43289E-005	-3.81573E-003	-4.72511E-003	2.12318E-004	2.71749E-004	-4.42951E-003	2.91540E-004
	250	250	4.99958E-002	-6.69004E-003	0.00000E+000	-3.34474E-004	-6.52780E-002	3.59583E-002	2.92715E+001	11	...........	5.99614E-002	-3.52583E-003	5.55794E-001	6.88395E-001	-3.09557E-002	-3.95756E-002	6.45280E-001	-4.23903E-002	-4.01144E-004	2.35880E-005	-3.71829E-003	-4.60539E-003	2.07095E-004	2.64762E-004	-4.31695E-003	2.83593E-004
	251	251	4.99942E-002	-6.65569E-003	0.00000E+000	-3.32745E-004	-6.49347E-002	3.59403E-002	2.93153E+001	11	...........	5.99325E-002	-3.55583E-003	5.55808E-001	6.88349E-001	-3.09696E-002	-3.95729E-002	6.45233E-001	-4.25483E-002	-3.98892E-004	2.36665E-005	-3.69928E-003	-4.58143E-003	2.06124E-004	2.63385E-004	-4.29447E-003	2.83188E-004
	252	252	4.99943E-002	-6.66512E-003	0.00000E+000	-3.33218E-004	-6.50240E-002	3.58995E-002	2.96489E+001	11	...........	5.99012E-002	-3.59764E-003	5.55852E-001	6.88192E-001	-3.09772E-002	-3.95828E-002	6.45115E-001	-4.24218E-002	-3.99249E-004	2.39787E-005	-3.70482E-003	-4.58688E-003	2.06467E-004	2.63824E-004	-4.29977E-003	2.82746E-004
	253	253	4.99935E-002	-6.62257E-003	0.00000E+000	-3.31086E-004	-6.46047E-002	3.61534E-002	2.92333E+001	11	...........	6.02814E-002	-3.68139E-003	5.55675E-001	6.88243E-001	-3.09994E-002	-3.95907E-002	6.45297E-001	-4.25367E-002	-3.99218E-004	2.43803E-005	-3.68000E-003	-4.55794E-003	2.05296E-004	2.62192E-004	-4.27353E-003	2.81702E-004
	254	254	4.99950E-002	-6.58565E-003	0.00000E+000	-3.29250E-004	-6.42373E-002	3.58086E-002	2.95803E+001	11	...........	5.97133E-002	-3.64222E-003	5.55740E-001	6.88488E-001	-3.09881E-002	-3.95776E-002	6.45143E-001	-4.25389E-002	-3.93251E-004	2.39864E-005	-3.65991E-003	-4.53414E-003	2.04076E-004	2.60644E-004	-4.24869E-003	2.80146E-004
	255	255	4.99940E-002	-6.48941E-003	0.00000E+000	-3.24431E-004	-6.32847E-002	3.60500E-002	2.88167E+001	11	...........	6.01003E-002	-3.58931E-003	5.55831E-001	6.88629E-001	-3.09844E-002	-3.95774E-002	6.44982E-001	-4.26833E-002	-3.90015E-004	2.32925E-005	-3.60701E-003	-4.46879E-003	2.01071E-004	2.56834E-004	-4.18555E-003	2.76990E-004
	256	256	4.99955E-002	-6.46434E-003	0.00000E+000	-3.23188E-004	-6.30407E-002	3.60488E-002	2.99037E+001	11	...........	6.00965E-002	-3.62111E-003	5.55848E-001	6.88610E-001	-3.09864E-002	-3.95792E-002	6.45117E-001	-4.26901E-002	-3.88485E-004	2.34081E-005	-3.59319E-003	-4.45141E-003	2.00307E-004	2.55853E-004	-4.17026E-003	2.75964E-004
	257	257	4.99947E-002	-6.40483E-003	0.00000E+000	-3.20208E-004	-6.24487E-002	3.60128E-002	2.96025E+001	11	...........	6.00529E-002	-3.55083E-003	5.55927E-001	6.88538E-001	-3.10036E-002	-3.95672E-002	6.45121E-001	-4.27472E-002	-3.84629E-004	2.27425E-005	-3.56062E-003	-4.40997E-003	1.98573E-004	2.53421E-004	-4.13190E-003	2.73789E-004
	258	258	4.99950E-002	-6.31239E-003	0.00000E+000	-3.15588E-004	-6.15327E-002	3.59550E-002	2.92948E+001	11	...........	5.99532E-002	-3.65222E-003	5.56036E-001	6.88780E-001	-3.09992E-002	-3.95554E-002	6.45143E-001	-4.26874E-002	-3.78448E-004	2.30542E-005	-3.50991E-003	-4.34784E-003	1.95679E-004	2.49689E-004	-4.07239E-003	2.69459E-004
	259	259	4.99905E-002	-6.29782E-003	0.00000E+000	-3.14831E-004	-6.13880E-002	3.59929E-002	2.94102E+001	11	...........	6.00047E-002	-3.58639E-003	5.56028E-001	6.88768E-001	-3.09657E-002	-3.95475E-002	6.45049E-001	-4.25946E-002	-3.77899E-004	2.25864E-005	-3.50177E-003	-4.33774E-003	1.95017E-004	2.49063E-004	-4.06241E-003	2.68253E-004
	260	260	4.99973E-002	-6.21632E-003	0.00000E+000	-3.10799E-004	-6.05733E-002	3.59221E-002	2.86534E+001	11	...........	5.99043E-002	-3.56069E-003	5.56114E-001	6.88648E-001	-3.09637E-002	-3.95575E-002	6.45129E-001	-4.26429E-002	-3.72384E-004	2.21344E-005	-3.45698E-003	-4.28085E-003	1.92480E-004	2.45902E-004	-4.01032E-003	2.65082E-004
	261	261	4.99959E-002	-6.18429E-003	0.00000E+000	-3.09189E-004	-6.02527E-002	3.59543E-002	2.88776E+001	11	...........	5.99669E-002	-3.54583E-003	5.56202E-001	6.88603E-001	-3.09554E-002	-3.95596E-002	6.45143E-001	-4.24853E-002	-3.70853E-004	2.19284E-005	-3.43971E-003	-4.25852E-003	1.91437E-004	2.44648E-004	-3.98975E-003	2.62741E-004
	262	262	4.99939E-002	-6.21879E-003	0.00000E+000	-3.10901E-004	-6.05940E-002	3.61652E-002	2.94723E+001	11	...........	6.02957E-002	-3.60542E-003	5.56262E-001	6.88559E-001	-3.09719E-002	-3.95444E-002	6.45074E-001	-4.24925E-002	-3.74966E-004	2.24213E-005	-3.45928E-003	-4.28200E-003	1.92608E-004	2.45918E-004	-4.01158E-003	2.64252E-004
	263	263	4.99921E-002	-6.13786E-003	0.00000E+000	-3.06845E-004	-5.97880E-002	3.60111E-002	2.93550E+001	11	...........	6.00450E-002	-3.68153E-003	5.56184E-001	6.88450E-001	-3.09733E-002	-3.95476E-002	6.45034E-001	-4.24831E-002	-3.68548E-004	2.25967E-005	-3.41378E-003	-4.22561E-003	1.90110E-004	2.42738E-004	-3.95913E-003	2.60755E-004
	264	264	4.99968E-002	-6.07536E-003	0.00000E+000	-3.03748E-004	-5.91680E-002	3.59881E-002	2.91486E+001	11	...........	6.00054E-002	-3.58125E-003	5.56069E-001	6.88410E-001	-3.09837E-002	-3.95343E-002	6.45016E-001	-4.25932E-002	-3.64554E-004	2.17574E-005	-3.37832E-003	-4.18234E-003	1.88237E-004	2.40185E-004	-3.91870E-003	2.58769E-004
	265	265	4.99950E-002	-6.07919E-003	0.00000E+000	-3.03929E-004	-5.92027E-002	3.60966E-002	2.99984E+001	11	...........	6.01993E-002	-3.62222E-003	5.56145E-001	6.88569E-001	-3.09810E-002	-3.95214E-002	6.45161E-001	-4.27065E-002	-3.65963E-004	2.20202E-005	-3.38091E-003	-4.18594E-003	1.88339E-004	2.40258E-004	-3.92206E-003	2.59621E-004
	266	266	4.99926E-002	-6.01347E-003	0.00000E+000	-3.00629E-004	-5.85480E-002	3.60441E-002	2.94989E+001	11	...........	6.01111E-002	-3.57750E-003	5.55949E-001	6.88554E-001	-3.09839E-002	-3.94924E-002	6.45172E-001	-4.26383E-002	-3.61476E-004	2.15132E-005	-3.34318E-003	-4.14060E-003	1.86321E-004	2.37486E-004	-3.87972E-003	2.56404E-004
	267	267	4.99946E-002	-5.90280E-003	0.00000E+000	-2.95108E-004	-5.74467E-002	3.60457E-002	2.86249E+001	11	...........	6.01160E-002	-3.52958E-003	5.55830E-001	6.88627E-001	-3.09732E-002	-3.95015E-002	6.45178E-001	-4.26564E-002	-3.54853E-004	2.08344E-005	-3.28095E-003	-4.06483E-003	1.82829E-004	2.33170E-004	-3.80836E-003	2.51792E-004
	268	268	4.99930E-002	-5.79713E-003	0.00000E+000	-2.89816E-004	-5.63960E-002	3.57827E-002	2.94007E+001	11	...........	5.96694E-002	-3.53069E-003	5.55738E-001	6.88605E-001	-3.10026E-002	-3.94824E-002	6.45038E-001	-4.27426E-002	-3.45911E-004	2.04679E-005	-3.22168E-003	-3.99193E-003	1.79726E-004	2.28884E-004	-3.73937E-003	2.47784E-004
	269	269	4.99957E-002	-5.85916E-003	0.00000E+000	-2.92933E-004	-5.70060E-002	3.63012E-002	2.97842E+001	11	...........	6.05206E-002	-3.63764E-003	5.55815E-001	6.88595E-001	-3.10247E-002	-3.94624E-002	6.45184E-001	-4.26362E-002	-3.54599E-004	2.13135E-005	-3.25661E-003	-4.03459E-003	1.81779E-004	2.31216E-004	-3.78024E-003	2.49813E-004
	270	270	4.99943E-002	-5.82609E-003	0.00000E+000	-2.91271E-004	-5.66820E-002	3.60723E-002	2.96664E+001	11	...........	6.01657E-002	-3.64181E-003	5.55942E-001	6.88596E-001	-3.10474E-002	-3.94524E-002	6.45331E-001	-4.25785E-002	-3.50531E-004	2.12175E-005	-3.23897E-003	-4.01182E-003	1.80885E-004	2.29853E-004	-3.75976E-003	2.48066E-004
	271	271	4.99940E-002	-5.78969E-003	0.00000E+000	-2.89450E-004	-5.63220E-002	3.60023E-002	2.96716E+001	11	...........	6.00254E-002	-3.62500E-003	5.55870E-001	6.88477E-001	-3.10635E-002	-3.94683E-002	6.45343E-001	-4.25935E-002	-3.47529E-004	2.09876E-005	-3.21832E-003	-3.98607E-003	1.79848E-004	2.28510E-004	-3.73634E-003	2.46603E-004
	272	272	4.99941E-002	-5.76986E-003	0.00000E+000	-2.88459E-004	-5.61260E-002	3.61827E-002	2.95508E+001	11	...........	6.03436E-002	-3.71944E-003	5.55748E-001	6.88472E-001	-3.10464E-002	-3.94632E-002	6.45209E-001	-4.24539E-002	-3.48174E-004	2.14607E-005	-3.20659E-003	-3.97239E-003	1.79133E-004	2.27697E-004	-3.72276E-003	2.44953E-004
	273	273	4.99937E-002	-5.58780E-003	0.00000E+000	-2.79355E-004	-5.43107E-002	3.58659E-002	2.89683E+001	11	...........	5.98093E-002	-3.67764E-003	5.55850E-001	6.88483E-001	-3.10432E-002	-3.94650E-002	6.45283E-001	-4.24272E-002	-3.34202E-004	2.05499E-005	-3.10597E-003	-3.84710E-003	1.73463E-004	2.20522E-004	-3.60571E-003	2.37075E-004
	274	274	4.99958E-002	-5.63280E-003	0.00000E+000	-2.81616E-004	-5.47587E-002	3.61701E-002	2.94554E+001	11	...........	6.03304E-002	-3.55722E-003	5.55903E-001	6.88540E-001	-3.10503E-002	-3.94375E-002	6.45260E-001	-4.24725E-002	-3.39829E-004	2.00371E-005	-3.13129E-003	-3.87841E-003	1.74900E-004	2.22143E-004	-3.63462E-003	2.39239E-004
	275	275	4.99942E-002	-5.65639E-003	0.00000E+000	-2.82787E-004	-5.49960E-002	3.62170E-002	2.92893E+001	11	...........	6.03821E-002	-3.49986E-003	5.55734E-001	6.88282E-001	-3.10562E-002	-3.94600E-002	6.45202E-001	-4.25512E-002	-3.41544E-004	1.97966E-005	-3.14345E-003	-3.89319E-003	1.75666E-004	2.23201E-004	-3.64951E-003	2.40686E-004
	276	276	4.99961E-002	-5.58564E-003	0.00000E+000	-2.79260E-004	-5.42907E-002	3.59883E-002	2.92393E+001	11	...........	6.00118E-002	-3.52153E-003	5.55772E-001	6.88278E-001	-3.10690E-002	-3.94868E-002	6.45208E-001	-4.25492E-002	-3.35204E-004	1.96700E-005	-3.10434E-003	-3.84447E-003	1.73540E-004	2.20559E-004	-3.60390E-003	2.37664E-004
	277	277	4.99939E-002	-5.51053E-003	0.00000E+000	-2.75493E-004	-5.35433E-002	3.59300E-002	2.95982E+001	11	...........	5.99071E-002	-3.57597E-003	5.55758E-001	6.88309E-001	-3.10624E-002	-3.94914E-002	6.45032E-001	-4.25351E-002	-3.30120E-004	1.97055E-005	-3.06252E-003	-3.79295E-003	1.71170E-004	2.17618E-004	-3.55447E-003	2.34391E-004
	278	278	4.99944E-002	-5.47280E-003	0.00000E+000	-2.73609E-004	-5.31653E-002	3.60875E-002	2.94179E+001	11	...........	6.01761E-002	-3.58722E-003	5.55816E-001	6.88325E-001	-3.10450E-002	-3.94861E-002	6.44990E-001	-4.24829E-002	-3.29332E-004	1.96321E-005	-3.04187E-003	-3.76706E-003	1.69903E-004	2.16099E-004	-3.52990E-003	2.32500E-004
	279	279	4.99955E-002	-5.51351E-003	0.00000E+000	-2.75651E-004	-5.35653E-002	3.62220E-002	2.99296E+001	11	...........	6.03910E-002	-3.56583E-003	5.56054E-001	6.88083E-001	-3.10165E-002	-3.94968E-002	6.45054E-001	-4.24996E-002	-3.32966E-004	1.96603E-005	-3.06581E-003	-3.79375E-003	1.71010E-004	2.17766E-004	-3.55651E-003	2.34322E-004
	280	280	4.99940E-002	-5.44966E-003	0.00000E+000	-2.72450E-004	-5.29340E-002	3.61253E-002	2.94688E+001	11	...........	6.02183E-002	-3.56722E-003	5.56075E-001	6.88111E-001	-3.10104E-002	-3.95031E-002	6.45127E-001	-4.24510E-002	-3.28170E-004	1.94402E-005	-3.03042E-003	-3.74997E-003	1.68996E-004	2.15278E-004	-3.51573E-003	2.31343E-004
	281	281	4.99936E-002	-5.39278E-003	0.00000E+000	-2.69605E-004	-5.23660E-002	3.60703E-002	2.95154E+001	11	...........	6.01335E-002	-3.51569E-003	5.56100E-001	6.88220E-001	-3.09892E-002	-3.94935E-002	6.44957E-001	-4.24904E-002	-3.24287E-004	1.89594E-005	-2.99893E-003	-3.71142E-003	1.67118E-004	2.12980E-004	-3.47811E-003	2.29142E-004
	282	282	4.99931E-002	-5.30188E-003	0.00000E+000	-2.65057E-004	-5.14687E-002	3.61546E-002	2.88778E+001	11	...........	6.02626E-002	-3.55222E-003	5.56225E-001	6.88227E-001	-3.10043E-002	-3.94660E-002	6.44937E-001	-4.24676E-002	-3.19505E-004	1.88334E-005	-2.94904E-003	-3.64889E-003	1.64381E-004	2.09244E-004	-3.41938E-003	2.25158E-004
	283	283	4.99964E-002	-5.30541E-003	0.00000E+000	-2.65251E-004	-5.15067E-002	3.60067E-002	2.99605E+001	11	...........	6.00443E-002	-3.49819E-003	5.56237E-001	6.87984E-001	-3.10051E-002	-3.94612E-002	6.44998E-001	-4.24656E-002	-3.18560E-004	1.85594E-005	-2.95107E-003	-3.65004E-003	1.64495E-004	2.09358E-004	-3.42198E-003	2.25297E-004
	284	284	4.99948E-002	-5.31960E-003	0.00000E+000	-2.65952E-004	-5.16380E-002	3.62759E-002	2.97229E+001	11	...........	6.04850E-002	-3.61569E-003	5.56359E-001	6.87897E-001	-3.09903E-002	-3.94726E-002	6.45054E-001	-4.25039E-002	-3.21756E-004	1.92341E-005	-2.95961E-003	-3.65934E-003	1.64856E-004	2.09979E-004	-3.43143E-003	2.26104E-004
	285	285	4.99930E-002	-5.24307E-003	0.00000E+000	-2.62117E-004	-5.08927E-002	3.61119E-002	2.94704E+001	11	...........	6.02128E-002	-3.58569E-003	5.56314E-001	6.87888E-001	-3.09787E-002	-3.94832E-002	6.44970E-001	-4.25964E-002	-3.15700E-004	1.88000E-005	-2.91679E-003	-3.60664E-003	1.62424E-004	2.07013E-004	-3.38162E-003	2.23336E-004
	286	286	4.99959E-002	-5.20273E-003	0.00000E+000	-2.60115E-004	-5.04960E-002	3.60657E-002	2.96170E+001	11	...........	6.01493E-002	-3.56736E-003	5.56285E-001	6.87805E-001	-3.10133E-002	-3.94837E-002	6.45037E-001	-4.24839E-002	-3.12941E-004	1.85600E-005	-2.89420E-003	-3.57846E-003	1.61354E-004	2.05423E-004	-3.35595E-003	2.21032E-004
	287	287	4.99957E-002	-5.18865E-003	0.00000E+000	-2.59410E-004	-5.03540E-002	3.61449E-002	2.95060E+001	11	...........	6.02681E-002	-3.56958E-003	5.56297E-001	6.87824E-001	-3.10367E-002	-3.94629E-002	6.44982E-001	-4.26921E-002	-3.12710E-004	1.85213E-005	-2.88643E-003	-3.56887E-003	1.61038E-004	2.04759E-004	-3.34659E-003	2.21514E-004
	288	287.992	4.99922E-002	-5.12083E-003	0.00000E+000	-2.56002E-004	-4.96827E-002	3.60424E-002	2.97523E+001	11	...........	6.00910E-002	-3.63417E-003	5.56276E-001	6.87794E-001	-3.10629E-002	-3.94218E-002	6.45153E-001	-4.27328E-002	-3.07716E-004	1.86100E-005	-2.84859E-003	-3.52207E-003	1.59068E-004	2.01873E-004	-3.30372E-003	2.18827E-004
STARTTIMEOFFSET	QUANT	389126.4	Start Time Offset (s)
