EXPLAIN
TAG	PWR800_DISCHARGE
TITLE	LABEL	PWR Discharge	Test Identifier
DATE	LABEL	10/14/2022	Date
TIME	LABEL	15:10:52	Time
NOTES	NOTES	1	Notes...
	
PSTAT	PSTAT	REF3000-21114	Potentiostat
CAPACITY	QUANT	5.30000E-002	Capacity (A-hr)
CELLTYPE	SELECTOR	1	Cell Type
WORKINGCONNECTION	SELECTOR	0	Working Connection
MAXDISCHARGETIME	VARIABLEANDUNITS	7.20000E+003	s	2.00000E+000	hour(s)	Max Discharge Time
DISCHARGEMODE	MULTIPARAM	0	1.00000E-001	Discharge Mode	Constant Current	Amp(s)
VOLTAGEFINISH	TWOPARAM	T	5.00000E-003	7.20000E+003	Voltage Finish	I (A) <	Max Time(s)
SAMPLETIME	QUANT	1.00000E+000	Sample Period (s)
DISCHARGESTOPAT1	MULTIPARAM	1	5.00000E-002	Stop At 1	|Voltage| < Limit	V
DISCHARGESTOPAT2	MULTIPARAM	0	0.00000E+000	Stop At 2	None	N/A
AESELECTOR	AESELECTOR	0x1	T	Set Limits	AE Channels
AESBHCSELECTOR	TOGGLE	F	Save Both Half Cells
IRCOMP	TOGGLE	F	IR Measure
EOC	QUANT	0.5710684	Open Circuit (V)
SEQUENCER	TOGGLE	TRUE	Run as Sequence
PSTATMODEL	IQUANT	5	Pstat Model
PSTATSECTION	LABEL	REF3000-21114	Pstat Section
PSTATSERIALNO	LABEL	21114	Pstat Serial Number
CTRLMODE	IQUANT	0	Control Mode
ELECTROMETER	IQUANT	0	RE=0 or CS=1
IESTAB	IQUANT	0	I/E Stability
CASPEED	IQUANT	4	Control Amp Speed
CONVENTION	IQUANT	1	Current Convention
ICHRANGE	IQUANT	2	Ich Range
ICHRANGEMODE	TOGGLE	T	Ich Auto Range
ICHOFFSETENABLE	TOGGLE	F	Ich Offset Enable
ICHOFFSET	QUANT	0	Ich Offset (V)
ICHFILTER	IQUANT	1	Ich Filter
VCHRANGE	IQUANT	3	Vch Range
VCHRANGEMODE	TOGGLE	T	Vch Auto Range
VCHOFFSETENABLE	TOGGLE	F	Vch Offset Enable
VCHOFFSET	QUANT	0	Vch Offset (V)
VCHFILTER	IQUANT	1	Vch Filter
ACHRANGE	IQUANT	2	Ach Range
ACHOFFSETENABLE	TOGGLE	F	Ach Offset Enable
ACHOFFSET	QUANT	0	Ach Offset (V)
ACHFILTER	IQUANT	1	Ach Filter
IERANGELOWERLIMIT	IQUANT	9	I/E Range Lower Limit
IERANGEMODE	TOGGLE	F	I/E AutoRange
IERANGE	IQUANT	9	I/E Range
POSFEEDENABLE	TOGGLE	F	Positive Feedback IR Comp
POSFEEDRESISTANCE	QUANT	0	Positive Feedback Resistance (ohm)
ACHSELECT	IQUANT	1	Ach Select
SENSECABLEID	IQUANT	13	Sense Cable ID
PWRCABLEID	IQUANT	13	Power Cable ID
DCCALDATE	LABEL		DC Calibration Date
ACCALDATE	LABEL		AC Calibration Date
THERMOSELECT	IQUANT	1	Thermo Select
FRAMEWORKVERSION	LABEL	7.8.6	Framework Version
INSTRUMENTVERSION	LABEL	4.50	Instrument Version
COMPLIANCEVOLTAGE	IQUANT	0	Compliance Voltage
CURVE	TABLE	242
	Pt	T	Vf	Im	Vu	Pwr	Sig	Ach	Temp	IERange	Over	Vf1	Vf2	Vf3	Vf4	Vf5	Vf6	Vf7	Vf8	Pwr1	Pwr2	Pwr3	Pwr4	Pwr5	Pwr6	Pwr7	Pwr8
	#	s	V	A	V	W	V	V	deg C	#	bits	V	V	V	V	V	V	V	V	W	W	W	W	W	W	W	W
	0	1	3.46558E-001	-1.00092E-001	0.00000E+000	-3.46879E-002	-9.94000E-001	3.65776E-002	3.18200E+001	11	...........	6.07524E-002	-5.29944E-003	6.08033E-001	5.35390E-001	-2.60950E-002	-3.71274E-002	7.08556E-001	-4.39803E-002	-6.08085E-003	5.30434E-004	-6.08595E-002	-5.35885E-002	2.61191E-003	3.71617E-003	-7.09210E-002	4.40209E-003
	1	2	2.59715E-001	-1.00093E-001	0.00000E+000	-2.59956E-002	-9.94000E-001	3.65922E-002	3.09602E+001	11	...........	6.07750E-002	-5.28875E-003	6.07976E-001	5.35305E-001	-2.60940E-002	-3.71050E-002	7.08567E-001	-4.39928E-002	-6.08312E-003	5.29365E-004	-6.08539E-002	-5.35800E-002	2.61182E-003	3.71393E-003	-7.09223E-002	4.40335E-003
	2	3	1.95289E-001	-1.00093E-001	0.00000E+000	-1.95472E-002	-9.94000E-001	3.65400E-002	2.96071E+001	11	...........	6.07201E-002	-5.28778E-003	6.07915E-001	5.35269E-001	-2.60990E-002	-3.70753E-002	7.08543E-001	-4.39337E-002	-6.07768E-003	5.29271E-004	-6.08482E-002	-5.35768E-002	2.61234E-003	3.71099E-003	-7.09204E-002	4.39748E-003
	3	4	1.42778E-001	-1.00093E-001	0.00000E+000	-1.42911E-002	-9.94000E-001	3.64219E-002	2.90028E+001	11	...........	6.05576E-002	-5.26764E-003	6.08006E-001	5.35053E-001	-2.61057E-002	-3.70646E-002	7.08502E-001	-4.39699E-002	-6.06141E-003	5.27255E-004	-6.08574E-002	-5.35552E-002	2.61300E-003	3.70992E-003	-7.09163E-002	4.40109E-003
	4	5	1.02780E-001	-1.00093E-001	0.00000E+000	-1.02875E-002	-9.94000E-001	3.65109E-002	2.91567E+001	11	...........	6.06686E-002	-5.26125E-003	6.07835E-001	5.34988E-001	-2.60767E-002	-3.70408E-002	7.08542E-001	-4.39739E-002	-6.07249E-003	5.26613E-004	-6.08399E-002	-5.35484E-002	2.61009E-003	3.70752E-003	-7.09199E-002	4.40147E-003
	5	6	7.07662E-002	-1.00093E-001	0.00000E+000	-7.08320E-003	-9.94000E-001	3.65356E-002	2.83212E+001	11	...........	6.06943E-002	-5.33222E-003	6.07723E-001	5.34961E-001	-2.60715E-002	-3.70485E-002	7.08619E-001	-4.39931E-002	-6.07507E-003	5.33718E-004	-6.08288E-002	-5.35458E-002	2.60958E-003	3.70829E-003	-7.09278E-002	4.40340E-003
	6	6.19833	5.32004E-002	-1.00093E-001	0.00000E+000	-5.32500E-003	-9.94000E-001	3.64605E-002	2.81555E+001	11	...........	6.05721E-002	-5.37885E-003	6.07772E-001	5.34915E-001	-2.60308E-002	-3.70630E-002	7.08609E-001	-4.39944E-002	-6.06286E-003	5.38386E-004	-6.08339E-002	-5.35413E-002	2.60551E-003	3.70976E-003	-7.09269E-002	4.40354E-003
	7	7	4.98162E-002	-9.36739E-002	0.00000E+000	-4.66648E-003	-9.30172E-001	3.65807E-002	2.86754E+001	11	...........	6.07599E-002	-5.41286E-003	6.07915E-001	5.34876E-001	-2.60724E-002	-3.70464E-002	7.08610E-001	-4.39366E-002	-5.69162E-003	5.07043E-004	-5.69458E-002	-5.01039E-002	2.44231E-003	3.47029E-003	-6.63783E-002	4.11571E-003
	8	8	4.98857E-002	-8.41334E-002	0.00000E+000	-4.19706E-003	-8.35315E-001	3.67590E-002	2.93925E+001	11	...........	6.10640E-002	-5.49972E-003	6.07863E-001	5.34873E-001	-2.60533E-002	-3.70674E-002	7.08665E-001	-4.39692E-002	-5.13753E-003	4.62711E-004	-5.11416E-002	-4.50007E-002	2.19196E-003	3.11860E-003	-5.96224E-002	3.69928E-003
	9	9	4.99103E-002	-7.73769E-002	0.00000E+000	-3.86191E-003	-7.68150E-001	3.67617E-002	2.92879E+001	11	...........	6.10728E-002	-5.51236E-003	6.07902E-001	5.34977E-001	-2.60474E-002	-3.70465E-002	7.08641E-001	-4.39985E-002	-4.72562E-003	4.26530E-004	-4.70376E-002	-4.13949E-002	2.01546E-003	2.86655E-003	-5.48324E-002	3.40447E-003
	10	10	4.99666E-002	-7.34299E-002	0.00000E+000	-3.66904E-003	-7.28898E-001	3.68697E-002	2.98370E+001	11	...........	6.12429E-002	-5.54042E-003	6.08061E-001	5.35005E-001	-2.60657E-002	-3.70326E-002	7.08610E-001	-4.40050E-002	-4.49706E-003	4.06832E-004	-4.46499E-002	-3.92854E-002	1.91400E-003	2.71930E-003	-5.20332E-002	3.23128E-003
	11	11	4.99538E-002	-7.07740E-002	0.00000E+000	-3.53543E-003	-7.02525E-001	3.69781E-002	3.02611E+001	11	...........	6.14410E-002	-5.58014E-003	6.08173E-001	5.35094E-001	-2.60819E-002	-3.70399E-002	7.08616E-001	-4.39942E-002	-4.34842E-003	3.94929E-004	-4.30428E-002	-3.78707E-002	1.84592E-003	2.62146E-003	-5.01516E-002	3.11364E-003
	12	12	4.99485E-002	-6.87519E-002	0.00000E+000	-3.43405E-003	-6.82415E-001	3.70634E-002	3.00114E+001	11	...........	6.15696E-002	-5.47792E-003	6.08376E-001	5.35181E-001	-2.60899E-002	-3.70599E-002	7.08751E-001	-4.40706E-002	-4.23302E-003	3.76617E-004	-4.18269E-002	-3.67947E-002	1.79373E-003	2.54793E-003	-4.87280E-002	3.02993E-003
	13	13	4.99807E-002	-6.65295E-002	0.00000E+000	-3.32520E-003	-6.60316E-001	3.71415E-002	3.04956E+001	11	...........	6.16999E-002	-5.41847E-003	6.08324E-001	5.35222E-001	-2.60850E-002	-3.70372E-002	7.08705E-001	-4.40686E-002	-4.10486E-003	3.60488E-004	-4.04715E-002	-3.56081E-002	1.73542E-003	2.46407E-003	-4.71498E-002	2.93186E-003
	14	14	4.99633E-002	-6.50110E-002	0.00000E+000	-3.24816E-003	-6.45211E-001	3.71699E-002	2.99950E+001	11	...........	6.17844E-002	-5.44806E-003	6.08408E-001	5.35306E-001	-2.60649E-002	-3.70383E-002	7.08619E-001	-4.40301E-002	-4.01667E-003	3.54183E-004	-3.95532E-002	-3.48007E-002	1.69450E-003	2.40790E-003	-4.60680E-002	2.86244E-003
	15	15	4.99886E-002	-6.33601E-002	0.00000E+000	-3.16728E-003	-6.28797E-001	3.72068E-002	3.01130E+001	11	...........	6.18486E-002	-5.34625E-003	6.08286E-001	5.35387E-001	-2.60565E-002	-3.70471E-002	7.08436E-001	-4.41006E-002	-3.91874E-003	3.38739E-004	-3.85411E-002	-3.39222E-002	1.65095E-003	2.34731E-003	-4.48866E-002	2.79422E-003
	16	16	4.99799E-002	-6.33134E-002	0.00000E+000	-3.16440E-003	-6.28336E-001	3.73940E-002	3.08014E+001	11	...........	6.21206E-002	-5.39042E-003	6.08279E-001	5.35243E-001	-2.60744E-002	-3.70907E-002	7.08330E-001	-4.40943E-002	-3.93307E-003	3.41286E-004	-3.85122E-002	-3.38881E-002	1.65086E-003	2.34834E-003	-4.48468E-002	2.79176E-003
	17	17	4.99761E-002	-6.23986E-002	0.00000E+000	-3.11844E-003	-6.19245E-001	3.73852E-002	3.09548E+001	11	...........	6.21028E-002	-5.31444E-003	6.08031E-001	5.35215E-001	-2.60431E-002	-3.71015E-002	7.08398E-001	-4.39440E-002	-3.87513E-003	3.31614E-004	-3.79403E-002	-3.33967E-002	1.62505E-003	2.31508E-003	-4.42030E-002	2.74205E-003
	18	18	4.99822E-002	-6.15048E-002	0.00000E+000	-3.07414E-003	-6.10373E-001	3.74350E-002	3.08069E+001	11	...........	6.21726E-002	-5.36236E-003	6.07991E-001	5.35297E-001	-2.60503E-002	-3.70858E-002	7.08385E-001	-4.39964E-002	-3.82391E-003	3.29811E-004	-3.73943E-002	-3.29233E-002	1.60222E-003	2.28095E-003	-4.35690E-002	2.70599E-003
	19	19	4.99750E-002	-6.07441E-002	0.00000E+000	-3.03569E-003	-6.02811E-001	3.75343E-002	3.11088E+001	11	...........	6.23175E-002	-5.38958E-003	6.07966E-001	5.35212E-001	-2.60572E-002	-3.70929E-002	7.08403E-001	-4.39903E-002	-3.78542E-003	3.27385E-004	-3.69304E-002	-3.25110E-002	1.58282E-003	2.25318E-003	-4.30313E-002	2.67215E-003
	20	20	4.99756E-002	-5.93630E-002	0.00000E+000	-2.96670E-003	-5.89072E-001	3.74352E-002	3.03761E+001	11	...........	6.23487E-002	-5.37417E-003	6.08009E-001	5.35175E-001	-2.60639E-002	-3.71275E-002	7.08428E-001	-4.37824E-002	-3.70121E-003	3.19027E-004	-3.60933E-002	-3.17696E-002	1.54723E-003	2.20400E-003	-4.20545E-002	2.59905E-003
	21	21	4.99892E-002	-5.84354E-002	0.00000E+000	-2.92114E-003	-5.79847E-001	3.74536E-002	3.10460E+001	11	...........	6.25290E-002	-5.36486E-003	6.07992E-001	5.35242E-001	-2.60908E-002	-3.71551E-002	7.08494E-001	-4.36986E-002	-3.65391E-003	3.13498E-004	-3.55282E-002	-3.12771E-002	1.52463E-003	2.17117E-003	-4.14011E-002	2.55355E-003
	22	22	4.99782E-002	-5.84524E-002	0.00000E+000	-2.92135E-003	-5.80018E-001	3.75580E-002	3.11895E+001	11	...........	6.27092E-002	-5.35208E-003	6.08055E-001	5.35290E-001	-2.60985E-002	-3.71481E-002	7.08493E-001	-4.39506E-002	-3.66550E-003	3.12842E-004	-3.55423E-002	-3.12890E-002	1.52552E-003	2.17139E-003	-4.14131E-002	2.56902E-003
	23	23	4.99817E-002	-5.78483E-002	0.00000E+000	-2.89136E-003	-5.74008E-001	3.75831E-002	3.13748E+001	11	...........	6.27489E-002	-5.45889E-003	6.07975E-001	5.35226E-001	-2.60806E-002	-3.71506E-002	7.08516E-001	-4.39976E-002	-3.62992E-003	3.15788E-004	-3.51703E-002	-3.09619E-002	1.50872E-003	2.14910E-003	-4.09865E-002	2.54519E-003
	24	24	4.99814E-002	-5.71202E-002	0.00000E+000	-2.85494E-003	-5.66765E-001	3.76896E-002	3.14382E+001	11	...........	6.29125E-002	-5.36042E-003	6.07909E-001	5.35033E-001	-2.60747E-002	-3.71833E-002	7.08476E-001	-4.39564E-002	-3.59357E-003	3.06188E-004	-3.47238E-002	-3.05612E-002	1.48939E-003	2.12392E-003	-4.04683E-002	2.51080E-003
	25	25	4.99665E-002	-5.60050E-002	0.00000E+000	-2.79837E-003	-5.55675E-001	3.77394E-002	3.04647E+001	11	...........	6.30101E-002	-5.36292E-003	6.07878E-001	5.34874E-001	-2.60844E-002	-3.71924E-002	7.08544E-001	-4.39358E-002	-3.52888E-003	3.00350E-004	-3.40442E-002	-2.99556E-002	1.46086E-003	2.08296E-003	-3.96820E-002	2.46063E-003
	26	26	4.99908E-002	-5.48109E-002	0.00000E+000	-2.74004E-003	-5.43801E-001	3.77501E-002	3.10128E+001	11	...........	6.30415E-002	-5.28111E-003	6.07749E-001	5.34949E-001	-2.60994E-002	-3.71722E-002	7.08688E-001	-4.39886E-002	-3.45536E-003	2.89462E-004	-3.33112E-002	-2.93210E-002	1.43053E-003	2.03744E-003	-3.88438E-002	2.41105E-003
	27	27	4.99857E-002	-5.50893E-002	0.00000E+000	-2.75368E-003	-5.46571E-001	3.78761E-002	3.15090E+001	11	...........	6.32504E-002	-5.32514E-003	6.07756E-001	5.34912E-001	-2.60924E-002	-3.71767E-002	7.08772E-001	-4.39667E-002	-3.48442E-003	2.93358E-004	-3.34809E-002	-2.94679E-002	1.43741E-003	2.04804E-003	-3.90457E-002	2.42209E-003
	28	28	4.99799E-002	-5.45207E-002	0.00000E+000	-2.72494E-003	-5.40911E-001	3.79427E-002	3.16180E+001	11	...........	6.33362E-002	-5.36333E-003	6.07888E-001	5.34837E-001	-2.60712E-002	-3.71962E-002	7.08722E-001	-4.39883E-002	-3.45313E-003	2.92412E-004	-3.31425E-002	-2.91597E-002	1.42142E-003	2.02796E-003	-3.86400E-002	2.39827E-003
	29	29	4.99861E-002	-5.38603E-002	0.00000E+000	-2.69226E-003	-5.34346E-001	3.79833E-002	3.09603E+001	11	...........	6.34035E-002	-5.27750E-003	6.07890E-001	5.34755E-001	-2.60640E-002	-3.71639E-002	7.08595E-001	-4.39797E-002	-3.41493E-003	2.84248E-004	-3.27411E-002	-2.88020E-002	1.40382E-003	2.00166E-003	-3.81651E-002	2.36876E-003
	30	30	4.99761E-002	-5.26144E-002	0.00000E+000	-2.62946E-003	-5.21957E-001	3.78540E-002	3.11682E+001	11	...........	6.31982E-002	-5.24278E-003	6.07784E-001	5.34804E-001	-2.60728E-002	-3.71619E-002	7.08460E-001	-4.40239E-002	-3.32514E-003	2.75846E-004	-3.19782E-002	-2.81384E-002	1.37180E-003	1.95525E-003	-3.72752E-002	2.31629E-003
	31	31	4.99881E-002	-5.28909E-002	0.00000E+000	-2.64392E-003	-5.24715E-001	3.80933E-002	3.18695E+001	11	...........	6.35896E-002	-5.28625E-003	6.07809E-001	5.34847E-001	-2.60711E-002	-3.72012E-002	7.08475E-001	-4.40264E-002	-3.36331E-003	2.79595E-004	-3.21476E-002	-2.82886E-002	1.37893E-003	1.96761E-003	-3.74719E-002	2.32860E-003
	32	32	4.99803E-002	-5.24147E-002	0.00000E+000	-2.61970E-003	-5.19978E-001	3.80602E-002	3.17190E+001	11	...........	6.35317E-002	-5.34833E-003	6.07888E-001	5.34822E-001	-2.61036E-002	-3.72032E-002	7.08465E-001	-4.40082E-002	-3.32999E-003	2.80331E-004	-3.18622E-002	-2.80325E-002	1.36821E-003	1.94999E-003	-3.71340E-002	2.30667E-003
	33	33	4.99804E-002	-5.13251E-002	0.00000E+000	-2.56525E-003	-5.09162E-001	3.79772E-002	3.13028E+001	11	...........	6.34061E-002	-5.38528E-003	6.07854E-001	5.34946E-001	-2.60849E-002	-3.71551E-002	7.08426E-001	-4.39556E-002	-3.25433E-003	2.76400E-004	-3.11982E-002	-2.74562E-002	1.33881E-003	1.90699E-003	-3.63600E-002	2.25602E-003
	34	34	4.99819E-002	-5.11605E-002	0.00000E+000	-2.55710E-003	-5.07534E-001	3.82341E-002	3.20119E+001	11	...........	6.38169E-002	-5.41097E-003	6.07880E-001	5.35050E-001	-2.60989E-002	-3.71411E-002	7.08590E-001	-4.38953E-002	-3.26490E-003	2.76828E-004	-3.10994E-002	-2.73734E-002	1.33523E-003	1.90016E-003	-3.62518E-002	2.24570E-003
	35	35	4.99764E-002	-5.04193E-002	0.00000E+000	-2.51978E-003	-5.00163E-001	3.81687E-002	3.13097E+001	11	...........	6.37136E-002	-5.42722E-003	6.07838E-001	5.35103E-001	-2.60883E-002	-3.71267E-002	7.08592E-001	-4.39656E-002	-3.21240E-003	2.73637E-004	-3.06468E-002	-2.69795E-002	1.31536E-003	1.87190E-003	-3.57267E-002	2.21671E-003
	36	36	4.99940E-002	-4.95652E-002	0.00000E+000	-2.47796E-003	-4.91665E-001	3.81706E-002	3.16208E+001	11	...........	6.37085E-002	-5.42625E-003	6.07808E-001	5.35258E-001	-2.60812E-002	-3.71321E-002	7.08740E-001	-4.40404E-002	-3.15772E-003	2.68953E-004	-3.01261E-002	-2.65302E-002	1.29272E-003	1.84046E-003	-3.51288E-002	2.18287E-003
	37	37	4.99788E-002	-4.92563E-002	0.00000E+000	-2.46177E-003	-4.88596E-001	3.82027E-002	3.16586E+001	11	...........	6.37637E-002	-5.61653E-003	6.07737E-001	5.35235E-001	-2.60575E-002	-3.71500E-002	7.08671E-001	-4.40115E-002	-3.14077E-003	2.76649E-004	-2.99349E-002	-2.63637E-002	1.28350E-003	1.82987E-003	-3.49065E-002	2.16785E-003
	38	38	4.99850E-002	-4.91342E-002	0.00000E+000	-2.45597E-003	-4.87386E-001	3.83918E-002	3.21404E+001	11	...........	6.40879E-002	-5.63014E-003	6.07692E-001	5.35102E-001	-2.60561E-002	-3.71364E-002	7.08534E-001	-4.40124E-002	-3.14891E-003	2.76632E-004	-2.98584E-002	-2.62918E-002	1.28025E-003	1.82467E-003	-3.48132E-002	2.16251E-003
	39	39	4.99871E-002	-4.85886E-002	0.00000E+000	-2.42881E-003	-4.81956E-001	3.83739E-002	3.22812E+001	11	...........	6.40447E-002	-5.47056E-003	6.07643E-001	5.34823E-001	-2.60854E-002	-3.71075E-002	7.08501E-001	-4.40011E-002	-3.11185E-003	2.65807E-004	-2.95245E-002	-2.59863E-002	1.26745E-003	1.80300E-003	-3.44251E-002	2.13795E-003
	40	40	4.99809E-002	-4.80257E-002	0.00000E+000	-2.40036E-003	-4.76353E-001	3.84133E-002	3.16740E+001	11	...........	6.41062E-002	-5.33444E-003	6.07560E-001	5.34716E-001	-2.60906E-002	-3.71196E-002	7.08399E-001	-4.39824E-002	-3.07874E-003	2.56190E-004	-2.91785E-002	-2.56801E-002	1.25302E-003	1.78269E-003	-3.40213E-002	2.11228E-003
	41	41	4.99766E-002	-4.69043E-002	0.00000E+000	-2.34412E-003	-4.65201E-001	3.83074E-002	3.16132E+001	11	...........	6.39507E-002	-5.32500E-003	6.07760E-001	5.34702E-001	-2.60815E-002	-3.71046E-002	7.08351E-001	-4.40938E-002	-2.99956E-003	2.49765E-004	-2.85066E-002	-2.50798E-002	1.22334E-003	1.74036E-003	-3.32247E-002	2.06819E-003
	42	42	4.99874E-002	-4.71027E-002	0.00000E+000	-2.35454E-003	-4.67179E-001	3.85565E-002	3.23006E+001	11	...........	6.43699E-002	-5.43139E-003	6.07768E-001	5.34674E-001	-2.60656E-002	-3.70657E-002	7.08452E-001	-4.40460E-002	-3.03200E-003	2.55833E-004	-2.86276E-002	-2.51846E-002	1.22776E-003	1.74590E-003	-3.33700E-002	2.07469E-003
	43	43	4.99885E-002	-4.68392E-002	0.00000E+000	-2.34142E-003	-4.64555E-001	3.85458E-002	3.24246E+001	11	...........	6.43326E-002	-5.38458E-003	6.07767E-001	5.34695E-001	-2.60900E-002	-3.70947E-002	7.08510E-001	-4.39424E-002	-3.01329E-003	2.52209E-004	-2.84673E-002	-2.50447E-002	1.22203E-003	1.73749E-003	-3.31860E-002	2.05822E-003
	44	44	4.99779E-002	-4.60298E-002	0.00000E+000	-2.30047E-003	-4.56508E-001	3.84955E-002	3.14429E+001	11	...........	6.42262E-002	-5.36347E-003	6.07668E-001	5.34681E-001	-2.60760E-002	-3.71474E-002	7.08550E-001	-4.38890E-002	-2.95632E-003	2.46879E-004	-2.79708E-002	-2.46113E-002	1.20027E-003	1.70988E-003	-3.26144E-002	2.02020E-003
	45	45	4.99837E-002	-4.54443E-002	0.00000E+000	-2.27147E-003	-4.50686E-001	3.87121E-002	3.20615E+001	11	...........	6.46040E-002	-5.36292E-003	6.07749E-001	5.34704E-001	-2.60890E-002	-3.71325E-002	7.08580E-001	-4.39601E-002	-2.93589E-003	2.43714E-004	-2.76187E-002	-2.42992E-002	1.18560E-003	1.68746E-003	-3.22009E-002	1.99774E-003
	46	46	4.99749E-002	-4.47238E-002	0.00000E+000	-2.23507E-003	-4.43526E-001	3.85426E-002	3.17138E+001	11	...........	6.43474E-002	-5.32222E-003	6.07731E-001	5.34939E-001	-2.60669E-002	-3.71093E-002	7.08652E-001	-4.39675E-002	-2.87786E-003	2.38030E-004	-2.71800E-002	-2.39245E-002	1.16581E-003	1.65967E-003	-3.16936E-002	1.96639E-003
	47	47	4.99942E-002	-4.44745E-002	0.00000E+000	-2.22347E-003	-4.41040E-001	3.87282E-002	3.23361E+001	11	...........	6.46225E-002	-5.29861E-003	6.07819E-001	5.35084E-001	-2.60585E-002	-3.70894E-002	7.08580E-001	-4.39908E-002	-2.87405E-003	2.35653E-004	-2.70325E-002	-2.37976E-002	1.15894E-003	1.64954E-003	-3.15138E-002	1.95647E-003
	48	48	4.99823E-002	-4.43466E-002	0.00000E+000	-2.21655E-003	-4.39766E-001	3.87322E-002	3.23286E+001	11	...........	6.46396E-002	-5.24056E-003	6.07807E-001	5.35257E-001	-2.60375E-002	-3.71235E-002	7.08500E-001	-4.40206E-002	-2.86655E-003	2.32401E-004	-2.69542E-002	-2.37369E-002	1.15468E-003	1.64630E-003	-3.14196E-002	1.95216E-003
	49	49	4.99789E-002	-4.35867E-002	0.00000E+000	-2.17842E-003	-4.32211E-001	3.87282E-002	3.20143E+001	11	...........	6.46286E-002	-5.27486E-003	6.07599E-001	5.35136E-001	-2.60125E-002	-3.71392E-002	7.08336E-001	-4.40561E-002	-2.81695E-003	2.29914E-004	-2.64832E-002	-2.33248E-002	1.13380E-003	1.61877E-003	-3.08740E-002	1.92026E-003
	50	50	4.99872E-002	-4.30612E-002	0.00000E+000	-2.15251E-003	-4.26982E-001	3.88504E-002	3.21831E+001	11	...........	6.48358E-002	-5.28667E-003	6.07502E-001	5.35210E-001	-2.60183E-002	-3.71614E-002	7.08496E-001	-4.40029E-002	-2.79191E-003	2.27650E-004	-2.61597E-002	-2.30467E-002	1.12038E-003	1.60021E-003	-3.05087E-002	1.89482E-003
	51	51	4.99699E-002	-4.22265E-002	0.00000E+000	-2.11005E-003	-4.18691E-001	3.86828E-002	3.18298E+001	11	...........	6.45642E-002	-5.28444E-003	6.07479E-001	5.35307E-001	-2.59882E-002	-3.71514E-002	7.08504E-001	-4.40025E-002	-2.72632E-003	2.23144E-004	-2.56517E-002	-2.26041E-002	1.09739E-003	1.56877E-003	-2.99177E-002	1.85807E-003
	52	52	4.99979E-002	-4.21728E-002	0.00000E+000	-2.10855E-003	-4.18157E-001	3.88799E-002	3.26369E+001	11	...........	6.48887E-002	-5.36528E-003	6.07490E-001	5.35296E-001	-2.60040E-002	-3.71704E-002	7.08547E-001	-4.40532E-002	-2.73654E-003	2.26269E-004	-2.56195E-002	-2.25749E-002	1.09666E-003	1.56758E-003	-2.98814E-002	1.85785E-003
	53	53	4.99862E-002	-4.20292E-002	0.00000E+000	-2.10088E-003	-4.16728E-001	3.88637E-002	3.28888E+001	11	...........	6.48468E-002	-5.41417E-003	6.07521E-001	5.35264E-001	-2.60076E-002	-3.71758E-002	7.08471E-001	-4.39999E-002	-2.72546E-003	2.27553E-004	-2.55336E-002	-2.24967E-002	1.09308E-003	1.56247E-003	-2.97764E-002	1.84928E-003
	54	54	4.99802E-002	-4.15814E-002	0.00000E+000	-2.07825E-003	-4.12287E-001	3.89077E-002	3.27534E+001	11	...........	6.49176E-002	-5.34375E-003	6.07503E-001	5.35209E-001	-2.60308E-002	-3.71710E-002	7.08581E-001	-4.39492E-002	-2.69937E-003	2.22201E-004	-2.52608E-002	-2.22547E-002	1.08240E-003	1.54562E-003	-2.94638E-002	1.82747E-003
	55	55	4.99783E-002	-4.06630E-002	0.00000E+000	-2.03226E-003	-4.03179E-001	3.88704E-002	3.16211E+001	11	...........	6.48660E-002	-5.32778E-003	6.07373E-001	5.35275E-001	-2.60006E-002	-3.71510E-002	7.08542E-001	-4.39635E-002	-2.63764E-003	2.16643E-004	-2.46976E-002	-2.17659E-002	1.05726E-003	1.51067E-003	-2.88114E-002	1.78769E-003
	56	56	4.99843E-002	-4.02962E-002	0.00000E+000	-2.01417E-003	-3.99528E-001	3.89683E-002	3.20564E+001	11	...........	6.50300E-002	-5.31486E-003	6.07324E-001	5.35259E-001	-2.60161E-002	-3.71750E-002	7.08572E-001	-4.40585E-002	-2.62046E-003	2.14168E-004	-2.44728E-002	-2.15689E-002	1.04835E-003	1.49801E-003	-2.85527E-002	1.77539E-003
	57	57	4.99921E-002	-3.98982E-002	0.00000E+000	-1.99460E-003	-3.95571E-001	3.89884E-002	3.28257E+001	11	...........	6.50719E-002	-5.32056E-003	6.07381E-001	5.35221E-001	-2.60010E-002	-3.72025E-002	7.08497E-001	-4.40507E-002	-2.59626E-003	2.12281E-004	-2.42334E-002	-2.13544E-002	1.03739E-003	1.48431E-003	-2.82678E-002	1.75754E-003
	58	58	4.99819E-002	-3.97127E-002	0.00000E+000	-1.98492E-003	-3.93721E-001	3.90429E-002	3.30861E+001	11	...........	6.51471E-002	-5.33625E-003	6.07380E-001	5.35246E-001	-2.60079E-002	-3.71856E-002	7.08412E-001	-4.40429E-002	-2.58717E-003	2.11917E-004	-2.41207E-002	-2.12560E-002	1.03284E-003	1.47674E-003	-2.81329E-002	1.74906E-003
	59	59	4.99838E-002	-3.92743E-002	0.00000E+000	-1.96308E-003	-3.89358E-001	3.90858E-002	3.22065E+001	11	...........	6.52325E-002	-5.33514E-003	6.07494E-001	5.35340E-001	-2.60224E-002	-3.71457E-002	7.08464E-001	-4.40436E-002	-2.56196E-003	2.09534E-004	-2.38589E-002	-2.10251E-002	1.02201E-003	1.45887E-003	-2.78244E-002	1.72978E-003
	60	60	4.99799E-002	-3.82769E-002	0.00000E+000	-1.91308E-003	-3.79439E-001	3.89214E-002	3.22313E+001	11	...........	6.49493E-002	-5.34778E-003	6.07652E-001	5.35338E-001	-2.60335E-002	-3.71531E-002	7.08508E-001	-4.39583E-002	-2.48606E-003	2.04697E-004	-2.32591E-002	-2.04911E-002	9.96482E-004	1.42211E-003	-2.71195E-002	1.68259E-003
	61	61	4.99883E-002	-3.83414E-002	0.00000E+000	-1.91662E-003	-3.80080E-001	3.91457E-002	3.29896E+001	11	...........	6.53100E-002	-5.38083E-003	6.07623E-001	5.35374E-001	-2.60044E-002	-3.71569E-002	7.08509E-001	-4.38799E-002	-2.50408E-003	2.06309E-004	-2.32971E-002	-2.05270E-002	9.97047E-004	1.42465E-003	-2.71652E-002	1.68242E-003
	62	62	4.99833E-002	-3.79691E-002	0.00000E+000	-1.89782E-003	-3.76381E-001	3.90542E-002	3.28406E+001	11	...........	6.51842E-002	-5.41736E-003	6.07350E-001	5.35250E-001	-2.60228E-002	-3.72011E-002	7.08675E-001	-4.39764E-002	-2.47499E-003	2.05693E-004	-2.30606E-002	-2.03230E-002	9.88063E-004	1.41249E-003	-2.69078E-002	1.66975E-003
	63	63	4.99827E-002	-3.75838E-002	0.00000E+000	-1.87854E-003	-3.72548E-001	3.91751E-002	3.29762E+001	11	...........	6.53799E-002	-5.51292E-003	6.07300E-001	5.35318E-001	-2.60264E-002	-3.71747E-002	7.08530E-001	-4.40346E-002	-2.45722E-003	2.07196E-004	-2.28246E-002	-2.01193E-002	9.78171E-004	1.39717E-003	-2.66293E-002	1.65499E-003
	64	64	4.99820E-002	-3.66917E-002	0.00000E+000	-1.83393E-003	-3.63674E-001	3.90308E-002	3.22942E+001	11	...........	6.51404E-002	-5.48694E-003	6.07400E-001	5.35338E-001	-2.60243E-002	-3.71747E-002	7.08646E-001	-4.40415E-002	-2.39012E-003	2.01326E-004	-2.22866E-002	-1.96425E-002	9.54877E-004	1.36401E-003	-2.60015E-002	1.61596E-003
	65	65	4.99912E-002	-3.67201E-002	0.00000E+000	-1.83568E-003	-3.63959E-001	3.92186E-002	3.30713E+001	11	...........	6.54571E-002	-5.41889E-003	6.07503E-001	5.35217E-001	-2.60564E-002	-3.71839E-002	7.08564E-001	-4.41149E-002	-2.40359E-003	1.98982E-004	-2.23076E-002	-1.96532E-002	9.56792E-004	1.36540E-003	-2.60185E-002	1.61990E-003
	66	66	4.99741E-002	-3.63618E-002	0.00000E+000	-1.81715E-003	-3.60387E-001	3.91801E-002	3.29737E+001	11	...........	6.53674E-002	-5.40431E-003	6.07649E-001	5.35153E-001	-2.60292E-002	-3.72004E-002	7.08497E-001	-4.40625E-002	-2.37688E-003	1.96510E-004	-2.20952E-002	-1.94592E-002	9.46468E-004	1.35268E-003	-2.57622E-002	1.60219E-003
	67	67	4.99904E-002	-3.59657E-002	0.00000E+000	-1.79794E-003	-3.56453E-001	3.92640E-002	3.33701E+001	11	...........	6.55322E-002	-5.34153E-003	6.07809E-001	5.35161E-001	-2.60431E-002	-3.71837E-002	7.08604E-001	-4.40250E-002	-2.35691E-003	1.92112E-004	-2.18603E-002	-1.92475E-002	9.36658E-004	1.33734E-003	-2.54855E-002	1.58339E-003
	68	68	4.99845E-002	-3.54576E-002	0.00000E+000	-1.77233E-003	-3.51393E-001	3.92606E-002	3.27063E+001	11	...........	6.55042E-002	-5.34778E-003	6.07891E-001	5.35137E-001	-2.60451E-002	-3.71119E-002	7.08584E-001	-4.39815E-002	-2.32262E-003	1.89619E-004	-2.15544E-002	-1.89747E-002	9.23498E-004	1.31590E-003	-2.51247E-002	1.55948E-003
	69	69	4.99839E-002	-3.46954E-002	0.00000E+000	-1.73421E-003	-3.43820E-001	3.91540E-002	3.28155E+001	11	...........	6.53257E-002	-5.32444E-003	6.07770E-001	5.35147E-001	-2.60562E-002	-3.71126E-002	7.08612E-001	-4.40047E-002	-2.26650E-003	1.84734E-004	-2.10868E-002	-1.85671E-002	9.04032E-004	1.28764E-003	-2.45856E-002	1.52676E-003
	70	70	4.99873E-002	-3.48482E-002	0.00000E+000	-1.74197E-003	-3.45343E-001	3.93812E-002	3.35194E+001	11	...........	6.57146E-002	-5.42056E-003	6.07795E-001	5.35029E-001	-2.60576E-002	-3.71146E-002	7.08578E-001	-4.39333E-002	-2.29003E-003	1.88896E-004	-2.11805E-002	-1.86448E-002	9.08061E-004	1.29338E-003	-2.46926E-002	1.53100E-003
	71	71	4.99831E-002	-3.45114E-002	0.00000E+000	-1.72499E-003	-3.41985E-001	3.93602E-002	3.32208E+001	11	...........	6.56968E-002	-5.39083E-003	6.07743E-001	5.35143E-001	-2.60669E-002	-3.71131E-002	7.08537E-001	-4.37775E-002	-2.26729E-003	1.86045E-004	-2.09740E-002	-1.84685E-002	8.99606E-004	1.28082E-003	-2.44526E-002	1.51082E-003
	72	72	4.99829E-002	-3.36163E-002	0.00000E+000	-1.68024E-003	-3.33079E-001	3.92904E-002	3.28532E+001	11	...........	6.55793E-002	-5.29569E-003	6.07761E-001	5.35071E-001	-2.60965E-002	-3.71162E-002	7.08574E-001	-4.38367E-002	-2.20453E-003	1.78021E-004	-2.04307E-002	-1.79871E-002	8.77268E-004	1.24771E-003	-2.38196E-002	1.47363E-003
	73	73	4.99835E-002	-3.34825E-002	0.00000E+000	-1.67357E-003	-3.31752E-001	3.94201E-002	3.32243E+001	11	...........	6.57814E-002	-5.31014E-003	6.07859E-001	5.35142E-001	-2.60981E-002	-3.71397E-002	7.08561E-001	-4.38696E-002	-2.20252E-003	1.77797E-004	-2.03526E-002	-1.79179E-002	8.73827E-004	1.24353E-003	-2.37244E-002	1.46886E-003
	74	74	4.99745E-002	-3.28640E-002	0.00000E+000	-1.64236E-003	-3.25601E-001	3.92976E-002	3.22326E+001	11	...........	6.55811E-002	-5.30931E-003	6.07782E-001	5.35006E-001	-2.61026E-002	-3.71224E-002	7.08414E-001	-4.39824E-002	-2.15526E-003	1.74485E-004	-1.99741E-002	-1.75824E-002	8.57836E-004	1.21999E-003	-2.32813E-002	1.44544E-003
	75	75	4.99997E-002	-3.27826E-002	0.00000E+000	-1.63912E-003	-3.24792E-001	3.95096E-002	3.34523E+001	11	...........	6.59394E-002	-5.37667E-003	6.07756E-001	5.34976E-001	-2.60906E-002	-3.70950E-002	7.08414E-001	-4.39956E-002	-2.16167E-003	1.76261E-004	-1.99238E-002	-1.75379E-002	8.55317E-004	1.21607E-003	-2.32237E-002	1.44229E-003
	76	76	4.99792E-002	-3.24581E-002	0.00000E+000	-1.62223E-003	-3.21572E-001	3.94595E-002	3.36523E+001	11	...........	6.58612E-002	-5.34972E-003	6.07770E-001	5.35043E-001	-2.60778E-002	-3.71296E-002	7.08412E-001	-4.39788E-002	-2.13773E-003	1.73642E-004	-1.97271E-002	-1.73665E-002	8.46436E-004	1.20516E-003	-2.29937E-002	1.42747E-003
	77	77	4.99819E-002	-3.17910E-002	0.00000E+000	-1.58897E-003	-3.14933E-001	3.94247E-002	3.25623E+001	11	...........	6.57967E-002	-5.40056E-003	6.07726E-001	5.35058E-001	-2.60674E-002	-3.71187E-002	7.08428E-001	-4.40236E-002	-2.09174E-003	1.71689E-004	-1.93202E-002	-1.70100E-002	8.28708E-004	1.18004E-003	-2.25216E-002	1.39956E-003
	78	78	4.99902E-002	-3.12658E-002	0.00000E+000	-1.56298E-003	-3.09708E-001	3.93974E-002	3.30623E+001	11	...........	6.57272E-002	-5.34306E-003	6.07777E-001	5.34844E-001	-2.60392E-002	-3.71254E-002	7.08573E-001	-4.39835E-002	-2.05501E-003	1.67055E-004	-1.90026E-002	-1.67223E-002	8.14134E-004	1.16075E-003	-2.21541E-002	1.37518E-003
	79	79	4.99862E-002	-3.15019E-002	0.00000E+000	-1.57466E-003	-3.12055E-001	3.95838E-002	3.34515E+001	11	...........	6.60497E-002	-5.38833E-003	6.07830E-001	5.34797E-001	-2.60479E-002	-3.71328E-002	7.08515E-001	-4.40085E-002	-2.08070E-003	1.69743E-004	-1.91478E-002	-1.68471E-002	8.20560E-004	1.16975E-003	-2.23196E-002	1.38635E-003
	80	80	4.99715E-002	-3.09000E-002	0.00000E+000	-1.54412E-003	-3.06097E-001	3.95188E-002	3.31448E+001	11	...........	6.59603E-002	-5.36889E-003	6.07855E-001	5.34800E-001	-2.60396E-002	-3.71481E-002	7.08565E-001	-4.40042E-002	-2.03817E-003	1.65898E-004	-1.87827E-002	-1.65253E-002	8.04622E-004	1.14787E-003	-2.18946E-002	1.35973E-003
	81	81	4.99937E-002	-3.01961E-002	0.00000E+000	-1.50962E-003	-2.99104E-001	3.95753E-002	3.30594E+001	11	...........	6.60389E-002	-5.35694E-003	6.07876E-001	5.34894E-001	-2.60244E-002	-3.71183E-002	7.08746E-001	-4.40381E-002	-1.99412E-003	1.61759E-004	-1.83555E-002	-1.61517E-002	7.85838E-004	1.12083E-003	-2.14014E-002	1.32978E-003
	82	82	4.99870E-002	-2.99534E-002	0.00000E+000	-1.49728E-003	-2.96691E-001	3.94707E-002	3.32181E+001	11	...........	6.58464E-002	-5.33403E-003	6.07840E-001	5.35067E-001	-2.60112E-002	-3.71421E-002	7.08803E-001	-4.39917E-002	-1.97232E-003	1.59772E-004	-1.82069E-002	-1.60271E-002	7.79126E-004	1.11253E-003	-2.12311E-002	1.31770E-003
	83	83	4.99861E-002	-2.99859E-002	0.00000E+000	-1.49888E-003	-2.97017E-001	3.96437E-002	3.38108E+001	11	...........	6.61507E-002	-5.33722E-003	6.07985E-001	5.35025E-001	-2.60132E-002	-3.71697E-002	7.08779E-001	-4.38990E-002	-1.98359E-003	1.60041E-004	-1.82310E-002	-1.60432E-002	7.80029E-004	1.11457E-003	-2.12534E-002	1.31635E-003
	84	84	4.99805E-002	-2.94222E-002	0.00000E+000	-1.47054E-003	-2.91408E-001	3.95807E-002	3.28400E+001	11	...........	6.60257E-002	-5.42847E-003	6.08040E-001	5.35114E-001	-2.60228E-002	-3.71607E-002	7.08615E-001	-4.37894E-002	-1.94262E-003	1.59717E-004	-1.78898E-002	-1.57442E-002	7.65646E-004	1.09335E-003	-2.08490E-002	1.28838E-003
	85	85	4.99873E-002	-2.90331E-002	0.00000E+000	-1.45129E-003	-2.87538E-001	3.96490E-002	3.31736E+001	11	...........	6.61719E-002	-5.45028E-003	6.08070E-001	5.34995E-001	-2.60118E-002	-3.71512E-002	7.08587E-001	-4.38253E-002	-1.92118E-003	1.58239E-004	-1.76542E-002	-1.55326E-002	7.55204E-004	1.07862E-003	-2.05725E-002	1.27238E-003
	86	86	4.99871E-002	-2.87156E-002	0.00000E+000	-1.43541E-003	-2.84373E-001	3.95807E-002	3.36456E+001	11	...........	6.60599E-002	-5.39625E-003	6.08079E-001	5.34894E-001	-2.60390E-002	-3.71781E-002	7.08641E-001	-4.39664E-002	-1.89695E-003	1.54957E-004	-1.74614E-002	-1.53598E-002	7.47727E-004	1.06759E-003	-2.03491E-002	1.26252E-003
	87	87	4.99855E-002	-2.86124E-002	0.00000E+000	-1.43021E-003	-2.83342E-001	3.96531E-002	3.38940E+001	11	...........	6.61729E-002	-5.47569E-003	6.07936E-001	5.34873E-001	-2.60360E-002	-3.72029E-002	7.08432E-001	-4.39694E-002	-1.89337E-003	1.56673E-004	-1.73945E-002	-1.53040E-002	7.44952E-004	1.06447E-003	-2.02700E-002	1.25807E-003
	88	88	4.99824E-002	-2.82162E-002	0.00000E+000	-1.41031E-003	-2.79410E-001	3.97080E-002	3.29474E+001	11	...........	6.62607E-002	-5.44014E-003	6.07963E-001	5.35002E-001	-2.60586E-002	-3.71639E-002	7.08500E-001	-4.38582E-002	-1.86962E-003	1.53500E-004	-1.71544E-002	-1.50957E-002	7.35274E-004	1.04862E-003	-1.99912E-002	1.23751E-003
	89	89	4.99856E-002	-2.75605E-002	0.00000E+000	-1.37763E-003	-2.72886E-001	3.96454E-002	3.32446E+001	11	...........	6.61499E-002	-5.37903E-003	6.08011E-001	5.34951E-001	-2.60453E-002	-3.71665E-002	7.08553E-001	-4.39531E-002	-1.82312E-003	1.48249E-004	-1.67571E-002	-1.47435E-002	7.17821E-004	1.02433E-003	-1.95281E-002	1.21137E-003
	90	90	4.99899E-002	-2.75508E-002	0.00000E+000	-1.37726E-003	-2.72793E-001	3.96937E-002	3.39588E+001	11	...........	6.62171E-002	-5.37556E-003	6.08023E-001	5.35141E-001	-2.60612E-002	-3.72006E-002	7.08631E-001	-4.39542E-002	-1.82433E-003	1.48101E-004	-1.67515E-002	-1.47435E-002	7.18007E-004	1.02490E-003	-1.95233E-002	1.21097E-003
	91	91	4.99819E-002	-2.73441E-002	0.00000E+000	-1.36671E-003	-2.70745E-001	3.97092E-002	3.30426E+001	11	...........	6.62610E-002	-5.32528E-003	6.08022E-001	5.35129E-001	-2.60669E-002	-3.72076E-002	7.08571E-001	-4.39322E-002	-1.81185E-003	1.45615E-004	-1.66258E-002	-1.46326E-002	7.12777E-004	1.01741E-003	-1.93752E-002	1.20129E-003
	92	92	4.99882E-002	-2.67690E-002	0.00000E+000	-1.33813E-003	-2.65018E-001	3.97283E-002	3.38173E+001	11	...........	6.62910E-002	-5.48722E-003	6.07978E-001	5.35185E-001	-2.60596E-002	-3.71429E-002	7.08468E-001	-4.39819E-002	-1.77454E-003	1.46887E-004	-1.62750E-002	-1.43264E-002	6.97589E-004	9.94279E-004	-1.89650E-002	1.17735E-003
	93	93	4.99849E-002	-2.66015E-002	0.00000E+000	-1.32967E-003	-2.63346E-001	3.97550E-002	3.39457E+001	11	...........	6.63593E-002	-5.53417E-003	6.07949E-001	5.35197E-001	-2.60881E-002	-3.71251E-002	7.08421E-001	-4.39403E-002	-1.76526E-003	1.47217E-004	-1.61724E-002	-1.42370E-002	6.93981E-004	9.87584E-004	-1.88451E-002	1.16888E-003
	94	94	4.99854E-002	-2.62474E-002	0.00000E+000	-1.31199E-003	-2.59823E-001	3.97238E-002	3.32430E+001	11	...........	6.62892E-002	-5.40028E-003	6.07909E-001	5.34859E-001	-2.60664E-002	-3.71004E-002	7.08457E-001	-4.39831E-002	-1.73992E-003	1.41744E-004	-1.59561E-002	-1.40387E-002	6.84176E-004	9.73791E-004	-1.85952E-002	1.15444E-003
	95	95	4.99856E-002	-2.59156E-002	0.00000E+000	-1.29541E-003	-2.56523E-001	3.97656E-002	3.39591E+001	11	...........	6.63508E-002	-5.44597E-003	6.07962E-001	5.34839E-001	-2.60703E-002	-3.71119E-002	7.08427E-001	-4.41382E-002	-1.71952E-003	1.41136E-004	-1.57557E-002	-1.38607E-002	6.75627E-004	9.61778E-004	-1.83593E-002	1.14387E-003
	96	96	4.99863E-002	-2.58274E-002	0.00000E+000	-1.29102E-003	-2.55650E-001	3.98208E-002	3.42504E+001	11	...........	6.64467E-002	-5.53639E-003	6.07995E-001	5.34790E-001	-2.60657E-002	-3.70874E-002	7.08413E-001	-4.41006E-002	-1.71615E-003	1.42991E-004	-1.57029E-002	-1.38122E-002	6.73210E-004	9.57871E-004	-1.82965E-002	1.13900E-003
	97	97	4.99772E-002	-2.54996E-002	0.00000E+000	-1.27440E-003	-2.52387E-001	3.98109E-002	3.32605E+001	11	...........	6.64611E-002	-5.42736E-003	6.08001E-001	5.34756E-001	-2.60422E-002	-3.70967E-002	7.08609E-001	-4.40274E-002	-1.69473E-003	1.38395E-004	-1.55038E-002	-1.36361E-002	6.64065E-004	9.45949E-004	-1.80692E-002	1.12268E-003
	98	98	4.99896E-002	-2.47361E-002	0.00000E+000	-1.23655E-003	-2.44799E-001	3.97465E-002	3.32148E+001	11	...........	6.63471E-002	-5.35125E-003	6.07879E-001	5.34737E-001	-2.60561E-002	-3.70832E-002	7.08566E-001	-4.41087E-002	-1.64117E-003	1.32369E-004	-1.50366E-002	-1.32273E-002	6.44527E-004	9.17295E-004	-1.75272E-002	1.09108E-003
	99	99	4.99898E-002	-2.46325E-002	0.00000E+000	-1.23137E-003	-2.43774E-001	3.98125E-002	3.39588E+001	11	...........	6.64217E-002	-5.40764E-003	6.07840E-001	5.34688E-001	-2.60496E-002	-3.71029E-002	7.08618E-001	-4.40349E-002	-1.63613E-003	1.33204E-004	-1.49726E-002	-1.31707E-002	6.41666E-004	9.13937E-004	-1.74550E-002	1.08469E-003
	100	100	4.99869E-002	-2.46534E-002	0.00000E+000	-1.23234E-003	-2.43977E-001	3.98744E-002	3.41816E+001	11	...........	6.65417E-002	-5.35208E-003	6.07858E-001	5.34718E-001	-2.60171E-002	-3.70940E-002	7.08504E-001	-4.38885E-002	-1.64048E-003	1.31947E-004	-1.49857E-002	-1.31826E-002	6.41408E-004	9.14492E-004	-1.74670E-002	1.08200E-003
	101	101	4.99853E-002	-2.43372E-002	0.00000E+000	-1.21650E-003	-2.40827E-001	3.99039E-002	3.38319E+001	11	...........	6.66004E-002	-5.37917E-003	6.07768E-001	5.34645E-001	-2.60340E-002	-3.70921E-002	7.08538E-001	-4.38214E-002	-1.62087E-003	1.30914E-004	-1.47914E-002	-1.30118E-002	6.33596E-004	9.02719E-004	-1.72439E-002	1.06649E-003
	102	102	4.99847E-002	-2.38314E-002	0.00000E+000	-1.19121E-003	-2.35793E-001	3.98400E-002	3.41864E+001	11	...........	6.65021E-002	-5.40375E-003	6.07720E-001	5.34712E-001	-2.60325E-002	-3.70515E-002	7.08556E-001	-4.39376E-002	-1.58484E-003	1.28779E-004	-1.44828E-002	-1.27429E-002	6.20391E-004	8.82990E-004	-1.68859E-002	1.04710E-003
	103	103	4.99821E-002	-2.36046E-002	0.00000E+000	-1.17980E-003	-2.33538E-001	3.99348E-002	3.31237E+001	11	...........	6.66285E-002	-5.46903E-003	6.07793E-001	5.34667E-001	-2.60393E-002	-3.70464E-002	7.08666E-001	-4.39979E-002	-1.57274E-003	1.29094E-004	-1.43467E-002	-1.26206E-002	6.14646E-004	8.74464E-004	-1.67277E-002	1.03855E-003
	104	104	4.99885E-002	-2.31050E-002	0.00000E+000	-1.15498E-003	-2.28577E-001	3.98433E-002	3.39180E+001	11	...........	6.64964E-002	-5.35181E-003	6.07868E-001	5.34602E-001	-2.60425E-002	-3.70346E-002	7.08590E-001	-4.40167E-002	-1.53640E-003	1.23653E-004	-1.40448E-002	-1.23520E-002	6.01712E-004	8.55684E-004	-1.63720E-002	1.01700E-003
	105	105	4.99847E-002	-2.31386E-002	0.00000E+000	-1.15658E-003	-2.28918E-001	3.99283E-002	3.42159E+001	11	...........	6.66547E-002	-5.36500E-003	6.07830E-001	5.34584E-001	-2.60651E-002	-3.70251E-002	7.08592E-001	-4.40018E-002	-1.54230E-003	1.24139E-004	-1.40644E-002	-1.23695E-002	6.03111E-004	8.56711E-004	-1.63958E-002	1.01814E-003
	106	106	4.99880E-002	-2.28865E-002	0.00000E+000	-1.14405E-003	-2.26397E-001	3.99623E-002	3.43918E+001	11	...........	6.67032E-002	-5.35597E-003	6.07952E-001	5.34604E-001	-2.60332E-002	-3.70481E-002	7.08495E-001	-4.40521E-002	-1.52660E-003	1.22579E-004	-1.39139E-002	-1.22352E-002	5.95808E-004	8.47900E-004	-1.62150E-002	1.00820E-003
	107	107	4.99853E-002	-2.25842E-002	0.00000E+000	-1.12888E-003	-2.23383E-001	3.99773E-002	3.39584E+001	11	...........	6.67079E-002	-5.33667E-003	6.07989E-001	5.34712E-001	-2.60062E-002	-3.70401E-002	7.08448E-001	-4.40094E-002	-1.50655E-003	1.20524E-004	-1.37310E-002	-1.20760E-002	5.87331E-004	8.36523E-004	-1.59997E-002	9.93919E-004
	108	108	4.99855E-002	-2.20683E-002	0.00000E+000	-1.10310E-003	-2.18258E-001	3.98888E-002	3.37024E+001	11	...........	6.65700E-002	-5.39625E-003	6.07958E-001	5.34984E-001	-2.59887E-002	-3.70275E-002	7.08497E-001	-4.39953E-002	-1.46909E-003	1.19086E-004	-1.34166E-002	-1.18062E-002	5.73528E-004	8.17135E-004	-1.56353E-002	9.70902E-004
	109	109	4.99868E-002	-2.20280E-002	0.00000E+000	-1.10111E-003	-2.17870E-001	4.00041E-002	3.43471E+001	11	...........	6.67596E-002	-5.45681E-003	6.07887E-001	5.35080E-001	-2.60025E-002	-3.70246E-002	7.08601E-001	-4.41304E-002	-1.47058E-003	1.20203E-004	-1.33906E-002	-1.17868E-002	5.72784E-004	8.15579E-004	-1.56091E-002	9.72106E-004
	110	110	4.99881E-002	-2.19270E-002	0.00000E+000	-1.09609E-003	-2.16876E-001	4.00252E-002	3.44208E+001	11	...........	6.67854E-002	-5.38778E-003	6.07799E-001	5.35125E-001	-2.60153E-002	-3.70250E-002	7.08563E-001	-4.41407E-002	-1.46441E-003	1.18138E-004	-1.33272E-002	-1.17337E-002	5.70438E-004	8.11848E-004	-1.55367E-002	9.67874E-004
	111	111	4.99845E-002	-2.15336E-002	0.00000E+000	-1.07635E-003	-2.12955E-001	3.98525E-002	3.41722E+001	11	...........	6.67282E-002	-5.33639E-003	6.07819E-001	5.35032E-001	-2.60144E-002	-3.70081E-002	7.08625E-001	-4.41729E-002	-1.43690E-003	1.14912E-004	-1.30886E-002	-1.15212E-002	5.60186E-004	7.96918E-004	-1.52593E-002	9.51203E-004
	112	112	4.99848E-002	-2.13232E-002	0.00000E+000	-1.06584E-003	-2.10856E-001	4.00543E-002	3.45314E+001	11	...........	6.68397E-002	-5.31639E-003	6.07785E-001	5.34853E-001	-2.60324E-002	-3.70258E-002	7.08578E-001	-4.40701E-002	-1.42524E-003	1.13363E-004	-1.29599E-002	-1.14048E-002	5.55094E-004	7.89511E-004	-1.51092E-002	9.39718E-004
	113	113	4.99873E-002	-2.08732E-002	0.00000E+000	-1.04339E-003	-2.06372E-001	4.00389E-002	3.40225E+001	11	...........	6.68133E-002	-5.33167E-003	6.07660E-001	5.34807E-001	-2.60257E-002	-3.70324E-002	7.08526E-001	-4.40753E-002	-1.39461E-003	1.11289E-004	-1.26838E-002	-1.11631E-002	5.43239E-004	7.72983E-004	-1.47892E-002	9.19991E-004
	114	114	4.99857E-002	-2.04453E-002	0.00000E+000	-1.02197E-003	-2.02130E-001	3.98351E-002	3.35218E+001	11	...........	6.64807E-002	-5.33347E-003	6.07694E-001	5.34708E-001	-2.60319E-002	-3.70401E-002	7.08556E-001	-4.40371E-002	-1.35922E-003	1.09044E-004	-1.24245E-002	-1.09323E-002	5.32230E-004	7.57295E-004	-1.44866E-002	9.00350E-004
	115	115	4.99891E-002	-2.05997E-002	0.00000E+000	-1.02976E-003	-2.03673E-001	4.01931E-002	3.47543E+001	11	...........	6.70760E-002	-5.30667E-003	6.07756E-001	5.34657E-001	-2.60156E-002	-3.70414E-002	7.08622E-001	-4.39918E-002	-1.38174E-003	1.09316E-004	-1.25196E-002	-1.10137E-002	5.35911E-004	7.63040E-004	-1.45974E-002	9.06216E-004
	116	116	4.99859E-002	-2.03366E-002	0.00000E+000	-1.01654E-003	-2.01053E-001	4.00825E-002	3.46429E+001	11	...........	6.68685E-002	-5.32681E-003	6.07783E-001	5.34601E-001	-2.60258E-002	-3.70533E-002	7.08512E-001	-4.39621E-002	-1.35988E-003	1.08329E-004	-1.23602E-002	-1.08720E-002	5.29277E-004	7.53539E-004	-1.44087E-002	8.94039E-004
	117	117	4.99794E-002	-1.99820E-002	0.00000E+000	-9.98689E-004	-1.97531E-001	4.00667E-002	3.41795E+001	11	...........	6.68687E-002	-5.32597E-003	6.07692E-001	5.34447E-001	-2.60475E-002	-3.70600E-002	7.08660E-001	-4.39843E-002	-1.33617E-003	1.06424E-004	-1.21429E-002	-1.06793E-002	5.20481E-004	7.40533E-004	-1.41604E-002	8.78895E-004
	118	118	4.99927E-002	-1.98028E-002	0.00000E+000	-9.89996E-004	-1.95751E-001	4.01404E-002	3.47105E+001	11	...........	6.69853E-002	-5.46139E-003	6.07546E-001	5.34520E-001	-2.60539E-002	-3.70875E-002	7.08729E-001	-4.39882E-002	-1.32650E-003	1.08151E-004	-1.20311E-002	-1.05850E-002	5.15940E-004	7.34436E-004	-1.40348E-002	8.71090E-004
	119	119	4.99866E-002	-1.95561E-002	0.00000E+000	-9.77541E-004	-1.93288E-001	4.01281E-002	3.47404E+001	11	...........	6.69565E-002	-5.57153E-003	6.07531E-001	5.34283E-001	-2.60525E-002	-3.71212E-002	7.08663E-001	-4.39887E-002	-1.30941E-003	1.08957E-004	-1.18809E-002	-1.04485E-002	5.09485E-004	7.25946E-004	-1.38587E-002	8.60247E-004
	120	120	4.99808E-002	-1.90905E-002	0.00000E+000	-9.54161E-004	-1.88660E-001	3.99651E-002	3.36139E+001	11	...........	6.66847E-002	-5.50514E-003	6.07633E-001	5.34211E-001	-2.60451E-002	-3.71256E-002	7.08525E-001	-4.40537E-002	-1.27305E-003	1.05096E-004	-1.16000E-002	-1.01984E-002	4.97216E-004	7.08747E-004	-1.35261E-002	8.41009E-004
	121	121	4.99932E-002	-1.91695E-002	0.00000E+000	-9.58342E-004	-1.89452E-001	4.02293E-002	3.48884E+001	11	...........	6.71258E-002	-5.54306E-003	6.07650E-001	5.34140E-001	-2.60581E-002	-3.71083E-002	7.08429E-001	-4.40947E-002	-1.28677E-003	1.06257E-004	-1.16483E-002	-1.02392E-002	4.99519E-004	7.11346E-004	-1.35802E-002	8.45272E-004
	122	122	4.99860E-002	-1.89862E-002	0.00000E+000	-9.49046E-004	-1.87625E-001	4.01313E-002	3.51354E+001	11	...........	6.69657E-002	-5.44542E-003	6.07562E-001	5.34105E-001	-2.60750E-002	-3.71047E-002	7.08481E-001	-4.39804E-002	-1.27142E-003	1.03388E-004	-1.15353E-002	-1.01406E-002	4.95065E-004	7.04478E-004	-1.34514E-002	8.35022E-004
	123	123	4.99860E-002	-1.87075E-002	0.00000E+000	-9.35112E-004	-1.84851E-001	4.01405E-002	3.47788E+001	11	...........	6.69850E-002	-5.39917E-003	6.07616E-001	5.34094E-001	-2.60712E-002	-3.71126E-002	7.08610E-001	-4.40736E-002	-1.25312E-003	1.01005E-004	-1.13670E-002	-9.99156E-003	4.87727E-004	6.94284E-004	-1.32563E-002	8.24506E-004
	124	124	4.99856E-002	-1.84767E-002	0.00000E+000	-9.23570E-004	-1.82554E-001	4.02018E-002	3.44710E+001	11	...........	6.71190E-002	-5.40347E-003	6.07747E-001	5.33949E-001	-2.60610E-002	-3.71283E-002	7.08673E-001	-4.40125E-002	-1.24014E-003	9.98383E-005	-1.12292E-002	-9.86561E-003	4.81521E-004	6.86009E-004	-1.30939E-002	8.13206E-004
	125	125	4.99861E-002	-1.80195E-002	0.00000E+000	-9.00724E-004	-1.78013E-001	4.00615E-002	3.37848E+001	11	...........	6.68506E-002	-5.46931E-003	6.07793E-001	5.33870E-001	-2.60515E-002	-3.71389E-002	7.08623E-001	-4.39779E-002	-1.20461E-003	9.85540E-005	-1.09521E-002	-9.62006E-003	4.69435E-004	6.69223E-004	-1.27690E-002	7.92459E-004
	126	126	4.99885E-002	-1.79669E-002	0.00000E+000	-8.98137E-004	-1.77492E-001	4.02258E-002	3.47007E+001	11	...........	6.71310E-002	-5.53625E-003	6.07726E-001	5.33895E-001	-2.60446E-002	-3.71257E-002	7.08502E-001	-4.39788E-002	-1.20613E-003	9.94691E-005	-1.09189E-002	-9.59243E-003	4.67940E-004	6.67033E-004	-1.27296E-002	7.90161E-004
	127	127	4.99818E-002	-1.78300E-002	0.00000E+000	-8.91176E-004	-1.76117E-001	4.02847E-002	3.45128E+001	11	...........	6.72176E-002	-5.37750E-003	6.07537E-001	5.33779E-001	-2.60492E-002	-3.70710E-002	7.08575E-001	-4.40124E-002	-1.19849E-003	9.58808E-005	-1.08324E-002	-9.51728E-003	4.64457E-004	6.60975E-004	-1.26339E-002	7.84740E-004
	128	128	4.99903E-002	-1.75266E-002	0.00000E+000	-8.76161E-004	-1.73107E-001	4.02348E-002	3.49572E+001	11	...........	6.71469E-002	-5.37694E-003	6.07550E-001	5.33864E-001	-2.60567E-002	-3.70687E-002	7.08534E-001	-4.40196E-002	-1.17686E-003	9.42395E-005	-1.06483E-002	-9.35683E-003	4.56685E-004	6.49689E-004	-1.24182E-002	7.71514E-004
	129	129	4.99804E-002	-1.72765E-002	0.00000E+000	-8.63485E-004	-1.70614E-001	4.02521E-002	3.39311E+001	11	...........	6.71701E-002	-5.43389E-003	6.07492E-001	5.33989E-001	-2.60414E-002	-3.70722E-002	7.08597E-001	-4.40181E-002	-1.16046E-003	9.38784E-005	-1.04953E-002	-9.22543E-003	4.49903E-004	6.40477E-004	-1.22420E-002	7.60476E-004
	130	130	4.99927E-002	-1.68762E-002	0.00000E+000	-8.43689E-004	-1.66640E-001	4.01579E-002	3.44473E+001	11	...........	6.70146E-002	-5.43694E-003	6.07418E-001	5.34119E-001	-2.60403E-002	-3.70744E-002	7.08685E-001	-4.40256E-002	-1.13095E-003	9.17551E-005	-1.02509E-002	-9.01391E-003	4.39462E-004	6.25677E-004	-1.19599E-002	7.42986E-004
	131	131	4.99858E-002	-1.69360E-002	0.00000E+000	-8.46559E-004	-1.67226E-001	4.02711E-002	3.45676E+001	11	...........	6.72276E-002	-5.49667E-003	6.07457E-001	5.34320E-001	-2.60449E-002	-3.70833E-002	7.08710E-001	-4.40001E-002	-1.13857E-003	9.30915E-005	-1.02879E-002	-9.04924E-003	4.41095E-004	6.28043E-004	-1.20027E-002	7.45186E-004
	132	132	4.99873E-002	-1.66329E-002	0.00000E+000	-8.31433E-004	-1.64225E-001	4.02420E-002	3.43917E+001	11	...........	6.71605E-002	-5.50097E-003	6.07517E-001	5.34550E-001	-2.60443E-002	-3.70562E-002	7.08784E-001	-4.39364E-002	-1.11707E-003	9.14970E-005	-1.01048E-002	-8.89110E-003	4.33192E-004	6.16352E-004	-1.17891E-002	7.30788E-004
	133	133	4.99873E-002	-1.65225E-002	0.00000E+000	-8.25913E-004	-1.63123E-001	4.03343E-002	3.49639E+001	11	...........	6.73292E-002	-5.49931E-003	6.07542E-001	5.34656E-001	-2.60774E-002	-3.70635E-002	7.08706E-001	-4.39679E-002	-1.11244E-003	9.08620E-005	-1.00381E-002	-8.83383E-003	4.30862E-004	6.12379E-004	-1.17096E-002	7.26458E-004
	134	134	4.99863E-002	-1.62242E-002	0.00000E+000	-8.10986E-004	-1.60152E-001	4.03047E-002	3.41616E+001	11	...........	6.72733E-002	-5.43472E-003	6.07595E-001	5.34744E-001	-2.60864E-002	-3.70896E-002	7.08715E-001	-4.39629E-002	-1.09145E-003	8.81738E-005	-9.85772E-003	-8.67577E-003	4.23230E-004	6.01747E-004	-1.14983E-002	7.13261E-004
	135	135	4.99860E-002	-1.59309E-002	0.00000E+000	-7.96322E-004	-1.57234E-001	4.01332E-002	3.40747E+001	11	...........	6.69646E-002	-5.40389E-003	6.07660E-001	5.34788E-001	-2.60482E-002	-3.70901E-002	7.08655E-001	-4.39265E-002	-1.06681E-003	8.60888E-005	-9.68057E-003	-8.51966E-003	4.14971E-004	5.90879E-004	-1.12895E-002	6.99789E-004
	136	136	4.99889E-002	-1.59424E-002	0.00000E+000	-7.96942E-004	-1.57350E-001	4.03871E-002	3.50192E+001	11	...........	6.73964E-002	-5.36917E-003	6.07781E-001	5.34761E-001	-2.60571E-002	-3.70762E-002	7.08687E-001	-4.39794E-002	-1.07446E-003	8.55972E-005	-9.68946E-003	-8.52535E-003	4.15411E-004	5.91083E-004	-1.12981E-002	7.01136E-004
	137	137	4.99872E-002	-1.57869E-002	0.00000E+000	-7.89143E-004	-1.55801E-001	4.03413E-002	3.51322E+001	11	...........	6.73317E-002	-5.42542E-003	6.07733E-001	5.34787E-001	-2.60331E-002	-3.70894E-002	7.08747E-001	-4.39947E-002	-1.06296E-003	8.56505E-005	-9.59423E-003	-8.44263E-003	4.10981E-004	5.85527E-004	-1.11889E-002	6.94540E-004
	138	138	4.99864E-002	-1.55832E-002	0.00000E+000	-7.78948E-004	-1.53778E-001	4.03280E-002	3.43837E+001	11	...........	6.73075E-002	-5.45861E-003	6.07722E-001	5.34776E-001	-2.60349E-002	-3.70501E-002	7.08664E-001	-4.40149E-002	-1.04887E-003	8.50626E-005	-9.47025E-003	-8.33352E-003	4.05706E-004	5.77360E-004	-1.10433E-002	6.85892E-004
	139	139	4.99855E-002	-1.52915E-002	0.00000E+000	-7.64353E-004	-1.50871E-001	4.03219E-002	3.47950E+001	11	...........	6.72900E-002	-5.41958E-003	6.07543E-001	5.34871E-001	-2.60485E-002	-3.70507E-002	7.08800E-001	-4.39632E-002	-1.02896E-003	8.28735E-005	-9.29024E-003	-8.17897E-003	3.98320E-004	5.66560E-004	-1.08386E-002	6.72262E-004
	140	140	4.99862E-002	-1.50889E-002	0.00000E+000	-7.54236E-004	-1.48853E-001	4.03408E-002	3.39685E+001	11	...........	6.73217E-002	-5.44347E-003	6.07375E-001	5.34787E-001	-2.60540E-002	-3.70306E-002	7.08746E-001	-4.39789E-002	-1.01581E-003	8.21359E-005	-9.16462E-003	-8.06934E-003	3.93126E-004	5.58750E-004	-1.06942E-002	6.63592E-004
	141	141	4.99896E-002	-1.48503E-002	0.00000E+000	-7.42361E-004	-1.46480E-001	4.02734E-002	3.48399E+001	11	...........	6.72228E-002	-5.40833E-003	6.07262E-001	5.34801E-001	-2.60562E-002	-3.70406E-002	7.08798E-001	-4.40085E-002	-9.98279E-004	8.03154E-005	-9.01803E-003	-7.94197E-003	3.86943E-004	5.50064E-004	-1.05259E-002	6.53539E-004
	142	142	4.99883E-002	-1.48949E-002	0.00000E+000	-7.44568E-004	-1.46928E-001	4.03886E-002	3.53042E+001	11	...........	6.73935E-002	-5.42069E-003	6.07291E-001	5.34751E-001	-2.60635E-002	-3.70294E-002	7.08894E-001	-4.39756E-002	-1.00382E-003	8.07405E-005	-9.04550E-003	-7.96503E-003	3.88212E-004	5.51548E-004	-1.05589E-002	6.55010E-004
	143	143	4.99855E-002	-1.47107E-002	0.00000E+000	-7.35322E-004	-1.45104E-001	4.03988E-002	3.49325E+001	11	...........	6.74160E-002	-5.45444E-003	6.07262E-001	5.34746E-001	-2.60650E-002	-3.70101E-002	7.08857E-001	-4.39783E-002	-9.91736E-004	8.02387E-005	-8.93325E-003	-7.86648E-003	3.83434E-004	5.44445E-004	-1.04278E-002	6.46952E-004
	144	144	4.99833E-002	-1.43453E-002	0.00000E+000	-7.17025E-004	-1.41466E-001	4.03113E-002	3.45453E+001	11	...........	6.72792E-002	-5.45611E-003	6.07255E-001	5.34868E-001	-2.60489E-002	-3.69903E-002	7.08838E-001	-4.40118E-002	-9.65139E-004	7.82695E-005	-8.71125E-003	-7.67284E-003	3.73679E-004	5.30636E-004	-1.01685E-002	6.31362E-004
	145	145	4.99895E-002	-1.42180E-002	0.00000E+000	-7.10749E-004	-1.40203E-001	4.03997E-002	3.39889E+001	11	...........	6.74233E-002	-5.51583E-003	6.07656E-001	5.34945E-001	-2.60486E-002	-3.69961E-002	7.08823E-001	-4.40467E-002	-9.58624E-004	7.84240E-005	-8.63964E-003	-7.60583E-003	3.70359E-004	5.26010E-004	-1.00780E-002	6.26255E-004
	146	146	4.99897E-002	-1.39968E-002	0.00000E+000	-6.99695E-004	-1.38004E-001	4.02916E-002	3.48561E+001	11	...........	6.72410E-002	-5.42597E-003	6.07441E-001	5.35040E-001	-2.60600E-002	-3.69857E-002	7.08943E-001	-4.40092E-002	-9.41158E-004	7.59462E-005	-8.50222E-003	-7.48884E-003	3.64756E-004	5.17681E-004	-9.92292E-003	6.15987E-004
	147	147	4.99868E-002	-1.39502E-002	0.00000E+000	-6.97324E-004	-1.37539E-001	4.04431E-002	3.53317E+001	11	...........	6.74860E-002	-5.44486E-003	6.07436E-001	5.35114E-001	-2.60585E-002	-3.69804E-002	7.08884E-001	-4.40278E-002	-9.41441E-004	7.59568E-005	-8.47384E-003	-7.46493E-003	3.63520E-004	5.15883E-004	-9.88906E-003	6.14195E-004
	148	148	4.99882E-002	-1.38140E-002	0.00000E+000	-6.90536E-004	-1.36186E-001	4.04278E-002	3.50193E+001	11	...........	6.74524E-002	-5.39042E-003	6.07305E-001	5.35148E-001	-2.60842E-002	-3.69847E-002	7.08788E-001	-4.40389E-002	-9.31785E-004	7.44630E-005	-8.38930E-003	-7.39252E-003	3.60326E-004	5.10906E-004	-9.79117E-003	6.08352E-004
	149	149	4.99867E-002	-1.35474E-002	0.00000E+000	-6.77190E-004	-1.33532E-001	4.03087E-002	3.46675E+001	11	...........	6.72693E-002	-5.30708E-003	6.07366E-001	5.35237E-001	-2.60928E-002	-3.70322E-002	7.08761E-001	-4.40794E-002	-9.11324E-004	7.18972E-005	-8.22823E-003	-7.25106E-003	3.53489E-004	5.01690E-004	-9.60187E-003	5.97162E-004
	150	150	4.99851E-002	-1.34275E-002	0.00000E+000	-6.71174E-004	-1.32336E-001	4.04960E-002	3.52604E+001	11	...........	6.75929E-002	-5.32347E-003	6.07259E-001	5.35346E-001	-2.61086E-002	-3.70221E-002	7.08741E-001	-4.40136E-002	-9.07603E-004	7.14808E-005	-8.15396E-003	-7.18835E-003	3.50573E-004	4.97113E-004	-9.51661E-003	5.90992E-004
	151	151	4.99885E-002	-1.32529E-002	0.00000E+000	-6.62491E-004	-1.30597E-001	4.03672E-002	3.46231E+001	11	...........	6.73729E-002	-5.35222E-003	6.07120E-001	5.35310E-001	-2.61014E-002	-3.70235E-002	7.08734E-001	-4.40479E-002	-8.92885E-004	7.09324E-005	-8.04608E-003	-7.09440E-003	3.45919E-004	4.90668E-004	-9.39277E-003	5.83762E-004
	152	152	4.99889E-002	-1.31520E-002	0.00000E+000	-6.57457E-004	-1.29594E-001	4.04006E-002	3.46197E+001	11	...........	6.74182E-002	-5.34347E-003	6.07182E-001	5.35312E-001	-2.61006E-002	-3.70578E-002	7.08822E-001	-4.40153E-002	-8.86687E-004	7.02776E-005	-7.98569E-003	-7.04045E-003	3.43276E-004	4.87386E-004	-9.32247E-003	5.78891E-004
	153	153	4.99878E-002	-1.29794E-002	0.00000E+000	-6.48814E-004	-1.27882E-001	4.04292E-002	3.53054E+001	11	...........	6.74561E-002	-5.34069E-003	6.07370E-001	5.35372E-001	-2.60828E-002	-3.70544E-002	7.08775E-001	-4.40183E-002	-8.75543E-004	6.93192E-005	-7.88332E-003	-6.94883E-003	3.38540E-004	4.80946E-004	-9.19951E-003	5.71333E-004
	154	154	4.99874E-002	-1.29085E-002	0.00000E+000	-6.45264E-004	-1.27192E-001	4.04867E-002	3.55268E+001	11	...........	6.75815E-002	-5.39194E-003	6.07407E-001	5.35370E-001	-2.60610E-002	-3.70669E-002	7.08633E-001	-4.40022E-002	-8.72378E-004	6.96020E-005	-7.84073E-003	-6.91084E-003	3.36409E-004	4.78479E-004	-9.14741E-003	5.68004E-004
	155	155	4.99809E-002	-1.26555E-002	0.00000E+000	-6.32535E-004	-1.24664E-001	4.03895E-002	3.40107E+001	11	...........	6.73890E-002	-5.35847E-003	6.07398E-001	5.35403E-001	-2.60436E-002	-3.70581E-002	7.08511E-001	-4.40104E-002	-8.52844E-004	6.78143E-005	-7.68695E-003	-6.77581E-003	3.29596E-004	4.68990E-004	-8.96659E-003	5.56975E-004
	156	156	4.99924E-002	-1.24075E-002	0.00000E+000	-6.20281E-004	-1.22190E-001	4.05132E-002	3.48378E+001	11	...........	6.76026E-002	-5.33972E-003	6.07581E-001	5.35439E-001	-2.60415E-002	-3.70483E-002	7.08621E-001	-4.39679E-002	-8.38780E-004	6.62526E-005	-7.53856E-003	-6.64346E-003	3.23110E-004	4.59677E-004	-8.79222E-003	5.45532E-004
	157	157	4.99865E-002	-1.22742E-002	0.00000E+000	-6.13544E-004	-1.20867E-001	4.03296E-002	3.47374E+001	11	...........	6.73229E-002	-5.36889E-003	6.07775E-001	5.35584E-001	-2.60569E-002	-3.70494E-002	7.08749E-001	-4.40500E-002	-8.26334E-004	6.58987E-005	-7.45994E-003	-6.57386E-003	3.19828E-004	4.54752E-004	-8.69931E-003	5.40678E-004
	158	158	4.99893E-002	-1.22405E-002	0.00000E+000	-6.11894E-004	-1.20531E-001	4.04838E-002	3.53438E+001	11	...........	6.75737E-002	-5.42542E-003	6.07658E-001	5.35431E-001	-2.60565E-002	-3.70521E-002	7.08764E-001	-4.40501E-002	-8.27136E-004	6.64098E-005	-7.43804E-003	-6.55394E-003	3.18945E-004	4.53536E-004	-8.67562E-003	5.39196E-004
	159	159	4.99881E-002	-1.21234E-002	0.00000E+000	-6.06024E-004	-1.19362E-001	4.04556E-002	3.52602E+001	11	...........	6.75082E-002	-5.50097E-003	6.07556E-001	5.35362E-001	-2.60419E-002	-3.70324E-002	7.08595E-001	-4.40164E-002	-8.18426E-004	6.66903E-005	-7.36562E-003	-6.49038E-003	3.15716E-004	4.48957E-004	-8.59055E-003	5.33626E-004
	160	160	4.99874E-002	-1.19611E-002	0.00000E+000	-5.97902E-004	-1.17745E-001	4.04799E-002	3.50690E+001	11	...........	6.75357E-002	-5.50611E-003	6.07632E-001	5.35388E-001	-2.60406E-002	-3.70503E-002	7.08713E-001	-4.40365E-002	-8.07798E-004	6.58589E-005	-7.26792E-003	-6.40381E-003	3.11472E-004	4.43160E-004	-8.47696E-003	5.26723E-004
	161	161	4.99870E-002	-1.16669E-002	0.00000E+000	-5.83196E-004	-1.14834E-001	4.04308E-002	3.46819E+001	11	...........	6.74703E-002	-5.52625E-003	6.07652E-001	5.35379E-001	-2.60404E-002	-3.70442E-002	7.08699E-001	-4.39667E-002	-7.87172E-004	6.44744E-005	-7.08944E-003	-6.24624E-003	3.03812E-004	4.32192E-004	-8.26835E-003	5.12957E-004
	162	162	4.99874E-002	-1.15201E-002	0.00000E+000	-5.75859E-004	-1.13377E-001	4.03323E-002	3.44353E+001	11	...........	6.73069E-002	-5.39181E-003	6.07572E-001	5.35270E-001	-2.60433E-002	-3.70494E-002	7.08655E-001	-4.39656E-002	-7.75382E-004	6.21140E-005	-6.99928E-003	-6.16636E-003	3.00021E-004	4.26813E-004	-8.16376E-003	5.06487E-004
	163	163	4.99881E-002	-1.15479E-002	0.00000E+000	-5.77261E-004	-1.13649E-001	4.05868E-002	3.51879E+001	11	...........	6.77242E-002	-5.37792E-003	6.07387E-001	5.35138E-001	-2.60678E-002	-3.70950E-002	7.08707E-001	-4.39840E-002	-7.82075E-004	6.21039E-005	-7.01408E-003	-6.17975E-003	3.01029E-004	4.28371E-004	-8.18412E-003	5.07925E-004
	164	164	4.99886E-002	-1.14189E-002	0.00000E+000	-5.70815E-004	-1.12367E-001	4.04751E-002	3.55490E+001	11	...........	6.75501E-002	-5.50958E-003	6.07319E-001	5.35049E-001	-2.60732E-002	-3.70612E-002	7.08674E-001	-4.39608E-002	-7.71349E-004	6.29135E-005	-6.93492E-003	-6.10968E-003	2.97728E-004	4.23199E-004	-8.09229E-003	5.01985E-004
	165	165	4.99874E-002	-1.12973E-002	0.00000E+000	-5.64724E-004	-1.11159E-001	4.04922E-002	3.52047E+001	11	...........	6.75722E-002	-5.69639E-003	6.07477E-001	5.35185E-001	-2.60483E-002	-3.70612E-002	7.08576E-001	-4.39504E-002	-7.63386E-004	6.43540E-005	-6.86287E-003	-6.04616E-003	2.94277E-004	4.18693E-004	-8.00502E-003	4.96522E-004
	166	166	4.99858E-002	-1.10741E-002	0.00000E+000	-5.53547E-004	-1.08940E-001	4.04282E-002	3.49117E+001	11	...........	6.74674E-002	-5.51444E-003	6.07556E-001	5.35178E-001	-2.60375E-002	-3.70606E-002	7.08593E-001	-4.38907E-002	-7.47139E-004	6.10674E-005	-6.72813E-003	-5.92660E-003	2.88341E-004	4.10411E-004	-7.84701E-003	4.86049E-004
	167	167	4.99873E-002	-1.09729E-002	0.00000E+000	-5.48505E-004	-1.07928E-001	4.05700E-002	3.44336E+001	11	...........	6.77042E-002	-5.40278E-003	6.07799E-001	5.35104E-001	-2.60386E-002	-3.70481E-002	7.08565E-001	-4.39436E-002	-7.42909E-004	5.92840E-005	-6.66930E-003	-5.87163E-003	2.85718E-004	4.06524E-004	-7.77500E-003	4.82188E-004
	168	168	4.99899E-002	-1.07736E-002	0.00000E+000	-5.38570E-004	-1.05945E-001	4.04046E-002	3.51969E+001	11	...........	6.74312E-002	-5.40667E-003	6.07802E-001	5.35036E-001	-2.60142E-002	-3.70399E-002	7.08552E-001	-4.39907E-002	-7.26476E-004	5.82491E-005	-6.54820E-003	-5.76425E-003	2.80266E-004	3.99052E-004	-7.63364E-003	4.73937E-004
	169	169	4.99875E-002	-1.07961E-002	0.00000E+000	-5.39669E-004	-1.06169E-001	4.05321E-002	3.56316E+001	11	...........	6.76449E-002	-5.38889E-003	6.07844E-001	5.35081E-001	-2.59949E-002	-3.69986E-002	7.08541E-001	-4.39712E-002	-7.30299E-004	5.81788E-005	-6.56232E-003	-5.77677E-003	2.80642E-004	3.99440E-004	-7.64945E-003	4.74717E-004
	170	170	4.99876E-002	-1.06526E-002	0.00000E+000	-5.32500E-004	-1.04738E-001	4.05357E-002	3.53717E+001	11	...........	6.76426E-002	-5.46125E-003	6.07967E-001	5.35033E-001	-2.60086E-002	-3.70294E-002	7.08514E-001	-4.39869E-002	-7.20572E-004	5.81767E-005	-6.47645E-003	-5.69951E-003	2.77060E-004	3.94461E-004	-7.54755E-003	4.68577E-004
	171	171	4.99872E-002	-1.04313E-002	0.00000E+000	-5.21433E-004	-1.02561E-001	4.04519E-002	3.45770E+001	11	...........	6.75271E-002	-5.47181E-003	6.08018E-001	5.35167E-001	-2.60119E-002	-3.70321E-002	7.08543E-001	-4.39754E-002	-7.04396E-004	5.70781E-005	-6.34243E-003	-5.58249E-003	2.71339E-004	3.86293E-004	-7.39103E-003	4.58721E-004
	172	172	4.99880E-002	-1.03208E-002	0.00000E+000	-5.15916E-004	-1.01484E-001	4.05849E-002	3.48619E+001	11	...........	6.77164E-002	-5.40681E-003	6.08028E-001	5.35100E-001	-2.60018E-002	-3.70357E-002	7.08541E-001	-4.39847E-002	-6.98887E-004	5.58025E-005	-6.27534E-003	-5.52266E-003	2.68359E-004	3.82238E-004	-7.31270E-003	4.53957E-004
	173	173	4.99889E-002	-1.02170E-002	0.00000E+000	-5.10734E-004	-1.00446E-001	4.04608E-002	3.54116E+001	11	...........	6.75079E-002	-5.45181E-003	6.08006E-001	5.34878E-001	-2.60072E-002	-3.70443E-002	7.08543E-001	-4.39899E-002	-6.89725E-004	5.57008E-005	-6.21197E-003	-5.46482E-003	2.65715E-004	3.78480E-004	-7.23915E-003	4.49442E-004
	174	174	4.99879E-002	-1.01915E-002	0.00000E+000	-5.09451E-004	-1.00189E-001	4.05507E-002	3.54900E+001	11	...........	6.76764E-002	-5.67444E-003	6.07981E-001	5.34773E-001	-2.60156E-002	-3.70683E-002	7.08452E-001	-4.39907E-002	-6.89723E-004	5.78310E-005	-6.19623E-003	-5.45014E-003	2.65137E-004	3.77781E-004	-7.22018E-003	4.48331E-004
	175	175	4.99878E-002	-1.00160E-002	0.00000E+000	-5.00676E-004	-9.84400E-002	4.04947E-002	3.52257E+001	11	...........	6.75900E-002	-5.53903E-003	6.08002E-001	5.34796E-001	-2.60031E-002	-3.71101E-002	7.08598E-001	-4.40092E-002	-6.76980E-004	5.54788E-005	-6.08973E-003	-5.35650E-003	2.60446E-004	3.71694E-004	-7.09730E-003	4.40795E-004
	176	176	4.99877E-002	-9.95244E-003	0.00000E+000	-4.97499E-004	-9.78087E-002	4.06224E-002	3.57294E+001	11	...........	6.78067E-002	-5.54083E-003	6.08046E-001	5.34830E-001	-2.60108E-002	-3.70811E-002	7.08527E-001	-4.39862E-002	-6.74842E-004	5.51448E-005	-6.05155E-003	-5.32287E-003	2.58871E-004	3.69048E-004	-7.05158E-003	4.37771E-004
	177	177	4.99857E-002	-9.76999E-003	0.00000E+000	-4.88360E-004	-9.59953E-002	4.05273E-002	3.43220E+001	11	...........	6.76290E-002	-5.36597E-003	6.08152E-001	5.34976E-001	-2.60228E-002	-3.70776E-002	7.08460E-001	-4.40192E-002	-6.60735E-004	5.24255E-005	-5.94164E-003	-5.22671E-003	2.54242E-004	3.62248E-004	-6.92164E-003	4.30067E-004
	178	178	4.99902E-002	-9.54075E-003	0.00000E+000	-4.76944E-004	-9.37177E-002	4.04293E-002	3.50203E+001	11	...........	6.74665E-002	-5.34764E-003	6.08267E-001	5.35006E-001	-2.60297E-002	-3.70729E-002	7.08630E-001	-4.40161E-002	-6.43681E-004	5.10205E-005	-5.80332E-003	-5.10436E-003	2.48343E-004	3.53703E-004	-6.76086E-003	4.19947E-004
	179	179	4.99881E-002	-9.60078E-003	0.00000E+000	-4.79924E-004	-9.43150E-002	4.06496E-002	3.56921E+001	11	...........	6.78454E-002	-5.35319E-003	6.08254E-001	5.35030E-001	-2.60297E-002	-3.70551E-002	7.08639E-001	-4.40212E-002	-6.51369E-004	5.13948E-005	-5.83971E-003	-5.13670E-003	2.49906E-004	3.55758E-004	-6.80348E-003	4.22638E-004
	180	180	4.99874E-002	-9.50231E-003	0.00000E+000	-4.74996E-004	-9.33343E-002	4.05857E-002	3.56982E+001	11	...........	6.77421E-002	-5.41597E-003	6.08361E-001	5.35033E-001	-2.60331E-002	-3.70689E-002	7.08513E-001	-4.39474E-002	-6.43706E-004	5.14642E-005	-5.78083E-003	-5.08405E-003	2.47374E-004	3.52240E-004	-6.73251E-003	4.17601E-004
	181	181	4.99881E-002	-9.38182E-003	0.00000E+000	-4.68979E-004	-9.21290E-002	4.05563E-002	3.50574E+001	11	...........	6.76860E-002	-5.39125E-003	6.08467E-001	5.35279E-001	-2.60311E-002	-3.70392E-002	7.08590E-001	-4.40033E-002	-6.35017E-004	5.05797E-005	-5.70852E-003	-5.02189E-003	2.44219E-004	3.47495E-004	-6.64786E-003	4.12831E-004
	182	182	4.99878E-002	-9.23158E-003	0.00000E+000	-4.61466E-004	-9.06367E-002	4.06041E-002	3.52066E+001	11	...........	6.77549E-002	-5.45444E-003	6.08308E-001	5.35328E-001	-2.60372E-002	-3.70389E-002	7.08592E-001	-4.39651E-002	-6.25484E-004	5.03531E-005	-5.61564E-003	-4.94192E-003	2.40365E-004	3.41927E-004	-6.54142E-003	4.05868E-004
	183	183	4.99875E-002	-9.04941E-003	0.00000E+000	-4.52358E-004	-8.88350E-002	4.04554E-002	3.43879E+001	11	...........	6.75125E-002	-5.40028E-003	6.08257E-001	5.35338E-001	-2.60581E-002	-3.70419E-002	7.08663E-001	-4.40056E-002	-6.10948E-004	4.88693E-005	-5.50437E-003	-4.84449E-003	2.35810E-004	3.35208E-004	-6.41298E-003	3.98224E-004
	184	184	4.99900E-002	-9.01908E-003	0.00000E+000	-4.50864E-004	-8.85377E-002	4.06566E-002	3.54884E+001	11	...........	6.78636E-002	-5.37542E-003	6.08170E-001	5.35421E-001	-2.60451E-002	-3.70151E-002	7.08768E-001	-4.39425E-002	-6.12067E-004	4.84813E-005	-5.48514E-003	-4.82901E-003	2.34903E-004	3.33843E-004	-6.39244E-003	3.96321E-004
	185	185	4.99872E-002	-8.96762E-003	0.00000E+000	-4.48266E-004	-8.80197E-002	4.06232E-002	3.59209E+001	11	...........	6.77954E-002	-5.43556E-003	6.08099E-001	5.35579E-001	-2.60340E-002	-3.70056E-002	7.08771E-001	-4.39678E-002	-6.07963E-004	4.87440E-005	-5.45320E-003	-4.80287E-003	2.33463E-004	3.31852E-004	-6.35599E-003	3.94286E-004
	186	186	4.99888E-002	-8.86795E-003	0.00000E+000	-4.43298E-004	-8.70257E-002	4.05922E-002	3.55619E+001	11	...........	6.77476E-002	-5.35542E-003	6.08099E-001	5.35475E-001	-2.60625E-002	-3.70150E-002	7.08798E-001	-4.39340E-002	-6.00783E-004	4.74916E-005	-5.39259E-003	-4.74857E-003	2.31121E-004	3.28247E-004	-6.28559E-003	3.89605E-004
	187	187	4.99867E-002	-8.71870E-003	0.00000E+000	-4.35818E-004	-8.55407E-002	4.05641E-002	3.52043E+001	11	...........	6.76856E-002	-5.32250E-003	6.08103E-001	5.35420E-001	-2.60660E-002	-3.70431E-002	7.08878E-001	-4.38879E-002	-5.90130E-004	4.64053E-005	-5.30187E-003	-4.66817E-003	2.27261E-004	3.22967E-004	-6.18050E-003	3.82645E-004
	188	188	4.99886E-002	-8.61532E-003	0.00000E+000	-4.30667E-004	-8.45200E-002	4.06939E-002	3.52519E+001	11	...........	6.78953E-002	-5.39431E-003	6.08187E-001	5.35368E-001	-2.60725E-002	-3.70507E-002	7.08763E-001	-4.39881E-002	-5.84940E-004	4.64737E-005	-5.23973E-003	-4.61237E-003	2.24623E-004	3.19204E-004	-6.10622E-003	3.78971E-004
	189	189	4.99884E-002	-8.46324E-003	0.00000E+000	-4.23064E-004	-8.30017E-002	4.03768E-002	3.45569E+001	11	...........	6.73779E-002	-5.42125E-003	6.08241E-001	5.35352E-001	-2.60781E-002	-3.70404E-002	7.08656E-001	-4.40275E-002	-5.70235E-004	4.58813E-005	-5.14769E-003	-4.53081E-003	2.20705E-004	3.13482E-004	-5.99753E-003	3.72615E-004
	190	190	4.99888E-002	-8.46671E-003	0.00000E+000	-4.23241E-004	-8.30323E-002	4.07710E-002	3.56820E+001	11	...........	6.80417E-002	-5.44306E-003	6.08298E-001	5.35241E-001	-2.61049E-002	-3.70819E-002	7.08633E-001	-4.40626E-002	-5.76089E-004	4.60848E-005	-5.15029E-003	-4.53173E-003	2.21022E-004	3.13962E-004	-5.99979E-003	3.73066E-004
	191	191	4.99883E-002	-8.40444E-003	0.00000E+000	-4.20124E-004	-8.24103E-002	4.06666E-002	3.56514E+001	11	...........	6.78675E-002	-5.47333E-003	6.08233E-001	5.35211E-001	-2.61143E-002	-3.70642E-002	7.08724E-001	-4.40633E-002	-5.70388E-004	4.60003E-005	-5.11186E-003	-4.49815E-003	2.19476E-004	3.11503E-004	-5.95642E-003	3.70328E-004
	192	192	4.99877E-002	-8.29351E-003	0.00000E+000	-4.14574E-004	-8.13060E-002	4.06590E-002	3.51754E+001	11	...........	6.78603E-002	-5.54431E-003	6.08233E-001	5.35221E-001	-2.61154E-002	-3.70754E-002	7.08680E-001	-4.40947E-002	-5.62800E-004	4.59818E-005	-5.04439E-003	-4.43887E-003	2.16589E-004	3.07485E-004	-5.87745E-003	3.65700E-004
	193	193	4.99880E-002	-8.13583E-003	0.00000E+000	-4.06694E-004	-7.97333E-002	4.06167E-002	3.53922E+001	11	...........	6.77882E-002	-5.54194E-003	6.08262E-001	5.35294E-001	-2.61365E-002	-3.70810E-002	7.08573E-001	-4.40872E-002	-5.51514E-004	4.50883E-005	-4.94872E-003	-4.35507E-003	2.12642E-004	3.01685E-004	-5.76483E-003	3.58686E-004
	194	194	4.99872E-002	-8.05827E-003	0.00000E+000	-4.02811E-004	-7.89643E-002	4.06248E-002	3.47970E+001	11	...........	6.77999E-002	-5.61361E-003	6.08284E-001	5.35239E-001	-2.61428E-002	-3.70581E-002	7.08579E-001	-4.40740E-002	-5.46350E-004	4.52360E-005	-4.90172E-003	-4.31310E-003	2.10666E-004	2.98624E-004	-5.70992E-003	3.55160E-004
	195	195	4.99897E-002	-8.01397E-003	0.00000E+000	-4.00616E-004	-7.85247E-002	4.06782E-002	3.56992E+001	11	...........	6.78735E-002	-5.49764E-003	6.08265E-001	5.35261E-001	-2.61419E-002	-3.70593E-002	7.08689E-001	-4.39917E-002	-5.43936E-004	4.40579E-005	-4.87462E-003	-4.28957E-003	2.09501E-004	2.96992E-004	-5.67942E-003	3.52548E-004
	196	196	4.99886E-002	-7.97634E-003	0.00000E+000	-3.98726E-004	-7.81540E-002	4.06781E-002	3.59035E+001	11	...........	6.78990E-002	-5.49903E-003	6.08407E-001	5.35241E-001	-2.61311E-002	-3.70176E-002	7.08626E-001	-4.39838E-002	-5.41585E-004	4.38621E-005	-4.85286E-003	-4.26926E-003	2.08431E-004	2.95265E-004	-5.65224E-003	3.50829E-004
	197	197	4.99881E-002	-7.83284E-003	0.00000E+000	-3.91549E-004	-7.67270E-002	4.05515E-002	3.43590E+001	11	...........	6.76887E-002	-5.53819E-003	6.08487E-001	5.35167E-001	-2.61347E-002	-3.70032E-002	7.08690E-001	-4.40118E-002	-5.30195E-004	4.33798E-005	-4.76619E-003	-4.19188E-003	2.04709E-004	2.89840E-004	-5.55106E-003	3.44737E-004
	198	198	4.99887E-002	-7.78387E-003	0.00000E+000	-3.89105E-004	-7.62610E-002	4.07993E-002	3.55384E+001	11	...........	6.80835E-002	-5.52542E-003	6.08555E-001	5.35057E-001	-2.61092E-002	-3.70112E-002	7.08620E-001	-4.39926E-002	-5.29953E-004	4.30091E-005	-4.73691E-003	-4.16481E-003	2.03230E-004	2.88091E-004	-5.51580E-003	3.42433E-004
	199	199	4.99877E-002	-7.68615E-003	0.00000E+000	-3.84213E-004	-7.52723E-002	4.06349E-002	3.53086E+001	11	...........	6.78031E-002	-5.60625E-003	6.08644E-001	5.35052E-001	-2.61118E-002	-3.70414E-002	7.08649E-001	-4.40253E-002	-5.21144E-004	4.30905E-005	-4.67813E-003	-4.11249E-003	2.00699E-004	2.84706E-004	-5.44678E-003	3.38385E-004
	200	200	4.99887E-002	-7.57907E-003	0.00000E+000	-3.78868E-004	-7.41967E-002	4.06004E-002	3.54746E+001	11	...........	6.77597E-002	-5.50792E-003	6.08542E-001	5.35082E-001	-2.61106E-002	-3.70299E-002	7.08595E-001	-4.40178E-002	-5.13556E-004	4.17449E-005	-4.61218E-003	-4.05542E-003	1.97894E-004	2.80652E-004	-5.37050E-003	3.33614E-004
	201	201	4.99887E-002	-7.56596E-003	0.00000E+000	-3.78213E-004	-7.40697E-002	4.07039E-002	3.53228E+001	11	...........	6.79339E-002	-5.49847E-003	6.08515E-001	5.34995E-001	-2.60969E-002	-3.70465E-002	7.08615E-001	-4.40512E-002	-5.13985E-004	4.16012E-005	-4.60400E-003	-4.04775E-003	1.97448E-004	2.80292E-004	-5.36135E-003	3.33290E-004
	202	202	4.99887E-002	-7.44988E-003	0.00000E+000	-3.72410E-004	-7.29213E-002	4.06891E-002	3.58537E+001	11	...........	6.79133E-002	-5.40819E-003	6.08457E-001	5.35118E-001	-2.60910E-002	-3.70631E-002	7.08637E-001	-4.40571E-002	-5.05946E-004	4.02904E-005	-4.53293E-003	-3.98656E-003	1.94375E-004	2.76115E-004	-5.27926E-003	3.28220E-004
	203	203	4.99872E-002	-7.38328E-003	0.00000E+000	-3.69070E-004	-7.22527E-002	4.07012E-002	3.58322E+001	11	...........	6.79361E-002	-5.57208E-003	6.08440E-001	5.35171E-001	-2.60622E-002	-3.70572E-002	7.08657E-001	-4.41775E-002	-5.01591E-004	4.11403E-005	-4.49228E-003	-3.95132E-003	1.92425E-004	2.73604E-004	-5.23221E-003	3.26175E-004
	204	204	4.99887E-002	-7.27124E-003	0.00000E+000	-3.63479E-004	-7.11347E-002	4.06629E-002	3.47151E+001	11	...........	6.78792E-002	-5.65500E-003	6.08410E-001	5.35220E-001	-2.60443E-002	-3.70717E-002	7.08745E-001	-4.42439E-002	-4.93565E-004	4.11188E-005	-4.42389E-003	-3.89171E-003	1.89374E-004	2.69557E-004	-5.15345E-003	3.21708E-004
	205	205	4.99893E-002	-7.16914E-003	0.00000E+000	-3.58380E-004	-7.01203E-002	4.05699E-002	3.53928E+001	11	...........	6.77162E-002	-5.46417E-003	6.08584E-001	5.35301E-001	-2.60135E-002	-3.70658E-002	7.08623E-001	-4.41946E-002	-4.85467E-004	3.91734E-005	-4.36303E-003	-3.83765E-003	1.86494E-004	2.65730E-004	-5.08022E-003	3.16837E-004
	206	206	4.99883E-002	-7.17964E-003	0.00000E+000	-3.58898E-004	-7.02277E-002	4.07803E-002	3.59934E+001	11	...........	6.80651E-002	-5.43389E-003	6.08762E-001	5.35400E-001	-2.60182E-002	-3.70440E-002	7.08460E-001	-4.40764E-002	-4.88683E-004	3.90133E-005	-4.37069E-003	-3.84398E-003	1.86801E-004	2.65963E-004	-5.08648E-003	3.16452E-004
	207	207	4.99882E-002	-7.11549E-003	0.00000E+000	-3.55691E-004	-6.95803E-002	4.07495E-002	3.53678E+001	11	...........	6.80040E-002	-5.41361E-003	6.08972E-001	5.35386E-001	-2.60137E-002	-3.70301E-002	7.08503E-001	-4.40635E-002	-4.83882E-004	3.85205E-005	-4.33314E-003	-3.80954E-003	1.85101E-004	2.63488E-004	-5.04135E-003	3.13533E-004
	208	208	4.99879E-002	-6.96389E-003	0.00000E+000	-3.48111E-004	-6.80797E-002	4.06091E-002	3.52268E+001	11	...........	6.77838E-002	-5.35986E-003	6.09022E-001	5.35339E-001	-2.60071E-002	-3.70239E-002	7.08491E-001	-4.40617E-002	-4.72039E-004	3.73255E-005	-4.24117E-003	-3.72804E-003	1.81111E-004	2.57830E-004	-4.93386E-003	3.06841E-004
	209	209	4.99885E-002	-6.92043E-003	0.00000E+000	-3.45942E-004	-6.76437E-002	4.05010E-002	3.50251E+001	11	...........	6.80253E-002	-5.52708E-003	6.09077E-001	5.35383E-001	-2.59851E-002	-3.70547E-002	7.08614E-001	-4.41192E-002	-4.70764E-004	3.82498E-005	-4.21508E-003	-3.70508E-003	1.79828E-004	2.56435E-004	-4.90392E-003	3.05324E-004
	210	210	4.99892E-002	-6.84575E-003	0.00000E+000	-3.42214E-004	-6.69103E-002	4.06468E-002	3.56453E+001	11	...........	6.78438E-002	-5.43625E-003	6.08878E-001	5.35428E-001	-2.60008E-002	-3.70236E-002	7.08572E-001	-4.40122E-002	-4.64441E-004	3.72152E-005	-4.16823E-003	-3.66541E-003	1.77995E-004	2.53454E-004	-4.85071E-003	3.01297E-004
	211	211	4.99888E-002	-6.84064E-003	0.00000E+000	-3.41955E-004	-6.68583E-002	4.07483E-002	3.56797E+001	11	...........	6.80337E-002	-5.37111E-003	6.08868E-001	5.35411E-001	-2.60268E-002	-3.70286E-002	7.08548E-001	-4.39367E-002	-4.65394E-004	3.67418E-005	-4.16505E-003	-3.66256E-003	1.78040E-004	2.53299E-004	-4.84692E-003	3.00555E-004
	212	212	4.99884E-002	-6.76396E-003	0.00000E+000	-3.38119E-004	-6.60887E-002	4.07691E-002	3.59698E+001	11	...........	6.80446E-002	-5.36458E-003	6.08794E-001	5.35406E-001	-2.60135E-002	-3.70286E-002	7.08536E-001	-4.39442E-002	-4.60251E-004	3.62858E-005	-4.11785E-003	-3.62146E-003	1.75954E-004	2.50460E-004	-4.79251E-003	2.97236E-004
	213	213	4.99882E-002	-6.70552E-003	0.00000E+000	-3.35197E-004	-6.55133E-002	4.07530E-002	3.59758E+001	11	...........	6.80262E-002	-5.32861E-003	6.08841E-001	5.35531E-001	-2.60067E-002	-3.70125E-002	7.08439E-001	-4.40756E-002	-4.56152E-004	3.57311E-005	-4.08260E-003	-3.59101E-003	1.74388E-004	2.48188E-004	-4.75045E-003	2.95550E-004
	214	214	4.99884E-002	-6.56118E-003	0.00000E+000	-3.27983E-004	-6.40827E-002	4.06894E-002	3.50886E+001	11	...........	6.78975E-002	-5.36625E-003	6.08908E-001	5.35550E-001	-2.60097E-002	-3.70236E-002	7.08547E-001	-4.40892E-002	-4.45488E-004	3.52090E-005	-3.99516E-003	-3.51384E-003	1.70655E-004	2.42919E-004	-4.64891E-003	2.89277E-004
	215	215	4.99875E-002	-6.46816E-003	0.00000E+000	-3.23327E-004	-6.31717E-002	4.07014E-002	3.45108E+001	11	...........	6.79233E-002	-5.41167E-003	6.08987E-001	5.35652E-001	-2.60185E-002	-3.70617E-002	7.08572E-001	-4.41239E-002	-4.39339E-004	3.50035E-005	-3.93902E-003	-3.46468E-003	1.68292E-004	2.39721E-004	-4.58316E-003	2.85400E-004
	216	216	4.99892E-002	-6.45594E-003	0.00000E+000	-3.22727E-004	-6.30447E-002	4.08002E-002	3.57657E+001	11	...........	6.81056E-002	-5.38181E-003	6.08935E-001	5.35765E-001	-2.60376E-002	-3.70143E-002	7.08492E-001	-4.41253E-002	-4.39685E-004	3.47446E-005	-3.93125E-003	-3.45887E-003	1.68097E-004	2.38962E-004	-4.57398E-003	2.84870E-004
	217	217	4.99892E-002	-6.40556E-003	0.00000E+000	-3.20209E-004	-6.25377E-002	4.07331E-002	3.59997E+001	11	...........	6.79739E-002	-5.46736E-003	6.08930E-001	5.35606E-001	-2.60454E-002	-3.70043E-002	7.08528E-001	-4.41044E-002	-4.35411E-004	3.50215E-005	-3.90054E-003	-3.43086E-003	1.66835E-004	2.37033E-004	-4.53852E-003	2.82514E-004
	218	218	4.99884E-002	-6.36507E-003	0.00000E+000	-3.18180E-004	-6.21380E-002	4.07655E-002	3.59414E+001	11	...........	6.80286E-002	-5.41875E-003	6.08879E-001	5.35612E-001	-2.60339E-002	-3.70394E-002	7.08539E-001	-4.40997E-002	-4.33007E-004	3.44907E-005	-3.87556E-003	-3.40921E-003	1.65708E-004	2.35759E-004	-4.50990E-003	2.80698E-004
	219	219	4.99878E-002	-6.25835E-003	0.00000E+000	-3.12841E-004	-6.10757E-002	4.08082E-002	3.50592E+001	11	...........	6.80900E-002	-5.39778E-003	6.08844E-001	5.35516E-001	-2.60276E-002	-3.70328E-002	7.08511E-001	-4.40219E-002	-4.26131E-004	3.37812E-005	-3.81036E-003	-3.35145E-003	1.62890E-004	2.31764E-004	-4.43411E-003	2.75505E-004
	220	220	4.99893E-002	-6.14528E-003	0.00000E+000	-3.07198E-004	-5.99483E-002	4.06538E-002	3.54355E+001	11	...........	6.78339E-002	-5.50042E-003	6.08821E-001	5.35476E-001	-2.60354E-002	-3.70490E-002	7.08588E-001	-4.40900E-002	-4.16858E-004	3.38016E-005	-3.74137E-003	-3.29065E-003	1.59995E-004	2.27677E-004	-4.35447E-003	2.70945E-004
	221	221	4.99889E-002	-6.17636E-003	0.00000E+000	-3.08749E-004	-6.02580E-002	4.08121E-002	3.56891E+001	11	...........	6.81078E-002	-5.61139E-003	6.08816E-001	5.35395E-001	-2.60242E-002	-3.70454E-002	7.08724E-001	-4.40275E-002	-4.20658E-004	3.46579E-005	-3.76027E-003	-3.30679E-003	1.60734E-004	2.28806E-004	-4.37733E-003	2.71929E-004
	222	222	4.99890E-002	-6.10865E-003	0.00000E+000	-3.05365E-004	-5.95810E-002	4.07688E-002	3.59470E+001	11	...........	6.80424E-002	-5.46347E-003	6.08785E-001	5.35396E-001	-2.60193E-002	-3.70915E-002	7.08721E-001	-4.40043E-002	-4.15647E-004	3.33744E-005	-3.71886E-003	-3.27055E-003	1.58943E-004	2.26579E-004	-4.32933E-003	2.68807E-004
	223	223	4.99871E-002	-6.02957E-003	0.00000E+000	-3.01401E-004	-5.87973E-002	4.07731E-002	3.55917E+001	11	...........	6.80375E-002	-5.44917E-003	6.08808E-001	5.35363E-001	-2.59994E-002	-3.70829E-002	7.08757E-001	-4.40058E-002	-4.10237E-004	3.28562E-005	-3.67085E-003	-3.22801E-003	1.56766E-004	2.23594E-004	-4.27350E-003	2.65336E-004
	224	224	4.99893E-002	-5.96522E-003	0.00000E+000	-2.98197E-004	-5.81500E-002	4.08287E-002	3.59959E+001	11	...........	6.81147E-002	-5.42069E-003	6.08963E-001	5.35357E-001	-2.60086E-002	-3.70581E-002	7.08702E-001	-4.39796E-002	-4.06319E-004	3.23356E-005	-3.63260E-003	-3.19352E-003	1.55147E-004	2.21059E-004	-4.22756E-003	2.62348E-004
	225	225	4.99871E-002	-5.86941E-003	0.00000E+000	-2.93395E-004	-5.71960E-002	4.07108E-002	3.46780E+001	11	...........	6.79303E-002	-5.41639E-003	6.08871E-001	5.35365E-001	-2.60283E-002	-3.70640E-002	7.08779E-001	-4.40671E-002	-3.98711E-004	3.17910E-005	-3.57371E-003	-3.14227E-003	1.52771E-004	2.17544E-004	-4.16011E-003	2.58648E-004
	226	226	4.99907E-002	-5.83704E-003	0.00000E+000	-2.91798E-004	-5.68757E-002	4.08182E-002	3.58211E+001	11	...........	6.81104E-002	-5.54514E-003	6.08932E-001	5.35356E-001	-2.60214E-002	-3.70826E-002	7.08666E-001	-4.41531E-002	-3.97563E-004	3.23672E-005	-3.55436E-003	-3.12489E-003	1.51888E-004	2.16453E-004	-4.13651E-003	2.57723E-004
	227	227	4.99883E-002	-5.81581E-003	0.00000E+000	-2.90722E-004	-5.66640E-002	4.07534E-002	3.62514E+001	11	...........	6.80233E-002	-5.54458E-003	6.08977E-001	5.35431E-001	-2.60514E-002	-3.70643E-002	7.08672E-001	-4.40789E-002	-3.95610E-004	3.22462E-005	-3.54169E-003	-3.11396E-003	1.51510E-004	2.15559E-004	-4.12150E-003	2.56354E-004
	228	228	4.99892E-002	-5.76507E-003	0.00000E+000	-2.88191E-004	-5.61643E-002	4.08120E-002	3.62179E+001	11	...........	6.81171E-002	-5.44278E-003	6.09022E-001	5.35362E-001	-2.60432E-002	-3.70411E-002	7.08758E-001	-4.40015E-002	-3.92700E-004	3.13780E-005	-3.51105E-003	-3.08640E-003	1.50141E-004	2.13545E-004	-4.08604E-003	2.53672E-004
	229	229	4.99878E-002	-5.66869E-003	0.00000E+000	-2.83365E-004	-5.52070E-002	4.06824E-002	3.50014E+001	11	...........	6.78993E-002	-5.46528E-003	6.08890E-001	5.35303E-001	-2.60569E-002	-3.70464E-002	7.08718E-001	-4.40174E-002	-3.84900E-004	3.09809E-005	-3.45161E-003	-3.03447E-003	1.47709E-004	2.10004E-004	-4.01750E-003	2.49521E-004
	230	230	4.99889E-002	-5.65179E-003	0.00000E+000	-2.82527E-004	-5.50317E-002	4.09220E-002	3.57354E+001	11	...........	6.83093E-002	-5.41931E-003	6.08766E-001	5.35001E-001	-2.60571E-002	-3.70586E-002	7.08754E-001	-4.40283E-002	-3.86070E-004	3.06288E-005	-3.44062E-003	-3.02372E-003	1.47269E-004	2.09448E-004	-4.00573E-003	2.48839E-004
	231	231	4.99884E-002	-5.53623E-003	0.00000E+000	-2.76747E-004	-5.38847E-002	4.05799E-002	3.50068E+001	11	...........	6.77236E-002	-5.62639E-003	6.08756E-001	5.34994E-001	-2.60599E-002	-3.70740E-002	7.08725E-001	-4.40226E-002	-3.74934E-004	3.11490E-005	-3.37021E-003	-2.96185E-003	1.44273E-004	2.05250E-004	-3.92366E-003	2.43719E-004
	232	232	4.99897E-002	-5.52273E-003	0.00000E+000	-2.76080E-004	-5.37473E-002	4.08495E-002	3.59492E+001	11	...........	6.81682E-002	-5.54472E-003	6.08802E-001	5.35103E-001	-2.60322E-002	-3.70747E-002	7.08631E-001	-4.40481E-002	-3.76475E-004	3.06220E-005	-3.36225E-003	-2.95523E-003	1.43769E-004	2.04754E-004	-3.91358E-003	2.43266E-004
	233	233	4.99884E-002	-5.50420E-003	0.00000E+000	-2.75146E-004	-5.35617E-002	4.08217E-002	3.59423E+001	11	...........	6.81258E-002	-5.43153E-003	6.08818E-001	5.35146E-001	-2.60574E-002	-3.70831E-002	7.08468E-001	-4.40532E-002	-3.74978E-004	2.98962E-005	-3.35105E-003	-2.94555E-003	1.43425E-004	2.04112E-004	-3.89955E-003	2.42477E-004
	234	234	4.99888E-002	-5.43344E-003	0.00000E+000	-2.71612E-004	-5.28580E-002	4.08154E-002	3.59654E+001	11	...........	6.80974E-002	-5.36875E-003	6.08858E-001	5.35223E-001	-2.60619E-002	-3.70583E-002	7.08481E-001	-4.39728E-002	-3.70003E-004	2.91708E-005	-3.30820E-003	-2.90810E-003	1.41606E-004	2.01354E-004	-3.84949E-003	2.38924E-004
	235	235	4.99875E-002	-5.34452E-003	0.00000E+000	-2.67159E-004	-5.19847E-002	4.07709E-002	3.54514E+001	11	...........	6.80385E-002	-5.42194E-003	6.08783E-001	5.35169E-001	-2.60508E-002	-3.70431E-002	7.08574E-001	-4.39228E-002	-3.63633E-004	2.89777E-005	-3.25365E-003	-2.86022E-003	1.39229E-004	1.97977E-004	-3.78699E-003	2.34746E-004
	236	236	4.99890E-002	-5.29279E-003	0.00000E+000	-2.64582E-004	-5.14580E-002	4.08761E-002	3.51791E+001	11	...........	6.82235E-002	-5.50167E-003	6.08817E-001	5.34970E-001	-2.60471E-002	-3.70617E-002	7.08467E-001	-4.39894E-002	-3.61093E-004	2.91192E-005	-3.22234E-003	-2.83148E-003	1.37862E-004	1.96160E-004	-3.74977E-003	2.32827E-004
	237	237	4.99898E-002	-5.24540E-003	0.00000E+000	-2.62216E-004	-5.10017E-002	4.07142E-002	3.56655E+001	11	...........	6.79619E-002	-5.44125E-003	6.08903E-001	5.35190E-001	-2.60400E-002	-3.70418E-002	7.08447E-001	-4.39996E-002	-3.56487E-004	2.85415E-005	-3.19394E-003	-2.80729E-003	1.36590E-004	1.94299E-004	-3.71609E-003	2.30795E-004
	238	238	4.99882E-002	-5.23799E-003	0.00000E+000	-2.61838E-004	-5.09340E-002	4.08198E-002	3.55788E+001	11	...........	6.81268E-002	-5.34153E-003	6.08838E-001	5.35116E-001	-2.60387E-002	-3.70015E-002	7.08564E-001	-4.39735E-002	-3.56848E-004	2.79789E-005	-3.18909E-003	-2.80293E-003	1.36391E-004	1.93814E-004	-3.71145E-003	2.30333E-004
	239	239	4.99891E-002	-5.17214E-003	0.00000E+000	-2.58550E-004	-5.02757E-002	4.08545E-002	3.59465E+001	11	...........	6.81699E-002	-5.36458E-003	6.08750E-001	5.35153E-001	-2.60474E-002	-3.70101E-002	7.08577E-001	-4.40389E-002	-3.52584E-004	2.77464E-005	-3.14854E-003	-2.76788E-003	1.34721E-004	1.91422E-004	-3.66486E-003	2.27775E-004
	240	240	4.99889E-002	-5.13503E-003	0.00000E+000	-2.56695E-004	-4.99003E-002	4.08739E-002	3.53490E+001	11	...........	6.82096E-002	-5.38125E-003	6.08939E-001	5.35072E-001	-2.60281E-002	-3.70151E-002	7.08549E-001	-4.40443E-002	-3.50259E-004	2.76329E-005	-3.12692E-003	-2.74761E-003	1.33655E-004	1.90074E-004	-3.63842E-003	2.26169E-004
	241	240.27	4.99840E-002	-5.08373E-003	0.00000E+000	-2.54105E-004	-4.93988E-002	4.08407E-002	3.46154E+001	11	...........	6.80813E-002	-5.40175E-003	6.08945E-001	5.34995E-001	-2.60113E-002	-3.70319E-002	7.08557E-001	-4.39856E-002	-3.46107E-004	2.74610E-005	-3.09571E-003	-2.71977E-003	1.32235E-004	1.88260E-004	-3.60211E-003	2.23611E-004
STARTTIMEOFFSET	QUANT	673219.5	Start Time Offset (s)
