EXPLAIN
TAG	PWR800_DISCHARGE
TITLE	LABEL	PWR Discharge	Test Identifier
DATE	LABEL	10/13/2022	Date
TIME	LABEL	9:51:05	Time
NOTES	NOTES	1	Notes...
	
PSTAT	PSTAT	REF3000-21114	Potentiostat
CAPACITY	QUANT	5.30000E-002	Capacity (A-hr)
CELLTYPE	SELECTOR	1	Cell Type
WORKINGCONNECTION	SELECTOR	0	Working Connection
MAXDISCHARGETIME	VARIABLEANDUNITS	7.20000E+003	s	2.00000E+000	hour(s)	Max Discharge Time
DISCHARGEMODE	MULTIPARAM	0	1.00000E-001	Discharge Mode	Constant Current	Amp(s)
VOLTAGEFINISH	TWOPARAM	T	5.00000E-003	7.20000E+003	Voltage Finish	I (A) <	Max Time(s)
SAMPLETIME	QUANT	1.00000E+000	Sample Period (s)
DISCHARGESTOPAT1	MULTIPARAM	1	5.00000E-002	Stop At 1	|Voltage| < Limit	V
DISCHARGESTOPAT2	MULTIPARAM	0	0.00000E+000	Stop At 2	None	N/A
AESELECTOR	AESELECTOR	0x1	T	Set Limits	AE Channels
AESBHCSELECTOR	TOGGLE	F	Save Both Half Cells
IRCOMP	TOGGLE	F	IR Measure
EOC	QUANT	0.5548058	Open Circuit (V)
SEQUENCER	TOGGLE	TRUE	Run as Sequence
PSTATMODEL	IQUANT	5	Pstat Model
PSTATSECTION	LABEL	REF3000-21114	Pstat Section
PSTATSERIALNO	LABEL	21114	Pstat Serial Number
CTRLMODE	IQUANT	0	Control Mode
ELECTROMETER	IQUANT	0	RE=0 or CS=1
IESTAB	IQUANT	0	I/E Stability
CASPEED	IQUANT	4	Control Amp Speed
CONVENTION	IQUANT	1	Current Convention
ICHRANGE	IQUANT	2	Ich Range
ICHRANGEMODE	TOGGLE	T	Ich Auto Range
ICHOFFSETENABLE	TOGGLE	F	Ich Offset Enable
ICHOFFSET	QUANT	0	Ich Offset (V)
ICHFILTER	IQUANT	1	Ich Filter
VCHRANGE	IQUANT	3	Vch Range
VCHRANGEMODE	TOGGLE	T	Vch Auto Range
VCHOFFSETENABLE	TOGGLE	F	Vch Offset Enable
VCHOFFSET	QUANT	0	Vch Offset (V)
VCHFILTER	IQUANT	1	Vch Filter
ACHRANGE	IQUANT	2	Ach Range
ACHOFFSETENABLE	TOGGLE	F	Ach Offset Enable
ACHOFFSET	QUANT	0	Ach Offset (V)
ACHFILTER	IQUANT	1	Ach Filter
IERANGELOWERLIMIT	IQUANT	9	I/E Range Lower Limit
IERANGEMODE	TOGGLE	F	I/E AutoRange
IERANGE	IQUANT	9	I/E Range
POSFEEDENABLE	TOGGLE	F	Positive Feedback IR Comp
POSFEEDRESISTANCE	QUANT	0	Positive Feedback Resistance (ohm)
ACHSELECT	IQUANT	1	Ach Select
SENSECABLEID	IQUANT	13	Sense Cable ID
PWRCABLEID	IQUANT	13	Power Cable ID
DCCALDATE	LABEL		DC Calibration Date
ACCALDATE	LABEL		AC Calibration Date
THERMOSELECT	IQUANT	1	Thermo Select
FRAMEWORKVERSION	LABEL	7.8.6	Framework Version
INSTRUMENTVERSION	LABEL	4.50	Instrument Version
COMPLIANCEVOLTAGE	IQUANT	0	Compliance Voltage
CURVE	TABLE	209
	Pt	T	Vf	Im	Vu	Pwr	Sig	Ach	Temp	IERange	Over	Vf1	Vf2	Vf3	Vf4	Vf5	Vf6	Vf7	Vf8	Pwr1	Pwr2	Pwr3	Pwr4	Pwr5	Pwr6	Pwr7	Pwr8
	#	s	V	A	V	W	V	V	deg C	#	bits	V	V	V	V	V	V	V	V	W	W	W	W	W	W	W	W
	0	1	3.35716E-001	-1.00083E-001	0.00000E+000	-3.35996E-002	-9.94000E-001	3.80854E-002	3.06770E+001	11	...........	6.32665E-002	-5.07181E-003	5.95921E-001	5.62378E-001	-2.78753E-002	-3.87896E-002	6.94769E-001	-4.38629E-002	-6.33192E-003	5.07603E-004	-5.96417E-002	-5.62846E-002	2.78985E-003	3.88219E-003	-6.95348E-002	4.38995E-003
	1	2	2.52326E-001	-1.00084E-001	0.00000E+000	-2.52537E-002	-9.94000E-001	3.80707E-002	2.99592E+001	11	...........	6.32437E-002	-5.00153E-003	5.95902E-001	5.62341E-001	-2.78717E-002	-3.87790E-002	6.94660E-001	-4.38019E-002	-6.32966E-003	5.00570E-004	-5.96400E-002	-5.62811E-002	2.78949E-003	3.88114E-003	-6.95240E-002	4.38385E-003
	2	3	1.86729E-001	-1.00084E-001	0.00000E+000	-1.86886E-002	-9.94000E-001	3.80289E-002	2.92878E+001	11	...........	6.31837E-002	-4.97542E-003	5.95794E-001	5.62345E-001	-2.78558E-002	-3.87746E-002	6.94611E-001	-4.37947E-002	-6.32370E-003	4.97961E-004	-5.96295E-002	-5.62818E-002	2.78793E-003	3.88072E-003	-6.95196E-002	4.38316E-003
	3	4	1.31657E-001	-1.00084E-001	0.00000E+000	-1.31768E-002	-9.94000E-001	3.79912E-002	2.87607E+001	11	...........	6.31265E-002	-5.12528E-003	5.95640E-001	5.62279E-001	-2.78483E-002	-3.87679E-002	6.94551E-001	-4.38562E-002	-6.31798E-003	5.12960E-004	-5.96143E-002	-5.62753E-002	2.78718E-003	3.88006E-003	-6.95136E-002	4.38932E-003
	4	5	8.63142E-002	-1.00084E-001	0.00000E+000	-8.63871E-003	-9.94000E-001	3.79861E-002	2.83458E+001	11	...........	6.31054E-002	-4.99569E-003	5.95626E-001	5.62154E-001	-2.78589E-002	-3.87564E-002	6.94588E-001	-4.38740E-002	-6.31587E-003	4.99991E-004	-5.96129E-002	-5.62628E-002	2.78824E-003	3.87891E-003	-6.95174E-002	4.39111E-003
	5	5.475	5.82647E-002	-1.00085E-001	0.00000E+000	-5.83140E-003	-9.94000E-001	3.79828E-002	2.81211E+001	11	...........	6.31064E-002	-5.03158E-003	5.95581E-001	5.62117E-001	-2.78988E-002	-3.87368E-002	6.94677E-001	-4.39161E-002	-6.31598E-003	5.03583E-004	-5.96085E-002	-5.62592E-002	2.79224E-003	3.87696E-003	-6.95264E-002	4.39532E-003
	6	6	4.97147E-002	-9.32286E-002	0.00000E+000	-4.63483E-003	-9.25825E-001	3.80984E-002	2.83184E+001	11	...........	6.33246E-002	-4.95767E-003	5.95650E-001	5.62162E-001	-2.78357E-002	-3.87915E-002	6.94579E-001	-4.38450E-002	-5.90367E-003	4.62197E-004	-5.55316E-002	-5.24096E-002	2.59509E-003	3.61648E-003	-6.47546E-002	4.08761E-003
	7	7	4.98460E-002	-8.05455E-002	0.00000E+000	-4.01487E-003	-7.99729E-001	3.81908E-002	2.88782E+001	11	...........	6.34622E-002	-5.10444E-003	5.95763E-001	5.62147E-001	-2.78499E-002	-3.87796E-002	6.94545E-001	-4.37062E-002	-5.11160E-003	4.11140E-004	-4.79860E-002	-4.52784E-002	2.24318E-003	3.12352E-003	-5.59425E-002	3.52034E-003
	8	8	4.99142E-002	-7.13147E-002	0.00000E+000	-3.55962E-003	-7.07955E-001	3.82754E-002	2.93374E+001	11	...........	6.35922E-002	-5.11208E-003	5.95730E-001	5.62044E-001	-2.78494E-002	-3.87882E-002	6.94687E-001	-4.37679E-002	-4.53506E-003	3.64567E-004	-4.24843E-002	-4.00820E-002	1.98608E-003	2.76617E-003	-4.95414E-002	3.12130E-003
	9	9	4.99410E-002	-6.57791E-002	0.00000E+000	-3.28507E-003	-6.52918E-001	3.83823E-002	2.96725E+001	11	...........	6.37626E-002	-5.16917E-003	5.95775E-001	5.61994E-001	-2.78567E-002	-3.87851E-002	6.94736E-001	-4.38276E-002	-4.19425E-003	3.40023E-004	-3.91895E-002	-3.69674E-002	1.83239E-003	2.55125E-003	-4.56991E-002	2.88294E-003
	10	10	4.99624E-002	-6.22127E-002	0.00000E+000	-3.10829E-003	-6.17456E-001	3.84579E-002	2.99414E+001	11	...........	6.38904E-002	-5.15306E-003	5.95611E-001	5.61979E-001	-2.78446E-002	-3.87921E-002	6.94737E-001	-4.39372E-002	-3.97479E-003	3.20585E-004	-3.70546E-002	-3.49622E-002	1.73229E-003	2.41336E-003	-4.32214E-002	2.73345E-003
	11	11	4.99699E-002	-5.96609E-002	0.00000E+000	-2.98125E-003	-5.92097E-001	3.85547E-002	3.01373E+001	11	...........	6.40447E-002	-5.12486E-003	5.95752E-001	5.61909E-001	-2.78765E-002	-3.88022E-002	6.94612E-001	-4.39253E-002	-3.82097E-003	3.05754E-004	-3.55431E-002	-3.35240E-002	1.66314E-003	2.31498E-003	-4.14412E-002	2.62062E-003
	12	12	4.99771E-002	-5.76447E-002	0.00000E+000	-2.88091E-003	-5.72044E-001	3.83282E-002	3.02928E+001	11	...........	6.41593E-002	-5.11986E-003	5.95761E-001	5.61908E-001	-2.79061E-002	-3.88092E-002	6.94530E-001	-4.39094E-002	-3.69844E-003	2.95133E-004	-3.43424E-002	-3.23910E-002	1.60864E-003	2.23714E-003	-4.00360E-002	2.53115E-003
	13	13	4.99804E-002	-5.61076E-002	0.00000E+000	-2.80428E-003	-5.56754E-001	3.86905E-002	3.04254E+001	11	...........	6.43024E-002	-5.15028E-003	5.95858E-001	5.61950E-001	-2.79118E-002	-3.87951E-002	6.94641E-001	-4.38074E-002	-3.60785E-003	2.88970E-004	-3.34322E-002	-3.15297E-002	1.56607E-003	2.17670E-003	-3.89747E-002	2.45793E-003
	14	14	4.99830E-002	-5.48089E-002	0.00000E+000	-2.73952E-003	-5.43841E-001	3.87589E-002	3.05144E+001	11	...........	6.44021E-002	-5.10417E-003	5.95821E-001	5.61914E-001	-2.79244E-002	-3.87860E-002	6.94752E-001	-4.39096E-002	-3.52981E-003	2.79754E-004	-3.26563E-002	-3.07979E-002	1.53051E-003	2.12582E-003	-3.80786E-002	2.40664E-003
	15	15	4.99840E-002	-5.37012E-002	0.00000E+000	-2.68420E-003	-5.32826E-001	3.88357E-002	3.05905E+001	11	...........	6.45204E-002	-5.05514E-003	5.95845E-001	5.61848E-001	-2.79161E-002	-3.88112E-002	6.94711E-001	-4.40099E-002	-3.46482E-003	2.71467E-004	-3.19976E-002	-3.01719E-002	1.49913E-003	2.08421E-003	-3.73068E-002	2.36338E-003
	16	16	4.99845E-002	-5.26643E-002	0.00000E+000	-2.63240E-003	-5.22513E-001	3.89032E-002	3.06815E+001	11	...........	6.46367E-002	-5.14944E-003	5.96061E-001	5.61641E-001	-2.79101E-002	-3.87978E-002	6.94596E-001	-4.39392E-002	-3.40405E-003	2.71192E-004	-3.13912E-002	-2.95784E-002	1.46987E-003	2.04326E-003	-3.65804E-002	2.31403E-003
	17	17	4.99814E-002	-5.15656E-002	0.00000E+000	-2.57732E-003	-5.11602E-001	3.89584E-002	3.07826E+001	11	...........	6.47506E-002	-5.11944E-003	5.96086E-001	5.61569E-001	-2.79064E-002	-3.88015E-002	6.94640E-001	-4.38882E-002	-3.33890E-003	2.63987E-004	-3.07375E-002	-2.89576E-002	1.43901E-003	2.00082E-003	-3.58195E-002	2.26312E-003
	18	18	4.99821E-002	-5.04864E-002	0.00000E+000	-2.52342E-003	-5.00888E-001	3.90138E-002	3.03575E+001	11	...........	6.48100E-002	-5.12569E-003	5.96048E-001	5.61515E-001	-2.78897E-002	-3.88010E-002	6.94693E-001	-4.38267E-002	-3.27202E-003	2.58778E-004	-3.00923E-002	-2.83489E-002	1.40805E-003	1.95892E-003	-3.50726E-002	2.21265E-003
	19	19	5.00036E-002	-4.98765E-002	0.00000E+000	-2.49401E-003	-4.94828E-001	3.90615E-002	3.06983E+001	11	...........	6.48889E-002	-5.11625E-003	5.96006E-001	5.61414E-001	-2.79022E-002	-3.87764E-002	6.94706E-001	-4.37965E-002	-3.23643E-003	2.55181E-004	-2.97267E-002	-2.80014E-002	1.39167E-003	1.93403E-003	-3.46495E-002	2.18442E-003
	20	20	4.99891E-002	-4.97574E-002	0.00000E+000	-2.48733E-003	-4.93639E-001	3.90489E-002	3.08892E+001	11	...........	6.50526E-002	-5.08056E-003	5.96139E-001	5.61560E-001	-2.79206E-002	-3.87878E-002	6.94548E-001	-4.39217E-002	-3.23685E-003	2.52795E-004	-2.96623E-002	-2.79417E-002	1.38925E-003	1.92998E-003	-3.45589E-002	2.18543E-003
	21	21	4.99899E-002	-4.92355E-002	0.00000E+000	-2.46128E-003	-4.88440E-001	3.90598E-002	3.09381E+001	11	...........	6.51812E-002	-5.03375E-003	5.96295E-001	5.61550E-001	-2.79399E-002	-3.87943E-002	6.94634E-001	-4.39824E-002	-3.20923E-003	2.47839E-004	-2.93589E-002	-2.76482E-002	1.37563E-003	1.91006E-003	-3.42007E-002	2.16549E-003
	22	22	4.99881E-002	-4.84483E-002	0.00000E+000	-2.42184E-003	-4.80615E-001	3.91202E-002	3.09770E+001	11	...........	6.52582E-002	-5.03375E-003	5.96202E-001	5.61572E-001	-2.79454E-002	-3.88021E-002	6.94685E-001	-4.38568E-002	-3.16165E-003	2.43877E-004	-2.88850E-002	-2.72072E-002	1.35391E-003	1.87990E-003	-3.36563E-002	2.12479E-003
	23	23	4.99948E-002	-4.78817E-002	0.00000E+000	-2.39383E-003	-4.74968E-001	3.91611E-002	3.10815E+001	11	...........	6.53410E-002	-5.19208E-003	5.96175E-001	5.61617E-001	-2.79729E-002	-3.87953E-002	6.94753E-001	-4.38817E-002	-3.12863E-003	2.48606E-004	-2.85459E-002	-2.68912E-002	1.33939E-003	1.85758E-003	-3.32659E-002	2.10113E-003
	24	24	4.99867E-002	-4.72400E-002	0.00000E+000	-2.36137E-003	-4.68596E-001	3.92283E-002	3.11587E+001	11	...........	6.54528E-002	-5.10625E-003	5.96201E-001	5.61489E-001	-2.79944E-002	-3.87896E-002	6.94702E-001	-4.37674E-002	-3.09199E-003	2.41219E-004	-2.81645E-002	-2.65247E-002	1.32246E-003	1.83242E-003	-3.28177E-002	2.06757E-003
	25	25	4.99901E-002	-4.66255E-002	0.00000E+000	-2.33082E-003	-4.62485E-001	3.92621E-002	3.12093E+001	11	...........	6.55003E-002	-5.21736E-003	5.96292E-001	5.61478E-001	-2.80154E-002	-3.87894E-002	6.94706E-001	-4.38507E-002	-3.05398E-003	2.43262E-004	-2.78024E-002	-2.61792E-002	1.30623E-003	1.80858E-003	-3.23910E-002	2.04456E-003
	26	26	4.99935E-002	-4.59975E-002	0.00000E+000	-2.29958E-003	-4.56247E-001	3.93302E-002	3.12597E+001	11	...........	6.56108E-002	-5.23361E-003	5.96283E-001	5.61362E-001	-2.80107E-002	-3.87742E-002	6.94615E-001	-4.39585E-002	-3.01794E-003	2.40733E-004	-2.74275E-002	-2.58212E-002	1.28842E-003	1.78352E-003	-3.19506E-002	2.02198E-003
	27	27	4.99912E-002	-4.55318E-002	0.00000E+000	-2.27619E-003	-4.51604E-001	3.93947E-002	3.13388E+001	11	...........	6.57142E-002	-5.23444E-003	5.96389E-001	5.61478E-001	-2.80061E-002	-3.87869E-002	6.94588E-001	-4.38887E-002	-2.99208E-003	2.38334E-004	-2.71547E-002	-2.55651E-002	1.27517E-003	1.76604E-003	-3.16258E-002	1.99833E-003
	28	28	4.99883E-002	-4.49693E-002	0.00000E+000	-2.24794E-003	-4.46015E-001	3.94243E-002	3.13665E+001	11	...........	6.57707E-002	-5.16264E-003	5.96438E-001	5.61520E-001	-2.80292E-002	-3.88060E-002	6.94713E-001	-4.39357E-002	-2.95766E-003	2.32160E-004	-2.68214E-002	-2.52511E-002	1.26045E-003	1.74508E-003	-3.12408E-002	1.97576E-003
	29	29	4.99947E-002	-4.43548E-002	0.00000E+000	-2.21751E-003	-4.39904E-001	3.94777E-002	3.14030E+001	11	...........	6.58564E-002	-5.08556E-003	5.96420E-001	5.61454E-001	-2.80368E-002	-3.87903E-002	6.94653E-001	-4.38700E-002	-2.92105E-003	2.25569E-004	-2.64541E-002	-2.49032E-002	1.24357E-003	1.72053E-003	-3.08112E-002	1.94584E-003
	30	30	4.99889E-002	-4.39665E-002	0.00000E+000	-2.19784E-003	-4.36050E-001	3.95241E-002	3.14409E+001	11	...........	6.59407E-002	-5.13903E-003	5.96426E-001	5.61571E-001	-2.80393E-002	-3.88132E-002	6.94708E-001	-4.38746E-002	-2.89918E-003	2.25945E-004	-2.62228E-002	-2.46903E-002	1.23279E-003	1.70648E-003	-3.05439E-002	1.92901E-003
	31	31	4.99910E-002	-4.33763E-002	0.00000E+000	-2.16843E-003	-4.30179E-001	3.95628E-002	3.14976E+001	11	...........	6.60001E-002	-5.16667E-003	5.96514E-001	5.61395E-001	-2.80169E-002	-3.88022E-002	6.94833E-001	-4.40553E-002	-2.86284E-003	2.24111E-004	-2.58746E-002	-2.43512E-002	1.21527E-003	1.68310E-003	-3.01393E-002	1.91096E-003
	32	32	4.99899E-002	-4.28232E-002	0.00000E+000	-2.14073E-003	-4.24674E-001	3.96285E-002	3.15106E+001	11	...........	6.60997E-002	-5.19556E-003	5.96627E-001	5.61237E-001	-2.80158E-002	-3.87874E-002	6.94920E-001	-4.40408E-002	-2.83060E-003	2.22490E-004	-2.55495E-002	-2.40340E-002	1.19973E-003	1.66100E-003	-2.97587E-002	1.88597E-003
	33	33	4.99902E-002	-4.22218E-002	0.00000E+000	-2.11068E-003	-4.18701E-001	3.96497E-002	3.15462E+001	11	...........	6.61451E-002	-5.21472E-003	5.96647E-001	5.61445E-001	-2.80083E-002	-3.87868E-002	6.95056E-001	-4.40876E-002	-2.79277E-003	2.20175E-004	-2.51915E-002	-2.37052E-002	1.18256E-003	1.63765E-003	-2.93465E-002	1.86146E-003
	34	34	4.99925E-002	-4.17316E-002	0.00000E+000	-2.08627E-003	-4.13821E-001	3.96967E-002	3.15741E+001	11	...........	6.62171E-002	-5.12208E-003	5.96545E-001	5.61490E-001	-2.80133E-002	-3.87996E-002	6.94940E-001	-4.40818E-002	-2.76334E-003	2.13753E-004	-2.48948E-002	-2.34319E-002	1.16904E-003	1.61917E-003	-2.90009E-002	1.83960E-003
	35	35	4.99919E-002	-4.12803E-002	0.00000E+000	-2.06368E-003	-4.09355E-001	3.97415E-002	3.16350E+001	11	...........	6.62955E-002	-5.18292E-003	5.96457E-001	5.61580E-001	-2.80274E-002	-3.87976E-002	6.94944E-001	-4.39139E-002	-2.73670E-003	2.13953E-004	-2.46219E-002	-2.31822E-002	1.15698E-003	1.60158E-003	-2.86875E-002	1.81278E-003
	36	36	4.99918E-002	-4.07591E-002	0.00000E+000	-2.03762E-003	-4.04178E-001	3.97811E-002	3.17154E+001	11	...........	6.63656E-002	-5.15028E-003	5.96229E-001	5.61597E-001	-2.80169E-002	-3.87925E-002	6.94915E-001	-4.41533E-002	-2.70500E-003	2.09921E-004	-2.43018E-002	-2.28902E-002	1.14195E-003	1.58115E-003	-2.83241E-002	1.79965E-003
	37	37	4.99904E-002	-4.02585E-002	0.00000E+000	-2.01254E-003	-3.99187E-001	3.98248E-002	3.17786E+001	11	...........	6.64397E-002	-5.12000E-003	5.96359E-001	5.61771E-001	-2.79961E-002	-3.87756E-002	6.94955E-001	-4.41360E-002	-2.67476E-003	2.06123E-004	-2.40085E-002	-2.26160E-002	1.12708E-003	1.56104E-003	-2.79778E-002	1.77685E-003
	38	38	4.99906E-002	-3.97000E-002	0.00000E+000	-1.98462E-003	-3.93646E-001	3.98523E-002	3.18459E+001	11	...........	6.64989E-002	-5.21208E-003	5.96297E-001	5.61737E-001	-2.79869E-002	-3.87593E-002	6.94862E-001	-4.40736E-002	-2.64000E-003	2.06920E-004	-2.36730E-002	-2.23010E-002	1.11108E-003	1.53874E-003	-2.75860E-002	1.74972E-003
	39	39	4.99935E-002	-3.92929E-002	0.00000E+000	-1.96439E-003	-3.89596E-001	3.98962E-002	3.18662E+001	11	...........	6.65640E-002	-5.11125E-003	5.96293E-001	5.61698E-001	-2.79808E-002	-3.87668E-002	6.94858E-001	-4.40214E-002	-2.61549E-003	2.00836E-004	-2.34301E-002	-2.20707E-002	1.09945E-003	1.52326E-003	-2.73030E-002	1.72973E-003
	40	40	4.99916E-002	-3.88304E-002	0.00000E+000	-1.94119E-003	-3.84999E-001	3.99345E-002	3.16180E+001	11	...........	6.66243E-002	-5.11250E-003	5.96305E-001	5.61715E-001	-2.79896E-002	-3.87606E-002	6.94839E-001	-4.40093E-002	-2.58705E-003	1.98520E-004	-2.31548E-002	-2.18116E-002	1.08685E-003	1.50509E-003	-2.69809E-002	1.70890E-003
	41	41	4.99798E-002	-3.78337E-002	0.00000E+000	-1.89092E-003	-3.75088E-001	3.99252E-002	3.14130E+001	11	...........	6.66012E-002	-5.07097E-003	5.96330E-001	5.61497E-001	-2.79917E-002	-3.87701E-002	6.94807E-001	-4.39818E-002	-2.51977E-003	1.91853E-004	-2.25614E-002	-2.12435E-002	1.05903E-003	1.46682E-003	-2.62871E-002	1.66399E-003
	42	42	5.00001E-002	-3.73056E-002	0.00000E+000	-1.86528E-003	-3.69839E-001	4.00124E-002	3.18237E+001	11	...........	6.67654E-002	-5.08056E-003	5.96286E-001	5.61440E-001	-2.79683E-002	-3.87575E-002	6.94819E-001	-4.40289E-002	-2.49072E-003	1.89533E-004	-2.22448E-002	-2.09448E-002	1.04337E-003	1.44587E-003	-2.59206E-002	1.64252E-003
	43	43	4.99961E-002	-3.73855E-002	0.00000E+000	-1.86913E-003	-3.70621E-001	4.00256E-002	3.19610E+001	11	...........	6.67754E-002	-5.12556E-003	5.96287E-001	5.61381E-001	-2.79774E-002	-3.87503E-002	6.94784E-001	-4.38515E-002	-2.49643E-003	1.91621E-004	-2.22925E-002	-2.09875E-002	1.04595E-003	1.44870E-003	-2.59748E-002	1.63941E-003
	44	44	4.99943E-002	-3.70575E-002	0.00000E+000	-1.85266E-003	-3.67370E-001	4.00539E-002	3.19893E+001	11	...........	6.68053E-002	-5.10583E-003	5.96409E-001	5.61369E-001	-2.79949E-002	-3.87693E-002	6.94821E-001	-4.37433E-002	-2.47564E-003	1.89209E-004	-2.21014E-002	-2.08029E-002	1.03742E-003	1.43669E-003	-2.57483E-002	1.62102E-003
	45	45	4.99916E-002	-3.67039E-002	0.00000E+000	-1.83489E-003	-3.63848E-001	4.00947E-002	3.20383E+001	11	...........	6.68779E-002	-5.08944E-003	5.96397E-001	5.61280E-001	-2.80194E-002	-3.87669E-002	6.94593E-001	-4.37892E-002	-2.45468E-003	1.86802E-004	-2.18901E-002	-2.06012E-002	1.02842E-003	1.42290E-003	-2.54943E-002	1.60723E-003
	46	46	4.99917E-002	-3.62297E-002	0.00000E+000	-1.81118E-003	-3.59130E-001	4.01351E-002	3.21002E+001	11	...........	6.69532E-002	-5.12667E-003	5.96372E-001	5.61279E-001	-2.80178E-002	-3.87671E-002	6.94638E-001	-4.38817E-002	-2.42569E-003	1.85737E-004	-2.16064E-002	-2.03350E-002	1.01507E-003	1.40452E-003	-2.51665E-002	1.58982E-003
	47	47	4.99935E-002	-3.58209E-002	0.00000E+000	-1.79081E-003	-3.55067E-001	4.01605E-002	3.21337E+001	11	...........	6.69946E-002	-4.99375E-003	5.96390E-001	5.61427E-001	-2.80365E-002	-3.87531E-002	6.94731E-001	-4.38915E-002	-2.39981E-003	1.78881E-004	-2.13632E-002	-2.01108E-002	1.00429E-003	1.38817E-003	-2.48859E-002	1.57224E-003
	48	48	4.99923E-002	-3.54976E-002	0.00000E+000	-1.77461E-003	-3.51849E-001	4.01895E-002	3.22214E+001	11	...........	6.70403E-002	-5.03819E-003	5.96368E-001	5.61482E-001	-2.80486E-002	-3.87671E-002	6.94724E-001	-4.38811E-002	-2.37977E-003	1.78844E-004	-2.11697E-002	-1.99313E-002	9.95660E-004	1.37614E-003	-2.46610E-002	1.55768E-003
	49	49	4.99936E-002	-3.51162E-002	0.00000E+000	-1.75559E-003	-3.48047E-001	4.02318E-002	3.22896E+001	11	...........	6.71150E-002	-4.99444E-003	5.96202E-001	5.61434E-001	-2.80540E-002	-3.87944E-002	6.94728E-001	-4.39612E-002	-2.35683E-003	1.75386E-004	-2.09364E-002	-1.97154E-002	9.85152E-004	1.36232E-003	-2.43962E-002	1.54375E-003
	50	50	4.99923E-002	-3.47547E-002	0.00000E+000	-1.73747E-003	-3.44458E-001	4.02568E-002	3.23460E+001	11	...........	6.71676E-002	-5.02292E-003	5.96187E-001	5.61387E-001	-2.80586E-002	-3.88014E-002	6.94760E-001	-4.39074E-002	-2.33439E-003	1.74570E-004	-2.07203E-002	-1.95108E-002	9.75168E-004	1.34853E-003	-2.41462E-002	1.52599E-003
	51	51	4.99925E-002	-3.42134E-002	0.00000E+000	-1.71041E-003	-3.39078E-001	4.02864E-002	3.23600E+001	11	...........	6.72181E-002	-5.07681E-003	5.96305E-001	5.61422E-001	-2.80596E-002	-3.88131E-002	6.94670E-001	-4.38826E-002	-2.29976E-003	1.73695E-004	-2.04016E-002	-1.92081E-002	9.60013E-004	1.32793E-003	-2.37670E-002	1.50137E-003
	52	52	4.99895E-002	-3.37070E-002	0.00000E+000	-1.68500E-003	-3.34045E-001	4.03278E-002	3.24087E+001	11	...........	6.72822E-002	-5.15611E-003	5.96212E-001	5.61424E-001	-2.80401E-002	-3.88008E-002	6.94656E-001	-4.39093E-002	-2.26788E-003	1.73797E-004	-2.00965E-002	-1.89239E-002	9.45149E-004	1.30786E-003	-2.34148E-002	1.48005E-003
	53	53	4.99931E-002	-3.33428E-002	0.00000E+000	-1.66691E-003	-3.30428E-001	4.03558E-002	3.24558E+001	11	...........	6.73321E-002	-5.12639E-003	5.96224E-001	5.61476E-001	-2.80471E-002	-3.88081E-002	6.94732E-001	-4.39326E-002	-2.24504E-003	1.70928E-004	-1.98798E-002	-1.87212E-002	9.35169E-004	1.29397E-003	-2.31643E-002	1.46484E-003
	54	54	4.99914E-002	-3.27480E-002	0.00000E+000	-1.63712E-003	-3.24503E-001	4.03756E-002	3.24994E+001	11	...........	6.73674E-002	-5.12722E-003	5.96279E-001	5.61509E-001	-2.80479E-002	-3.88226E-002	6.94643E-001	-4.39029E-002	-2.20615E-003	1.67906E-004	-1.95269E-002	-1.83883E-002	9.18513E-004	1.27136E-003	-2.27482E-002	1.43773E-003
	55	55	4.99941E-002	-3.24554E-002	0.00000E+000	-1.62258E-003	-3.21587E-001	4.04162E-002	3.25520E+001	11	...........	6.74096E-002	-5.26347E-003	5.96176E-001	5.61367E-001	-2.80511E-002	-3.88362E-002	6.94761E-001	-4.39531E-002	-2.18781E-003	1.70828E-004	-1.93491E-002	-1.82194E-002	9.10410E-004	1.26045E-003	-2.25488E-002	1.42651E-003
	56	56	4.99914E-002	-3.20628E-002	0.00000E+000	-1.60286E-003	-3.17689E-001	4.04461E-002	3.26102E+001	11	...........	6.74707E-002	-5.25000E-003	5.96035E-001	5.61336E-001	-2.80478E-002	-3.88475E-002	6.94699E-001	-4.38587E-002	-2.16330E-003	1.68330E-004	-1.91105E-002	-1.79980E-002	8.99290E-004	1.24556E-003	-2.22740E-002	1.40623E-003
	57	57	4.99956E-002	-3.17356E-002	0.00000E+000	-1.58664E-003	-3.14435E-001	4.04628E-002	3.26476E+001	11	...........	6.74882E-002	-5.18569E-003	5.95916E-001	5.61349E-001	-2.80343E-002	-3.88442E-002	6.94621E-001	-4.39631E-002	-2.14178E-003	1.64571E-004	-1.89117E-002	-1.78147E-002	8.89685E-004	1.23274E-003	-2.20442E-002	1.39519E-003
	58	58	4.99921E-002	-3.14118E-002	0.00000E+000	-1.57034E-003	-3.11213E-001	4.05017E-002	3.26812E+001	11	...........	6.75589E-002	-5.14958E-003	5.95899E-001	5.61181E-001	-2.80274E-002	-3.88562E-002	6.94746E-001	-4.40274E-002	-2.12214E-003	1.61758E-004	-1.87183E-002	-1.76277E-002	8.80389E-004	1.22054E-003	-2.18232E-002	1.38298E-003
	59	59	4.99936E-002	-3.10216E-002	0.00000E+000	-1.55088E-003	-3.07354E-001	4.05220E-002	3.27209E+001	11	...........	6.76053E-002	-5.09264E-003	5.95800E-001	5.61216E-001	-2.80307E-002	-3.88746E-002	6.94703E-001	-4.38306E-002	-2.09722E-003	1.57982E-004	-1.84827E-002	-1.74098E-002	8.69557E-004	1.20595E-003	-2.15508E-002	1.35969E-003
	60	60	4.99920E-002	-3.06168E-002	0.00000E+000	-1.53059E-003	-3.03346E-001	4.05420E-002	3.27378E+001	11	...........	6.76450E-002	-5.09597E-003	5.95969E-001	5.61210E-001	-2.80285E-002	-3.88625E-002	6.94596E-001	-4.37717E-002	-2.07107E-003	1.56022E-004	-1.82466E-002	-1.71824E-002	8.58141E-004	1.18984E-003	-2.12663E-002	1.34015E-003
	61	61	4.99935E-002	-3.02438E-002	0.00000E+000	-1.51199E-003	-2.99628E-001	4.05852E-002	3.27747E+001	11	...........	6.77039E-002	-5.13625E-003	5.96053E-001	5.61085E-001	-2.80604E-002	-3.88703E-002	6.94708E-001	-4.37751E-002	-2.04762E-003	1.55340E-004	-1.80269E-002	-1.69693E-002	8.48653E-004	1.17558E-003	-2.10106E-002	1.32393E-003
	62	62	4.99913E-002	-2.98171E-002	0.00000E+000	-1.49059E-003	-2.95378E-001	4.06101E-002	3.28255E+001	11	...........	6.77424E-002	-5.21653E-003	5.96105E-001	5.61217E-001	-2.80389E-002	-3.88751E-002	6.94580E-001	-4.37925E-002	-2.01988E-003	1.55542E-004	-1.77741E-002	-1.67339E-002	8.36038E-004	1.15914E-003	-2.07104E-002	1.30577E-003
	63	63	4.99930E-002	-2.93910E-002	0.00000E+000	-1.46935E-003	-2.91156E-001	4.06545E-002	3.28469E+001	11	...........	6.78049E-002	-5.29125E-003	5.96070E-001	5.61437E-001	-2.80453E-002	-3.88949E-002	6.94663E-001	-4.38406E-002	-1.99285E-003	1.55515E-004	-1.75191E-002	-1.65012E-002	8.24279E-004	1.14316E-003	-2.04168E-002	1.28852E-003
	64	64	4.99926E-002	-2.89762E-002	0.00000E+000	-1.44860E-003	-2.87024E-001	4.06617E-002	3.28602E+001	11	...........	6.78478E-002	-5.16528E-003	5.95921E-001	5.61399E-001	-2.80512E-002	-3.88907E-002	6.94660E-001	-4.40215E-002	-1.96597E-003	1.49670E-004	-1.72675E-002	-1.62672E-002	8.12819E-004	1.12690E-003	-2.01286E-002	1.27558E-003
	65	65	4.99955E-002	-2.87188E-002	0.00000E+000	-1.43581E-003	-2.84464E-001	4.06912E-002	3.28701E+001	11	...........	6.79024E-002	-5.17458E-003	5.95836E-001	5.61256E-001	-2.80296E-002	-3.88821E-002	6.94695E-001	-4.38929E-002	-1.95008E-003	1.48608E-004	-1.71117E-002	-1.61186E-002	8.04977E-004	1.11665E-003	-1.99508E-002	1.26055E-003
	66	66	4.99915E-002	-2.83160E-002	0.00000E+000	-1.41556E-003	-2.80465E-001	4.07242E-002	3.29102E+001	11	...........	6.79381E-002	-5.23792E-003	5.95767E-001	5.61348E-001	-2.80287E-002	-3.88704E-002	6.94546E-001	-4.39611E-002	-1.92373E-003	1.48317E-004	-1.68697E-002	-1.58951E-002	7.93662E-004	1.10065E-003	-1.96667E-002	1.24480E-003
	67	67	4.99929E-002	-2.79603E-002	0.00000E+000	-1.39782E-003	-2.76925E-001	4.07476E-002	3.29542E+001	11	...........	6.79840E-002	-5.24611E-003	5.95588E-001	5.61380E-001	-2.80299E-002	-3.88529E-002	6.94502E-001	-4.39035E-002	-1.90086E-003	1.46683E-004	-1.66528E-002	-1.56964E-002	7.83724E-004	1.08634E-003	-1.94185E-002	1.22756E-003
	68	68	4.99930E-002	-2.75860E-002	0.00000E+000	-1.37911E-003	-2.73197E-001	4.07753E-002	3.29987E+001	11	...........	6.80197E-002	-5.13042E-003	5.95433E-001	5.61401E-001	-2.80437E-002	-3.88676E-002	6.94663E-001	-4.38869E-002	-1.87639E-003	1.41528E-004	-1.64256E-002	-1.54868E-002	7.73615E-004	1.07220E-003	-1.91630E-002	1.21067E-003
	69	69	4.99933E-002	-2.72078E-002	0.00000E+000	-1.36020E-003	-2.69429E-001	4.08013E-002	3.30397E+001	11	...........	6.80731E-002	-5.11444E-003	5.95371E-001	5.61528E-001	-2.80550E-002	-3.88869E-002	6.94561E-001	-4.38911E-002	-1.85212E-003	1.39153E-004	-1.61987E-002	-1.52779E-002	7.63314E-004	1.05803E-003	-1.88975E-002	1.19418E-003
	70	70	4.99921E-002	-2.68307E-002	0.00000E+000	-1.34132E-003	-2.65687E-001	4.08197E-002	3.30773E+001	11	...........	6.81083E-002	-5.13083E-003	5.95335E-001	5.61576E-001	-2.80469E-002	-3.88715E-002	6.94545E-001	-4.38925E-002	-1.82739E-003	1.37664E-004	-1.59732E-002	-1.50675E-002	7.52518E-004	1.04295E-003	-1.86351E-002	1.17766E-003
	71	71	4.99943E-002	-2.64512E-002	0.00000E+000	-1.32241E-003	-2.61907E-001	4.08527E-002	3.30862E+001	11	...........	6.81522E-002	-5.17542E-003	5.95377E-001	5.61664E-001	-2.80285E-002	-3.88410E-002	6.94649E-001	-4.39097E-002	-1.80271E-003	1.36896E-004	-1.57485E-002	-1.48567E-002	7.41388E-004	1.02739E-003	-1.83743E-002	1.16147E-003
	72	72	4.99943E-002	-2.61909E-002	0.00000E+000	-1.30940E-003	-2.59318E-001	4.08667E-002	3.31304E+001	11	...........	6.81800E-002	-5.20444E-003	5.95349E-001	5.61604E-001	-2.80028E-002	-3.88410E-002	6.94644E-001	-4.39611E-002	-1.78570E-003	1.36309E-004	-1.55927E-002	-1.47089E-002	7.33418E-004	1.01728E-003	-1.81934E-002	1.15138E-003
	73	73	4.99918E-002	-2.58614E-002	0.00000E+000	-1.29286E-003	-2.56047E-001	4.09014E-002	3.31680E+001	11	...........	6.82308E-002	-5.13583E-003	5.95304E-001	5.61491E-001	-2.79693E-002	-3.88289E-002	6.94635E-001	-4.39044E-002	-1.76455E-003	1.32820E-004	-1.53954E-002	-1.45210E-002	7.23327E-004	1.00417E-003	-1.79643E-002	1.13543E-003
	74	74	4.99964E-002	-2.55782E-002	0.00000E+000	-1.27882E-003	-2.53234E-001	4.09088E-002	3.31776E+001	11	...........	6.82442E-002	-5.10569E-003	5.95343E-001	5.61615E-001	-2.79596E-002	-3.88314E-002	6.94592E-001	-4.39343E-002	-1.74556E-003	1.30594E-004	-1.52278E-002	-1.43651E-002	7.15155E-004	9.93237E-004	-1.77664E-002	1.12376E-003
	75	75	4.99942E-002	-2.54173E-002	0.00000E+000	-1.27072E-003	-2.51631E-001	4.09505E-002	3.32111E+001	11	...........	6.83107E-002	-5.08806E-003	5.95441E-001	5.61665E-001	-2.79649E-002	-3.88379E-002	6.94641E-001	-4.39364E-002	-1.73628E-003	1.29325E-004	-1.51345E-002	-1.42760E-002	7.10792E-004	9.87156E-004	-1.76559E-002	1.11675E-003
	76	76	4.99933E-002	-2.50919E-002	0.00000E+000	-1.25443E-003	-2.48392E-001	4.09587E-002	3.32519E+001	11	...........	6.83371E-002	-5.10236E-003	5.95466E-001	5.61616E-001	-2.79767E-002	-3.88387E-002	6.94617E-001	-4.38886E-002	-1.71471E-003	1.28028E-004	-1.49414E-002	-1.40920E-002	7.01988E-004	9.74538E-004	-1.74293E-002	1.10125E-003
	77	77	4.99882E-002	-2.47118E-002	0.00000E+000	-1.23530E-003	-2.44603E-001	4.09942E-002	3.32760E+001	11	...........	6.84039E-002	-5.12917E-003	5.95473E-001	5.61621E-001	-2.79769E-002	-3.88419E-002	6.94544E-001	-4.39472E-002	-1.69038E-003	1.26751E-004	-1.47152E-002	-1.38787E-002	6.91361E-004	9.59855E-004	-1.71634E-002	1.08602E-003
	78	78	4.99963E-002	-2.42019E-002	0.00000E+000	-1.21001E-003	-2.39548E-001	4.10169E-002	3.23973E+001	11	...........	6.84224E-002	-5.16778E-003	5.95366E-001	5.61556E-001	-2.79617E-002	-3.88389E-002	6.94748E-001	-4.38569E-002	-1.65595E-003	1.25070E-004	-1.44090E-002	-1.35907E-002	6.76726E-004	9.39976E-004	-1.68142E-002	1.06142E-003
	79	79	4.99961E-002	-2.36611E-002	0.00000E+000	-1.18296E-003	-2.34161E-001	4.09308E-002	3.29449E+001	11	...........	6.82835E-002	-5.09681E-003	5.95437E-001	5.61550E-001	-2.79814E-002	-3.88242E-002	6.94685E-001	-4.38600E-002	-1.61566E-003	1.20596E-004	-1.40887E-002	-1.32869E-002	6.62070E-004	9.18622E-004	-1.64370E-002	1.03777E-003
	80	80	4.99945E-002	-2.38409E-002	0.00000E+000	-1.19191E-003	-2.35953E-001	4.10539E-002	3.32797E+001	11	...........	6.85021E-002	-5.11347E-003	5.95527E-001	5.61546E-001	-2.79664E-002	-3.88237E-002	6.94739E-001	-4.38883E-002	-1.63315E-003	1.21910E-004	-1.41979E-002	-1.33878E-002	6.66744E-004	9.25594E-004	-1.65632E-002	1.04634E-003
	81	81	4.99845E-002	-2.33785E-002	0.00000E+000	-1.16856E-003	-2.31352E-001	4.10313E-002	3.24300E+001	11	...........	6.84554E-002	-5.10306E-003	5.95674E-001	5.61528E-001	-2.79700E-002	-3.88271E-002	6.94828E-001	-4.37458E-002	-1.60039E-003	1.19302E-004	-1.39260E-002	-1.31277E-002	6.53898E-004	9.07721E-004	-1.62441E-002	1.02271E-003
	82	82	5.00026E-002	-2.28732E-002	0.00000E+000	-1.14372E-003	-2.26335E-001	4.10718E-002	3.31836E+001	11	...........	6.85150E-002	-5.04306E-003	5.95712E-001	5.61489E-001	-2.79754E-002	-3.88203E-002	6.94714E-001	-4.37782E-002	-1.56716E-003	1.15351E-004	-1.36258E-002	-1.28430E-002	6.39886E-004	8.87943E-004	-1.58903E-002	1.00135E-003
	83	83	4.99951E-002	-2.29268E-002	0.00000E+000	-1.14623E-003	-2.26867E-001	4.11194E-002	3.33788E+001	11	...........	6.85968E-002	-5.17319E-003	5.95671E-001	5.61459E-001	-2.79783E-002	-3.87912E-002	6.94478E-001	-4.38599E-002	-1.57271E-003	1.18605E-004	-1.36568E-002	-1.28725E-002	6.41454E-004	8.89359E-004	-1.59222E-002	1.00557E-003
	84	84	4.99945E-002	-2.26873E-002	0.00000E+000	-1.13424E-003	-2.24483E-001	4.11217E-002	3.34120E+001	11	...........	6.86068E-002	-5.12569E-003	5.95638E-001	5.61521E-001	-2.80104E-002	-3.87968E-002	6.94356E-001	-4.38997E-002	-1.55650E-003	1.16288E-004	-1.35134E-002	-1.27394E-002	6.35480E-004	8.80194E-004	-1.57530E-002	9.95965E-004
	85	85	4.99940E-002	-2.24413E-002	0.00000E+000	-1.12193E-003	-2.22036E-001	4.11653E-002	3.34265E+001	11	...........	6.86904E-002	-5.18042E-003	5.95671E-001	5.61504E-001	-2.80303E-002	-3.88085E-002	6.94387E-001	-4.38836E-002	-1.54150E-003	1.16255E-004	-1.33677E-002	-1.26009E-002	6.29037E-004	8.70914E-004	-1.55830E-002	9.84807E-004
	86	86	4.99936E-002	-2.21224E-002	0.00000E+000	-1.10598E-003	-2.18853E-001	4.11613E-002	3.34750E+001	11	...........	6.86765E-002	-5.25889E-003	5.95718E-001	5.61542E-001	-2.80443E-002	-3.88121E-002	6.94360E-001	-4.39447E-002	-1.51929E-003	1.16339E-004	-1.31787E-002	-1.24226E-002	6.20406E-004	8.58615E-004	-1.53609E-002	9.72161E-004
	87	87	4.99946E-002	-2.18403E-002	0.00000E+000	-1.09190E-003	-2.16065E-001	4.12002E-002	3.35160E+001	11	...........	6.87364E-002	-5.21389E-003	5.95707E-001	5.61504E-001	-2.80487E-002	-3.88061E-002	6.94421E-001	-4.39631E-002	-1.50122E-003	1.13873E-004	-1.30104E-002	-1.22634E-002	6.12593E-004	8.47537E-004	-1.51664E-002	9.60167E-004
	88	88	4.99920E-002	-2.15231E-002	0.00000E+000	-1.07598E-003	-2.12906E-001	4.12107E-002	3.35613E+001	11	...........	6.87389E-002	-5.14000E-003	5.95829E-001	5.61534E-001	-2.80143E-002	-3.88165E-002	6.94441E-001	-4.39118E-002	-1.47948E-003	1.10629E-004	-1.28241E-002	-1.20860E-002	6.02955E-004	8.35453E-004	-1.49465E-002	9.45119E-004
	89	89	4.99969E-002	-2.12938E-002	0.00000E+000	-1.06462E-003	-2.10622E-001	4.12067E-002	3.35677E+001	11	...........	6.87487E-002	-5.12542E-003	5.95708E-001	5.61374E-001	-2.79869E-002	-3.88025E-002	6.94456E-001	-4.38996E-002	-1.46392E-003	1.09140E-004	-1.26849E-002	-1.19538E-002	5.95948E-004	8.26253E-004	-1.47876E-002	9.34789E-004
	90	90	4.99934E-002	-2.10410E-002	0.00000E+000	-1.05191E-003	-2.08109E-001	4.12462E-002	3.36258E+001	11	...........	6.88011E-002	-5.12069E-003	5.95663E-001	5.61464E-001	-2.79775E-002	-3.87786E-002	6.94473E-001	-4.37850E-002	-1.44765E-003	1.07745E-004	-1.25334E-002	-1.18138E-002	5.88676E-004	8.15942E-004	-1.46124E-002	9.21282E-004
	91	91	4.99936E-002	-2.07085E-002	0.00000E+000	-1.03529E-003	-2.04807E-001	4.12560E-002	3.36602E+001	11	...........	6.88144E-002	-5.22542E-003	5.95594E-001	5.61585E-001	-2.79728E-002	-3.87606E-002	6.94471E-001	-4.37860E-002	-1.42504E-003	1.08211E-004	-1.23339E-002	-1.16296E-002	5.79274E-004	8.02673E-004	-1.43815E-002	9.06742E-004
	92	92	4.99940E-002	-2.04277E-002	0.00000E+000	-1.02126E-003	-2.02023E-001	4.12772E-002	3.37000E+001	11	...........	6.88517E-002	-5.24514E-003	5.95463E-001	5.61737E-001	-2.79961E-002	-3.87574E-002	6.94491E-001	-4.38487E-002	-1.40648E-003	1.07146E-004	-1.21640E-002	-1.14750E-002	5.71897E-004	7.91724E-004	-1.41869E-002	8.95730E-004
	93	93	4.99933E-002	-2.01269E-002	0.00000E+000	-1.00621E-003	-1.99028E-001	4.12908E-002	3.37480E+001	11	...........	6.88860E-002	-5.20444E-003	5.95441E-001	5.61662E-001	-2.79960E-002	-3.87572E-002	6.94562E-001	-4.39871E-002	-1.38646E-003	1.04749E-004	-1.19844E-002	-1.13045E-002	5.63472E-004	7.80062E-004	-1.39794E-002	8.85323E-004
	94	94	4.99945E-002	-1.97996E-002	0.00000E+000	-9.89870E-004	-1.95768E-001	4.12912E-002	3.37643E+001	11	...........	6.88939E-002	-5.15250E-003	5.95664E-001	5.61681E-001	-2.80050E-002	-3.87706E-002	6.94496E-001	-4.40143E-002	-1.36407E-003	1.02017E-004	-1.17939E-002	-1.11211E-002	5.54488E-004	7.67641E-004	-1.37507E-002	8.71465E-004
	95	95	4.99956E-002	-1.96101E-002	0.00000E+000	-9.80417E-004	-1.93883E-001	4.13121E-002	3.38029E+001	11	...........	6.89299E-002	-5.09278E-003	5.95607E-001	5.61651E-001	-2.80037E-002	-3.87803E-002	6.94326E-001	-4.40049E-002	-1.35172E-003	9.98697E-005	-1.16799E-002	-1.10140E-002	5.49155E-004	7.60484E-004	-1.36158E-002	8.62938E-004
	96	96	4.99939E-002	-1.93114E-002	0.00000E+000	-9.65453E-004	-1.90913E-001	4.13224E-002	3.38390E+001	11	...........	6.89374E-002	-5.15319E-003	5.95594E-001	5.61670E-001	-2.80318E-002	-3.87787E-002	6.94421E-001	-4.39444E-002	-1.33128E-003	9.95155E-005	-1.15018E-002	-1.08466E-002	5.41334E-004	7.48872E-004	-1.34102E-002	8.48629E-004
	97	97	4.99944E-002	-1.91262E-002	0.00000E+000	-9.56204E-004	-1.89081E-001	4.13360E-002	3.38640E+001	11	...........	6.89693E-002	-5.17319E-003	5.95556E-001	5.61839E-001	-2.79985E-002	-3.87928E-002	6.94446E-001	-4.39303E-002	-1.31912E-003	9.89436E-005	-1.13907E-002	-1.07459E-002	5.35505E-004	7.41959E-004	-1.32821E-002	8.40220E-004
	98	98	4.99943E-002	-1.88496E-002	0.00000E+000	-9.42375E-004	-1.86328E-001	4.13650E-002	3.38876E+001	11	...........	6.90164E-002	-5.17097E-003	5.95456E-001	5.61773E-001	-2.79887E-002	-3.87733E-002	6.94457E-001	-4.39992E-002	-1.30093E-003	9.74710E-005	-1.12241E-002	-1.05892E-002	5.27578E-004	7.30863E-004	-1.30903E-002	8.29369E-004
	99	99	4.99961E-002	-1.86726E-002	0.00000E+000	-9.33560E-004	-1.84565E-001	4.13505E-002	3.38899E+001	11	...........	6.90082E-002	-5.13333E-003	5.95522E-001	5.61599E-001	-2.79924E-002	-3.87850E-002	6.94416E-001	-4.39211E-002	-1.28857E-003	9.58529E-005	-1.11200E-002	-1.04865E-002	5.22691E-004	7.24219E-004	-1.29666E-002	8.20123E-004
	100	100	4.99938E-002	-1.84454E-002	0.00000E+000	-9.22156E-004	-1.82302E-001	4.13862E-002	3.39207E+001	11	...........	6.90542E-002	-5.11597E-003	5.95431E-001	5.61559E-001	-2.80093E-002	-3.87958E-002	6.94515E-001	-4.39524E-002	-1.27373E-003	9.43661E-005	-1.09830E-002	-1.03582E-002	5.16643E-004	7.15605E-004	-1.28106E-002	8.10719E-004
	101	101	4.99927E-002	-1.81418E-002	0.00000E+000	-9.06957E-004	-1.79295E-001	4.14017E-002	3.39426E+001	11	...........	6.90832E-002	-5.08569E-003	5.95452E-001	5.61730E-001	-2.80133E-002	-3.87960E-002	6.94541E-001	-4.38297E-002	-1.25329E-003	9.22636E-005	-1.08026E-002	-1.01908E-002	5.08212E-004	7.03829E-004	-1.26002E-002	7.95150E-004
	102	102	4.99952E-002	-1.78193E-002	0.00000E+000	-8.90880E-004	-1.76084E-001	4.14230E-002	3.39590E+001	11	...........	6.91021E-002	-5.04792E-003	5.95360E-001	5.61678E-001	-2.80158E-002	-3.87992E-002	6.94576E-001	-4.38308E-002	-1.23135E-003	8.99504E-005	-1.06089E-002	-1.00087E-002	4.99223E-004	6.91374E-004	-1.23769E-002	7.81035E-004
	103	103	4.99937E-002	-1.75990E-002	0.00000E+000	-8.79837E-004	-1.73891E-001	4.14318E-002	3.39205E+001	11	...........	6.91272E-002	-4.99556E-003	5.95383E-001	5.61533E-001	-2.80371E-002	-3.88268E-002	6.94547E-001	-4.38707E-002	-1.21657E-003	8.79167E-005	-1.04781E-002	-9.88241E-003	4.93424E-004	6.83312E-004	-1.22233E-002	7.72079E-004
	104	104	4.99950E-002	-1.73531E-002	0.00000E+000	-8.67567E-004	-1.71444E-001	4.14382E-002	3.40070E+001	11	...........	6.91449E-002	-5.10444E-003	5.95319E-001	5.61660E-001	-2.80483E-002	-3.87918E-002	6.94543E-001	-4.38346E-002	-1.19988E-003	8.85779E-005	-1.03306E-002	-9.74654E-003	4.86725E-004	6.73158E-004	-1.20525E-002	7.60666E-004
	105	105	4.99957E-002	-1.71474E-002	0.00000E+000	-8.57296E-004	-1.69390E-001	4.14557E-002	3.40682E+001	11	...........	6.91651E-002	-5.05625E-003	5.95467E-001	5.61701E-001	-2.80596E-002	-3.87881E-002	6.94680E-001	-4.37931E-002	-1.18600E-003	8.67015E-005	-1.02107E-002	-9.63171E-003	4.81149E-004	6.65114E-004	-1.19120E-002	7.50937E-004
	106	106	4.99942E-002	-1.69153E-002	0.00000E+000	-8.45664E-004	-1.67078E-001	4.14739E-002	3.40997E+001	11	...........	6.92080E-002	-5.06528E-003	5.95525E-001	5.61759E-001	-2.80543E-002	-3.87835E-002	6.94527E-001	-4.39571E-002	-1.17067E-003	8.56805E-005	-1.00734E-002	-9.50229E-003	4.74546E-004	6.56032E-004	-1.17481E-002	7.43545E-004
	107	107	4.99947E-002	-1.66879E-002	0.00000E+000	-8.34306E-004	-1.64832E-001	4.14764E-002	3.41290E+001	11	...........	6.92051E-002	-5.09014E-003	5.95531E-001	5.61840E-001	-2.80558E-002	-3.88008E-002	6.94539E-001	-4.38585E-002	-1.15489E-003	8.49437E-005	-9.93816E-003	-9.37593E-003	4.68193E-004	6.47504E-004	-1.15904E-002	7.31905E-004
	108	108	4.99949E-002	-1.64287E-002	0.00000E+000	-8.21351E-004	-1.62259E-001	4.14972E-002	3.41228E+001	11	...........	6.92304E-002	-5.14181E-003	5.95675E-001	5.61992E-001	-2.80839E-002	-3.88299E-002	6.94534E-001	-4.37703E-002	-1.13736E-003	8.44731E-005	-9.78616E-003	-9.23280E-003	4.61381E-004	6.37924E-004	-1.14103E-002	7.19088E-004
	109	109	4.99943E-002	-1.62099E-002	0.00000E+000	-8.10401E-004	-1.60074E-001	4.15156E-002	3.41318E+001	11	...........	6.92422E-002	-5.14222E-003	5.95607E-001	5.62109E-001	-2.80951E-002	-3.88392E-002	6.94483E-001	-4.37981E-002	-1.12241E-003	8.33548E-005	-9.65472E-003	-9.11172E-003	4.55419E-004	6.29578E-004	-1.12575E-002	7.09961E-004
	110	110	4.99956E-002	-1.60123E-002	0.00000E+000	-8.00546E-004	-1.58109E-001	4.15173E-002	3.41524E+001	11	...........	6.92756E-002	-5.09917E-003	5.95671E-001	5.62292E-001	-2.81447E-002	-3.88514E-002	6.94457E-001	-4.38961E-002	-1.10926E-003	8.16495E-005	-9.53807E-003	-9.00360E-003	4.50662E-004	6.22101E-004	-1.11199E-002	7.02878E-004
	111	111	4.99949E-002	-1.57828E-002	0.00000E+000	-7.89061E-004	-1.55822E-001	4.15317E-002	3.41862E+001	11	...........	6.92904E-002	-5.11778E-003	5.95839E-001	5.62363E-001	-2.81324E-002	-3.88415E-002	6.94464E-001	-4.38289E-002	-1.09360E-003	8.07730E-005	-9.40403E-003	-8.87567E-003	4.44008E-004	6.13029E-004	-1.09606E-002	6.91744E-004
	112	112	4.99946E-002	-1.55632E-002	0.00000E+000	-7.78076E-004	-1.53645E-001	4.15382E-002	3.42018E+001	11	...........	6.93122E-002	-5.16736E-003	5.95799E-001	5.62418E-001	-2.81178E-002	-3.88312E-002	6.94412E-001	-4.38114E-002	-1.07872E-003	8.04207E-005	-9.27254E-003	-8.75303E-003	4.37603E-004	6.04339E-004	-1.08073E-002	6.81846E-004
	113	113	4.99949E-002	-1.53483E-002	0.00000E+000	-7.67335E-004	-1.51508E-001	4.15518E-002	3.42005E+001	11	...........	6.93328E-002	-5.24458E-003	5.95644E-001	5.62553E-001	-2.80968E-002	-3.88236E-002	6.94520E-001	-4.39444E-002	-1.06414E-003	8.04953E-005	-9.14211E-003	-8.63422E-003	4.31237E-004	5.95875E-004	-1.06597E-002	6.74471E-004
	114	114	4.99952E-002	-1.51631E-002	0.00000E+000	-7.58082E-004	-1.49664E-001	4.15627E-002	3.42336E+001	11	...........	6.93380E-002	-5.09236E-003	5.95669E-001	5.62533E-001	-2.81047E-002	-3.88249E-002	6.94581E-001	-4.38369E-002	-1.05138E-003	7.72160E-005	-9.03218E-003	-8.52974E-003	4.26155E-004	5.88705E-004	-1.05320E-002	6.64704E-004
	115	115	4.99944E-002	-1.49585E-002	0.00000E+000	-7.47842E-004	-1.47626E-001	4.15787E-002	3.42746E+001	11	...........	6.93644E-002	-5.13306E-003	5.95703E-001	5.62487E-001	-2.80733E-002	-3.88043E-002	6.94397E-001	-4.38451E-002	-1.03759E-003	7.67830E-005	-8.91084E-003	-8.41398E-003	4.19936E-004	5.80455E-004	-1.03872E-002	6.55859E-004
	116	116	4.99955E-002	-1.47291E-002	0.00000E+000	-7.36389E-004	-1.45338E-001	4.15793E-002	3.42928E+001	11	...........	6.93700E-002	-5.16903E-003	5.95803E-001	5.62405E-001	-2.80560E-002	-3.88037E-002	6.94367E-001	-4.38737E-002	-1.02176E-003	7.61351E-005	-8.77564E-003	-8.28373E-003	4.13239E-004	5.71544E-004	-1.02274E-002	6.46221E-004
	117	117	4.99955E-002	-1.45628E-002	0.00000E+000	-7.28073E-004	-1.43678E-001	4.15986E-002	3.42815E+001	11	...........	6.94158E-002	-5.20514E-003	5.95774E-001	5.62420E-001	-2.80671E-002	-3.88185E-002	6.94373E-001	-4.38644E-002	-1.01089E-003	7.58012E-005	-8.67611E-003	-8.19038E-003	4.08734E-004	5.65304E-004	-1.01120E-002	6.38787E-004
	118	118	4.99943E-002	-1.43552E-002	0.00000E+000	-7.17678E-004	-1.41613E-001	4.16145E-002	3.42994E+001	11	...........	6.94196E-002	-5.13750E-003	5.95955E-001	5.62535E-001	-2.80562E-002	-3.88297E-002	6.94307E-001	-4.38731E-002	-9.96532E-004	7.37498E-005	-8.55506E-003	-8.07530E-003	4.02753E-004	5.57408E-004	-9.96692E-003	6.29806E-004
	119	119	4.99949E-002	-1.40679E-002	0.00000E+000	-7.03324E-004	-1.38772E-001	4.16298E-002	3.41021E+001	11	...........	6.94540E-002	-5.12264E-003	5.96050E-001	5.62662E-001	-2.80567E-002	-3.88590E-002	6.94282E-001	-4.38136E-002	-9.77073E-004	7.20649E-005	-8.38519E-003	-7.91549E-003	3.94699E-004	5.46666E-004	-9.76710E-003	6.16366E-004
	120	120	4.99937E-002	-1.37852E-002	0.00000E+000	-6.89173E-004	-1.35959E-001	4.15227E-002	3.34443E+001	11	...........	6.92730E-002	-5.16264E-003	5.95972E-001	5.62641E-001	-2.80400E-002	-3.88607E-002	6.94249E-001	-4.39110E-002	-9.54943E-004	7.11680E-005	-8.21559E-003	-7.75611E-003	3.86537E-004	5.35702E-004	-9.57036E-003	6.05321E-004
	121	121	5.00000E-002	-1.38591E-002	0.00000E+000	-6.92957E-004	-1.36695E-001	4.16822E-002	3.41595E+001	11	...........	6.95375E-002	-5.08222E-003	5.95967E-001	5.62697E-001	-2.80486E-002	-3.88701E-002	6.94323E-001	-4.39929E-002	-9.63730E-004	7.04353E-005	-8.25960E-003	-7.79851E-003	3.88730E-004	5.38707E-004	-9.62273E-003	6.09704E-004
	122	122	4.99951E-002	-1.37840E-002	0.00000E+000	-6.89131E-004	-1.35946E-001	4.16352E-002	3.43415E+001	11	...........	6.94665E-002	-5.09458E-003	5.96078E-001	5.62722E-001	-2.80504E-002	-3.89107E-002	6.94378E-001	-4.39067E-002	-9.57525E-004	7.02237E-005	-8.21633E-003	-7.75655E-003	3.86646E-004	5.36344E-004	-9.57129E-003	6.05209E-004
	123	123	4.99958E-002	-1.36216E-002	0.00000E+000	-6.81024E-004	-1.34328E-001	4.16738E-002	3.43604E+001	11	...........	6.95214E-002	-5.03389E-003	5.96021E-001	5.62975E-001	-2.80542E-002	-3.89110E-002	6.94385E-001	-4.40244E-002	-9.46994E-004	6.85698E-005	-8.11877E-003	-7.66863E-003	3.82143E-004	5.30031E-004	-9.45865E-003	5.99685E-004
	124	124	4.99951E-002	-1.34500E-002	0.00000E+000	-6.72436E-004	-1.32625E-001	4.16817E-002	3.43786E+001	11	...........	6.95331E-002	-5.14014E-003	5.95963E-001	5.63213E-001	-2.80322E-002	-3.88849E-002	6.94366E-001	-4.40271E-002	-9.35222E-004	6.91350E-005	-8.01572E-003	-7.57523E-003	3.77034E-004	5.23003E-004	-9.33924E-003	5.92166E-004
	125	125	4.99956E-002	-1.32899E-002	0.00000E+000	-6.64438E-004	-1.31028E-001	4.16846E-002	3.43868E+001	11	...........	6.95394E-002	-5.13417E-003	5.95989E-001	5.63284E-001	-2.80201E-002	-3.88643E-002	6.94351E-001	-4.38651E-002	-9.24173E-004	6.82326E-005	-7.92065E-003	-7.48600E-003	3.72385E-004	5.16503E-004	-9.22787E-003	5.82964E-004
	126	126	4.99958E-002	-1.31250E-002	0.00000E+000	-6.56195E-004	-1.29390E-001	4.17087E-002	3.43914E+001	11	...........	6.95878E-002	-5.12625E-003	5.95934E-001	5.63379E-001	-2.80158E-002	-3.88617E-002	6.94469E-001	-4.39085E-002	-9.13339E-004	6.72820E-005	-7.82163E-003	-7.39435E-003	3.67708E-004	5.10059E-004	-9.11491E-003	5.76299E-004
	127	127	4.99960E-002	-1.29661E-002	0.00000E+000	-6.48254E-004	-1.27825E-001	4.17050E-002	3.36829E+001	11	...........	6.95831E-002	-5.10056E-003	5.95839E-001	5.63366E-001	-2.79889E-002	-3.88421E-002	6.94439E-001	-4.39571E-002	-9.02222E-004	6.61344E-005	-7.72572E-003	-7.30467E-003	3.62907E-004	5.03631E-004	-9.00418E-003	5.69953E-004
	128	128	4.99943E-002	-1.26612E-002	0.00000E+000	-6.32989E-004	-1.24788E-001	4.16287E-002	3.40353E+001	11	...........	6.94549E-002	-5.00653E-003	5.95890E-001	5.63341E-001	-2.79932E-002	-3.88525E-002	6.94439E-001	-4.40329E-002	-8.79383E-004	6.33887E-005	-7.54469E-003	-7.13258E-003	3.54428E-004	4.91920E-004	-8.79244E-003	5.57510E-004
	129	129	4.99959E-002	-1.26106E-002	0.00000E+000	-6.30480E-004	-1.24279E-001	4.17772E-002	3.42681E+001	11	...........	6.96892E-002	-5.06819E-003	5.95981E-001	5.63376E-001	-2.79756E-002	-3.88818E-002	6.94302E-001	-4.39929E-002	-8.78825E-004	6.39132E-005	-7.51571E-003	-7.10454E-003	3.52790E-004	4.90325E-004	-8.75559E-003	5.54779E-004
	130	130	4.99957E-002	-1.24681E-002	0.00000E+000	-6.23353E-004	-1.22862E-001	4.17141E-002	3.43150E+001	11	...........	6.95993E-002	-5.10736E-003	5.96106E-001	5.63373E-001	-2.79869E-002	-3.88417E-002	6.94400E-001	-4.39626E-002	-8.67775E-004	6.36793E-005	-7.43234E-003	-7.02422E-003	3.48945E-004	4.84284E-004	-8.65788E-003	5.48133E-004
	131	131	4.99957E-002	-1.23017E-002	0.00000E+000	-6.15030E-004	-1.21201E-001	4.17487E-002	3.42911E+001	11	...........	6.96472E-002	-5.23250E-003	5.96209E-001	5.63402E-001	-2.79768E-002	-3.88490E-002	6.94442E-001	-4.39122E-002	-8.56777E-004	6.43685E-005	-7.33436E-003	-6.93079E-003	3.44161E-004	4.77908E-004	-8.54280E-003	5.40194E-004
	132	132	4.99959E-002	-1.21989E-002	0.00000E+000	-6.09894E-004	-1.20178E-001	4.17407E-002	3.42896E+001	11	...........	6.96353E-002	-5.24264E-003	5.96306E-001	5.63462E-001	-2.79764E-002	-3.88281E-002	6.94540E-001	-4.39238E-002	-8.49472E-004	6.39543E-005	-7.27426E-003	-6.87360E-003	3.41280E-004	4.73658E-004	-8.47260E-003	5.35820E-004
	133	133	4.99953E-002	-1.19922E-002	0.00000E+000	-5.99551E-004	-1.18123E-001	4.17810E-002	3.42858E+001	11	...........	6.96992E-002	-5.24958E-003	5.96314E-001	5.63564E-001	-2.79517E-002	-3.88318E-002	6.94496E-001	-4.38339E-002	-8.35843E-004	6.29538E-005	-7.15109E-003	-6.75834E-003	3.35201E-004	4.65677E-004	-8.32850E-003	5.25663E-004
	134	134	4.99955E-002	-1.18508E-002	0.00000E+000	-5.92489E-004	-1.16712E-001	4.17478E-002	3.43487E+001	11	...........	6.96612E-002	-5.16917E-003	5.96348E-001	5.63635E-001	-2.79757E-002	-3.88243E-002	6.94487E-001	-4.39040E-002	-8.25544E-004	6.12590E-005	-7.06722E-003	-6.67955E-003	3.31536E-004	4.60101E-004	-8.23026E-003	5.20300E-004
	135	135	4.99958E-002	-1.17005E-002	0.00000E+000	-5.84975E-004	-1.15211E-001	4.17669E-002	3.43694E+001	11	...........	6.96960E-002	-5.01667E-003	5.96383E-001	5.63692E-001	-2.80069E-002	-3.88207E-002	6.94507E-001	-4.39358E-002	-8.15477E-004	5.86975E-005	-6.97797E-003	-6.59547E-003	3.27695E-004	4.54221E-004	-8.12608E-003	5.14071E-004
	136	136	4.99955E-002	-1.15087E-002	0.00000E+000	-5.75386E-004	-1.13325E-001	4.17778E-002	3.43936E+001	11	...........	6.96953E-002	-5.02958E-003	5.96223E-001	5.63792E-001	-2.80033E-002	-3.88250E-002	6.94563E-001	-4.38740E-002	-8.02105E-004	5.78842E-005	-6.86179E-003	-6.48854E-003	3.22283E-004	4.46827E-004	-7.99355E-003	5.04935E-004
	137	137	4.99949E-002	-1.13758E-002	0.00000E+000	-5.68730E-004	-1.11999E-001	4.17898E-002	3.44116E+001	11	...........	6.97322E-002	-5.04486E-003	5.96139E-001	5.63756E-001	-2.80249E-002	-3.88506E-002	6.94537E-001	-4.39285E-002	-7.93257E-004	5.73891E-005	-6.78153E-003	-6.41315E-003	3.18804E-004	4.41955E-004	-7.90088E-003	4.99720E-004
	138	138	4.99968E-002	-1.12345E-002	0.00000E+000	-5.61687E-004	-1.10591E-001	4.17879E-002	3.44097E+001	11	...........	6.97106E-002	-5.07319E-003	5.96132E-001	5.63801E-001	-2.80419E-002	-3.88567E-002	6.94455E-001	-4.39778E-002	-7.83160E-004	5.69946E-005	-6.69722E-003	-6.33399E-003	3.15036E-004	4.36534E-004	-7.80182E-003	4.94067E-004
	139	139	4.99954E-002	-1.11091E-002	0.00000E+000	-5.55404E-004	-1.09342E-001	4.18056E-002	3.44372E+001	11	...........	6.97590E-002	-5.15444E-003	5.96138E-001	5.63825E-001	-2.80439E-002	-3.88183E-002	6.94487E-001	-4.39404E-002	-7.74959E-004	5.72611E-005	-6.62255E-003	-6.26358E-003	3.11542E-004	4.31236E-004	-7.71512E-003	4.88138E-004
	140	140	4.99955E-002	-1.09452E-002	0.00000E+000	-5.47213E-004	-1.07712E-001	4.18036E-002	3.44218E+001	11	...........	6.97550E-002	-5.22083E-003	5.96168E-001	5.63859E-001	-2.80375E-002	-3.88126E-002	6.94405E-001	-4.39478E-002	-7.63485E-004	5.71433E-005	-6.52520E-003	-6.17158E-003	3.06877E-004	4.24814E-004	-7.60043E-003	4.81019E-004
	141	141	4.99961E-002	-1.07932E-002	0.00000E+000	-5.39617E-004	-1.06199E-001	4.18113E-002	3.44059E+001	11	...........	6.97562E-002	-5.20653E-003	5.96125E-001	5.63804E-001	-2.80268E-002	-3.88272E-002	6.94558E-001	-4.39492E-002	-7.52892E-004	5.61950E-005	-6.43408E-003	-6.08524E-003	3.02498E-004	4.19069E-004	-7.49649E-003	4.74351E-004
	142	142	4.99957E-002	-1.06642E-002	0.00000E+000	-5.33162E-004	-1.04915E-001	4.18354E-002	3.44258E+001	11	...........	6.97965E-002	-5.23319E-003	5.96110E-001	5.63813E-001	-2.80275E-002	-3.88592E-002	6.94503E-001	-4.39842E-002	-7.44321E-004	5.58076E-005	-6.35701E-003	-6.01259E-003	2.98890E-004	4.14400E-004	-7.40628E-003	4.69054E-004
	143	143	4.99959E-002	-1.05224E-002	0.00000E+000	-5.26078E-004	-1.03507E-001	4.18276E-002	3.44553E+001	11	...........	6.97893E-002	-5.09292E-003	5.95990E-001	5.63958E-001	-2.80453E-002	-3.88528E-002	6.94554E-001	-4.39121E-002	-7.34352E-004	5.35898E-005	-6.27125E-003	-5.93420E-003	2.95104E-004	4.08825E-004	-7.30838E-003	4.62061E-004
	144	144	4.99964E-002	-1.03817E-002	0.00000E+000	-5.19048E-004	-1.02139E-001	4.18411E-002	3.44475E+001	11	...........	6.98064E-002	-5.08056E-003	5.95887E-001	5.63771E-001	-2.80351E-002	-3.88560E-002	6.94576E-001	-4.39250E-002	-7.24710E-004	5.27449E-005	-6.18633E-003	-5.85290E-003	2.91053E-004	4.03391E-004	-7.21089E-003	4.56017E-004
	145	145	4.99958E-002	-1.03205E-002	0.00000E+000	-5.15981E-004	-1.01541E-001	4.18397E-002	3.44356E+001	11	...........	6.97944E-002	-5.03417E-003	5.95778E-001	5.63655E-001	-2.80296E-002	-3.88489E-002	6.94569E-001	-4.39611E-002	-7.20313E-004	5.19551E-005	-6.14873E-003	-5.81720E-003	2.89279E-004	4.00940E-004	-7.16829E-003	4.53700E-004
	146	146	4.99957E-002	-1.01557E-002	0.00000E+000	-5.07740E-004	-9.98993E-002	4.18562E-002	3.44713E+001	11	...........	6.98450E-002	-5.08083E-003	5.95673E-001	5.63721E-001	-2.80249E-002	-3.88482E-002	6.94618E-001	-4.39210E-002	-7.09323E-004	5.15993E-005	-6.04946E-003	-5.72497E-003	2.84612E-004	3.94530E-004	-7.05432E-003	4.46047E-004
	147	147	4.99962E-002	-1.00191E-002	0.00000E+000	-5.00915E-004	-9.85387E-002	4.18546E-002	3.44910E+001	11	...........	6.98279E-002	-5.04347E-003	5.95695E-001	5.63823E-001	-2.79986E-002	-3.88635E-002	6.94609E-001	-4.38228E-002	-6.99610E-004	5.05308E-005	-5.96830E-003	-5.64898E-003	2.80520E-004	3.89375E-004	-6.95933E-003	4.39063E-004
	148	148	4.99961E-002	-9.91140E-003	0.00000E+000	-4.95531E-004	-9.74673E-002	4.18570E-002	3.45052E+001	11	...........	6.98411E-002	-5.08667E-003	5.95779E-001	5.63855E-001	-2.80043E-002	-3.88264E-002	6.94630E-001	-4.39085E-002	-6.92223E-004	5.04160E-005	-5.90500E-003	-5.58859E-003	2.77562E-004	3.84824E-004	-6.88475E-003	4.35194E-004
	149	149	4.99959E-002	-9.81271E-003	0.00000E+000	-4.90596E-004	-9.64800E-002	4.18743E-002	3.45327E+001	11	...........	6.98626E-002	-5.21611E-003	5.95934E-001	5.63933E-001	-2.80318E-002	-3.88394E-002	6.94617E-001	-4.39365E-002	-6.85542E-004	5.11842E-005	-5.84773E-003	-5.53371E-003	2.75068E-004	3.81120E-004	-6.81608E-003	4.31136E-004
	150	150	4.99962E-002	-9.67165E-003	0.00000E+000	-4.83546E-004	-9.50770E-002	4.18747E-002	3.45753E+001	11	...........	6.98717E-002	-5.23764E-003	5.95957E-001	5.64006E-001	-2.80217E-002	-3.88446E-002	6.94618E-001	-4.38340E-002	-6.75774E-004	5.06566E-005	-5.76388E-003	-5.45487E-003	2.71016E-004	3.75691E-004	-6.71810E-003	4.23947E-004
	151	151	4.99957E-002	-9.51450E-003	0.00000E+000	-4.75685E-004	-9.35133E-002	4.18832E-002	3.45889E+001	11	...........	6.98733E-002	-5.26514E-003	5.95975E-001	5.63943E-001	-2.80340E-002	-3.88340E-002	6.94510E-001	-4.37949E-002	-6.64810E-004	5.00952E-005	-5.67041E-003	-5.36564E-003	2.66730E-004	3.69486E-004	-6.60792E-003	4.16686E-004
	152	152	4.99958E-002	-9.39379E-003	0.00000E+000	-4.69650E-004	-9.23070E-002	4.18902E-002	3.46155E+001	11	...........	6.98953E-002	-5.10375E-003	5.96001E-001	5.63788E-001	-2.80197E-002	-3.88150E-002	6.94459E-001	-4.38164E-002	-6.56581E-004	4.79435E-005	-5.59870E-003	-5.29610E-003	2.63211E-004	3.64620E-004	-6.52360E-003	4.11602E-004
	153	153	4.99960E-002	-9.27875E-003	0.00000E+000	-4.63900E-004	-9.11603E-002	4.18981E-002	3.46396E+001	11	...........	6.98935E-002	-5.09222E-003	5.96227E-001	5.63785E-001	-2.80039E-002	-3.87883E-002	6.94335E-001	-4.38494E-002	-6.48524E-004	4.72495E-005	-5.53225E-003	-5.23122E-003	2.59841E-004	3.59907E-004	-6.44257E-003	4.06868E-004
	154	154	4.99963E-002	-9.16264E-003	0.00000E+000	-4.58098E-004	-9.00017E-002	4.19067E-002	3.46617E+001	11	...........	6.99249E-002	-5.08972E-003	5.96365E-001	5.63720E-001	-2.80117E-002	-3.87942E-002	6.94405E-001	-4.40415E-002	-6.40696E-004	4.66353E-005	-5.46427E-003	-5.16516E-003	2.56661E-004	3.55457E-004	-6.36258E-003	4.03537E-004
	155	155	4.99959E-002	-9.05830E-003	0.00000E+000	-4.52878E-004	-8.89707E-002	4.19066E-002	3.46840E+001	11	...........	6.99307E-002	-5.12083E-003	5.96352E-001	5.63528E-001	-2.80301E-002	-3.87969E-002	6.94427E-001	-4.39964E-002	-6.33453E-004	4.63861E-005	-5.40194E-003	-5.10460E-003	2.53906E-004	3.51435E-004	-6.29033E-003	3.98533E-004
	156	156	4.99963E-002	-8.92360E-003	0.00000E+000	-4.46147E-004	-8.76477E-002	4.19047E-002	3.46603E+001	11	...........	6.99256E-002	-5.09889E-003	5.96287E-001	5.63565E-001	-2.80354E-002	-3.88143E-002	6.94369E-001	-4.39476E-002	-6.23988E-004	4.55004E-005	-5.32103E-003	-5.02903E-003	2.50177E-004	3.46363E-004	-6.19627E-003	3.92171E-004
	157	157	4.99958E-002	-8.80239E-003	0.00000E+000	-4.40083E-004	-8.64380E-002	4.19191E-002	3.46640E+001	11	...........	6.99303E-002	-5.12056E-003	5.96246E-001	5.63509E-001	-2.80054E-002	-3.88183E-002	6.94434E-001	-4.39454E-002	-6.15554E-004	4.50731E-005	-5.24839E-003	-4.96023E-003	2.46515E-004	3.41694E-004	-6.11268E-003	3.86825E-004
	158	158	4.99963E-002	-8.68860E-003	0.00000E+000	-4.34398E-004	-8.53063E-002	4.19197E-002	3.46937E+001	11	...........	6.99531E-002	-5.18194E-003	5.96142E-001	5.63613E-001	-2.80157E-002	-3.88250E-002	6.94483E-001	-4.39137E-002	-6.07794E-004	4.50238E-005	-5.17964E-003	-4.89701E-003	2.43417E-004	3.37335E-004	-6.03408E-003	3.81549E-004
	159	159	4.99964E-002	-8.58133E-003	0.00000E+000	-4.29035E-004	-8.42390E-002	4.19277E-002	3.46996E+001	11	...........	6.99483E-002	-5.20847E-003	5.96154E-001	5.63627E-001	-2.80247E-002	-3.88161E-002	6.94394E-001	-4.38194E-002	-6.00250E-004	4.46956E-005	-5.11579E-003	-4.83666E-003	2.40489E-004	3.33094E-004	-5.95882E-003	3.76029E-004
	160	160	4.99957E-002	-8.46534E-003	0.00000E+000	-4.23231E-004	-8.30747E-002	4.19452E-002	3.46783E+001	11	...........	6.99615E-002	-5.17347E-003	5.96046E-001	5.63624E-001	-2.80117E-002	-3.88256E-002	6.94337E-001	-4.39026E-002	-5.92248E-004	4.37952E-005	-5.04574E-003	-4.77127E-003	2.37128E-004	3.28672E-004	-5.87780E-003	3.71651E-004
	161	161	4.99963E-002	-8.35967E-003	0.00000E+000	-4.17953E-004	-8.20250E-002	4.19435E-002	3.46755E+001	11	...........	6.99646E-002	-5.11681E-003	5.96008E-001	5.63672E-001	-2.80297E-002	-3.88296E-002	6.94426E-001	-4.39462E-002	-5.84881E-004	4.27748E-005	-4.98243E-003	-4.71212E-003	2.34319E-004	3.24603E-004	-5.80517E-003	3.67376E-004
	162	162	4.99961E-002	-8.25516E-003	0.00000E+000	-4.12726E-004	-8.09917E-002	4.19471E-002	3.46793E+001	11	...........	6.99832E-002	-5.07667E-003	5.95943E-001	5.63743E-001	-2.80653E-002	-3.88318E-002	6.94458E-001	-4.39283E-002	-5.77722E-004	4.19087E-005	-4.91961E-003	-4.65379E-003	2.31683E-004	3.20563E-004	-5.73286E-003	3.62635E-004
	163	163	4.99961E-002	-8.14076E-003	0.00000E+000	-4.07007E-004	-7.98513E-002	4.19444E-002	3.46855E+001	11	...........	6.99851E-002	-4.86569E-003	5.95948E-001	5.63805E-001	-2.80800E-002	-3.88497E-002	6.94602E-001	-4.39371E-002	-5.69732E-004	3.96105E-005	-4.85147E-003	-4.58980E-003	2.28593E-004	3.16266E-004	-5.65459E-003	3.57681E-004
	164	164	4.99966E-002	-8.04283E-003	0.00000E+000	-4.02114E-004	-7.88730E-002	4.19578E-002	3.47118E+001	11	...........	7.00000E-002	-4.91181E-003	5.95954E-001	5.63820E-001	-2.80703E-002	-3.88733E-002	6.94692E-001	-4.38235E-002	-5.62998E-004	3.95048E-005	-4.79316E-003	-4.53471E-003	2.25765E-004	3.12652E-004	-5.58729E-003	3.52465E-004
	165	165	4.99962E-002	-7.93798E-003	0.00000E+000	-3.96869E-004	-7.78303E-002	4.19668E-002	3.47002E+001	11	...........	7.00096E-002	-4.89181E-003	5.95939E-001	5.63745E-001	-2.80757E-002	-3.88960E-002	6.94688E-001	-4.39044E-002	-5.55735E-004	3.88311E-005	-4.73055E-003	-4.47500E-003	2.22864E-004	3.08756E-004	-5.51442E-003	3.48513E-004
	166	166	4.99964E-002	-7.84573E-003	0.00000E+000	-3.92258E-004	-7.69230E-002	4.19611E-002	3.47213E+001	11	...........	7.00172E-002	-4.96681E-003	5.95942E-001	5.63663E-001	-2.80650E-002	-3.89026E-002	6.94657E-001	-4.38437E-002	-5.49336E-004	3.89682E-005	-4.67560E-003	-4.42235E-003	2.20191E-004	3.05220E-004	-5.45010E-003	3.43986E-004
	167	167	4.99964E-002	-7.75442E-003	0.00000E+000	-3.87693E-004	-7.60320E-002	4.19699E-002	3.47465E+001	11	...........	7.00125E-002	-4.98472E-003	5.95966E-001	5.63694E-001	-2.80574E-002	-3.89112E-002	6.94513E-001	-4.39301E-002	-5.42906E-004	3.86536E-005	-4.62137E-003	-4.37112E-003	2.17568E-004	3.01734E-004	-5.38554E-003	3.40653E-004
	168	168	4.99963E-002	-7.65917E-003	0.00000E+000	-3.82930E-004	-7.50740E-002	4.19759E-002	3.47619E+001	11	...........	7.00276E-002	-5.00542E-003	5.96126E-001	5.63658E-001	-2.80499E-002	-3.88990E-002	6.94519E-001	-4.39771E-002	-5.36354E-004	3.83374E-005	-4.56583E-003	-4.31716E-003	2.14839E-004	2.97934E-004	-5.31944E-003	3.36828E-004
	169	169	4.99966E-002	-7.56919E-003	0.00000E+000	-3.78434E-004	-7.41737E-002	4.19872E-002	3.47771E+001	11	...........	7.00292E-002	-5.13806E-003	5.96415E-001	5.63718E-001	-2.80367E-002	-3.88756E-002	6.94406E-001	-4.39178E-002	-5.30064E-004	3.88909E-005	-4.51438E-003	-4.26689E-003	2.12215E-004	2.94256E-004	-5.25609E-003	3.32422E-004
	170	170	4.99965E-002	-7.49470E-003	0.00000E+000	-3.74709E-004	-7.34320E-002	4.19757E-002	3.48022E+001	11	...........	7.00415E-002	-5.12056E-003	5.96385E-001	5.63648E-001	-2.80387E-002	-3.88372E-002	6.94347E-001	-4.38978E-002	-5.24941E-004	3.83770E-005	-4.46973E-003	-4.22438E-003	2.10142E-004	2.91073E-004	-5.20392E-003	3.29001E-004
	171	171	4.99965E-002	-7.41654E-003	0.00000E+000	-3.70801E-004	-7.26533E-002	4.19846E-002	3.47977E+001	11	...........	7.00493E-002	-5.02931E-003	5.96301E-001	5.63574E-001	-2.80431E-002	-3.88340E-002	6.94376E-001	-4.39228E-002	-5.19524E-004	3.73001E-005	-4.42249E-003	-4.17977E-003	2.07983E-004	2.88014E-004	-5.14987E-003	3.25755E-004
	172	172	4.99966E-002	-7.32541E-003	0.00000E+000	-3.66246E-004	-7.17507E-002	4.19948E-002	3.47952E+001	11	...........	7.00565E-002	-5.16764E-003	5.96391E-001	5.63546E-001	-2.80443E-002	-3.88382E-002	6.94422E-001	-4.38218E-002	-5.13193E-004	3.78551E-005	-4.36881E-003	-4.12820E-003	2.05436E-004	2.84506E-004	-5.08692E-003	3.21013E-004
	173	173	4.99964E-002	-7.23340E-003	0.00000E+000	-3.61644E-004	-7.08290E-002	4.19906E-002	3.48001E+001	11	...........	7.00574E-002	-5.18417E-003	5.96364E-001	5.63479E-001	-2.80296E-002	-3.88329E-002	6.94542E-001	-4.38058E-002	-5.06753E-004	3.74991E-005	-4.31374E-003	-4.07587E-003	2.02749E-004	2.80894E-004	-5.02390E-003	3.16865E-004
	174	174	4.99966E-002	-7.14883E-003	0.00000E+000	-3.57417E-004	-6.99840E-002	4.19847E-002	3.47959E+001	11	...........	7.00532E-002	-5.19917E-003	5.96442E-001	5.63516E-001	-2.80465E-002	-3.88268E-002	6.94469E-001	-4.37251E-002	-5.00798E-004	3.71679E-005	-4.26386E-003	-4.02848E-003	2.00500E-004	2.77566E-004	-4.96464E-003	3.12583E-004
	175	175	4.99964E-002	-7.09513E-003	0.00000E+000	-3.54731E-004	-6.94503E-002	4.20023E-002	3.48162E+001	11	...........	7.00957E-002	-5.18139E-003	5.96481E-001	5.63556E-001	-2.80375E-002	-3.88140E-002	6.94512E-001	-4.38883E-002	-4.97338E-004	3.67626E-005	-4.23211E-003	-3.99851E-003	1.98930E-004	2.75391E-004	-4.92765E-003	3.11394E-004
	176	176	4.99965E-002	-7.00704E-003	0.00000E+000	-3.50327E-004	-6.85800E-002	4.20067E-002	3.48363E+001	11	...........	7.00701E-002	-5.20806E-003	5.96331E-001	5.63611E-001	-2.80224E-002	-3.87960E-002	6.94507E-001	-4.38558E-002	-4.90984E-004	3.64930E-005	-4.17851E-003	-3.94924E-003	1.96354E-004	2.71845E-004	-4.86644E-003	3.07299E-004
	177	177	4.99966E-002	-6.93175E-003	0.00000E+000	-3.46564E-004	-6.78250E-002	4.20012E-002	3.48218E+001	11	...........	7.00850E-002	-5.14139E-003	5.96209E-001	5.63696E-001	-2.80200E-002	-3.88040E-002	6.94367E-001	-4.38443E-002	-4.85811E-004	3.56388E-005	-4.13277E-003	-3.90740E-003	1.94227E-004	2.68980E-004	-4.81317E-003	3.03918E-004
	178	178	4.99967E-002	-6.85864E-003	0.00000E+000	-3.42909E-004	-6.70953E-002	4.20076E-002	3.48273E+001	11	...........	7.00812E-002	-5.10208E-003	5.96252E-001	5.63819E-001	-2.80176E-002	-3.88000E-002	6.94341E-001	-4.39307E-002	-4.80662E-004	3.49934E-005	-4.08948E-003	-3.86703E-003	1.92163E-004	2.66115E-004	-4.76224E-003	3.01305E-004
	179	179	4.99966E-002	-6.79646E-003	0.00000E+000	-3.39799E-004	-6.64763E-002	4.20153E-002	3.48501E+001	11	...........	7.00974E-002	-5.11444E-003	5.96278E-001	5.63839E-001	-2.80250E-002	-3.88072E-002	6.94433E-001	-4.40504E-002	-4.76414E-004	3.47601E-005	-4.05258E-003	-3.83211E-003	1.90471E-004	2.63752E-004	-4.71968E-003	2.99387E-004
	180	180	4.99968E-002	-6.72714E-003	0.00000E+000	-3.36336E-004	-6.57827E-002	4.20163E-002	3.48644E+001	11	...........	7.00906E-002	-5.09583E-003	5.96262E-001	5.63780E-001	-2.80186E-002	-3.88008E-002	6.94578E-001	-4.39460E-002	-4.71509E-004	3.42804E-005	-4.01114E-003	-3.79263E-003	1.88485E-004	2.61019E-004	-4.67252E-003	2.95631E-004
	181	181	4.99964E-002	-6.63979E-003	0.00000E+000	-3.31966E-004	-6.49137E-002	4.20196E-002	3.48524E+001	11	...........	7.00994E-002	-5.00653E-003	5.96221E-001	5.63740E-001	-2.80137E-002	-3.88199E-002	6.94541E-001	-4.39903E-002	-4.65446E-004	3.32423E-005	-3.95878E-003	-3.74312E-003	1.86005E-004	2.57756E-004	-4.61161E-003	2.92086E-004
	182	182	4.99965E-002	-6.54458E-003	0.00000E+000	-3.27206E-004	-6.39660E-002	4.20348E-002	3.41556E+001	11	...........	7.01335E-002	-4.97597E-003	5.96400E-001	5.63586E-001	-2.79990E-002	-3.88300E-002	6.94526E-001	-4.39462E-002	-4.58994E-004	3.25657E-005	-3.90319E-003	-3.68844E-003	1.83242E-004	2.54126E-004	-4.54538E-003	2.87610E-004
	183	183	4.99959E-002	-6.38939E-003	0.00000E+000	-3.19443E-004	-6.24377E-002	4.18697E-002	3.39241E+001	11	...........	6.98549E-002	-5.00639E-003	5.96403E-001	5.63424E-001	-2.80036E-002	-3.88306E-002	6.94492E-001	-4.39179E-002	-4.46330E-004	3.19878E-005	-3.81065E-003	-3.59994E-003	1.78926E-004	2.48104E-004	-4.43738E-003	2.80609E-004
	184	184	4.99980E-002	-6.42538E-003	0.00000E+000	-3.21256E-004	-6.28007E-002	4.20487E-002	3.47072E+001	11	...........	7.01540E-002	-5.14000E-003	5.96268E-001	5.63438E-001	-2.80129E-002	-3.88511E-002	6.94462E-001	-4.39374E-002	-4.50766E-004	3.30265E-005	-3.83125E-003	-3.62031E-003	1.79994E-004	2.49633E-004	-4.46218E-003	2.82314E-004
	185	185	4.99968E-002	-6.39107E-003	0.00000E+000	-3.19533E-004	-6.24593E-002	4.19912E-002	3.48741E+001	11	...........	7.00536E-002	-5.24681E-003	5.96169E-001	5.63516E-001	-2.80114E-002	-3.88531E-002	6.94539E-001	-4.39538E-002	-4.47717E-004	3.35327E-005	-3.81016E-003	-3.60147E-003	1.79023E-004	2.48313E-004	-4.43884E-003	2.80911E-004
	186	186	4.99966E-002	-6.34788E-003	0.00000E+000	-3.17372E-004	-6.20327E-002	4.20312E-002	3.48701E+001	11	...........	7.01033E-002	-5.26569E-003	5.96166E-001	5.63584E-001	-2.80082E-002	-3.88483E-002	6.94477E-001	-4.40253E-002	-4.45008E-004	3.34260E-005	-3.78439E-003	-3.57757E-003	1.77793E-004	2.46605E-004	-4.40846E-003	2.79467E-004
	187	187	4.99969E-002	-6.27232E-003	0.00000E+000	-3.13597E-004	-6.12803E-002	4.19222E-002	3.48783E+001	11	...........	7.01439E-002	-5.22625E-003	5.96138E-001	5.63593E-001	-2.80199E-002	-3.88365E-002	6.94505E-001	-4.39965E-002	-4.39965E-004	3.27807E-005	-3.73917E-003	-3.53504E-003	1.75750E-004	2.43595E-004	-4.35616E-003	2.75960E-004
	188	188	4.99964E-002	-6.20284E-003	0.00000E+000	-3.10119E-004	-6.05803E-002	4.20182E-002	3.48879E+001	11	...........	7.01040E-002	-5.21889E-003	5.96103E-001	5.63565E-001	-2.80049E-002	-3.88682E-002	6.94489E-001	-4.40115E-002	-4.34844E-004	3.23719E-005	-3.69753E-003	-3.49570E-003	1.73710E-004	2.41093E-004	-4.30780E-003	2.72996E-004
	189	189	4.99974E-002	-6.15459E-003	0.00000E+000	-3.07713E-004	-6.00997E-002	4.20262E-002	3.48945E+001	11	...........	7.01171E-002	-5.26556E-003	5.95981E-001	5.63593E-001	-2.80119E-002	-3.88849E-002	6.94619E-001	-4.39435E-002	-4.31542E-004	3.24073E-005	-3.66802E-003	-3.46868E-003	1.72402E-004	2.39320E-004	-4.27509E-003	2.70454E-004
	190	190	4.99966E-002	-6.10593E-003	0.00000E+000	-3.05276E-004	-5.96187E-002	4.20461E-002	3.49200E+001	11	...........	7.01589E-002	-5.18972E-003	5.95984E-001	5.63686E-001	-2.80103E-002	-3.88654E-002	6.94576E-001	-4.38806E-002	-4.28385E-004	3.16881E-005	-3.63904E-003	-3.44183E-003	1.71029E-004	2.37310E-004	-4.24103E-003	2.67932E-004
	191	191	4.99963E-002	-6.03126E-003	0.00000E+000	-3.01541E-004	-5.88733E-002	4.20363E-002	3.49309E+001	11	...........	7.01419E-002	-5.18403E-003	5.95989E-001	5.63594E-001	-2.80122E-002	-3.88867E-002	6.94491E-001	-4.38771E-002	-4.23044E-004	3.12662E-005	-3.59456E-003	-3.39918E-003	1.68949E-004	2.34536E-004	-4.18865E-003	2.64634E-004
	192	192	4.99971E-002	-5.95133E-003	0.00000E+000	-2.97549E-004	-5.80780E-002	4.20373E-002	3.48849E+001	11	...........	7.01256E-002	-5.17083E-003	5.95858E-001	5.63650E-001	-2.80068E-002	-3.88768E-002	6.94496E-001	-4.40425E-002	-4.17341E-004	3.07733E-005	-3.54615E-003	-3.35447E-003	1.66678E-004	2.31369E-004	-4.13318E-003	2.62112E-004
	193	193	4.99968E-002	-5.91463E-003	0.00000E+000	-2.95713E-004	-5.77113E-002	4.20437E-002	3.48695E+001	11	...........	7.01624E-002	-5.12597E-003	5.95954E-001	5.63719E-001	-2.80024E-002	-3.88731E-002	6.94505E-001	-4.39838E-002	-4.14985E-004	3.03182E-005	-3.52485E-003	-3.33419E-003	1.65624E-004	2.29920E-004	-4.10774E-003	2.60148E-004
	194	194	4.99968E-002	-5.85298E-003	0.00000E+000	-2.92630E-004	-5.70980E-002	4.20501E-002	3.48883E+001	11	...........	7.01424E-002	-5.20333E-003	5.96011E-001	5.63616E-001	-2.80090E-002	-3.88786E-002	6.94371E-001	-4.39658E-002	-4.10542E-004	3.04550E-005	-3.48844E-003	-3.29883E-003	1.63936E-004	2.27556E-004	-4.06414E-003	2.57331E-004
	195	195	4.99967E-002	-5.78737E-003	0.00000E+000	-2.89349E-004	-5.64447E-002	4.20663E-002	3.49131E+001	11	...........	7.01744E-002	-5.14153E-003	5.95829E-001	5.63630E-001	-2.80143E-002	-3.88590E-002	6.94289E-001	-4.39994E-002	-4.06125E-004	2.97559E-005	-3.44828E-003	-3.26193E-003	1.62129E-004	2.24891E-004	-4.01810E-003	2.54641E-004
	196	196	4.99963E-002	-5.70565E-003	0.00000E+000	-2.85261E-004	-5.56360E-002	4.20344E-002	3.49233E+001	11	...........	7.01271E-002	-5.14486E-003	5.95987E-001	5.63731E-001	-2.80239E-002	-3.88174E-002	6.94330E-001	-4.40268E-002	-4.00120E-004	2.93548E-005	-3.40050E-003	-3.21645E-003	1.59894E-004	2.21478E-004	-3.96160E-003	2.51201E-004
	197	197	4.99969E-002	-5.63410E-003	0.00000E+000	-2.81688E-004	-5.49187E-002	4.20664E-002	3.49389E+001	11	...........	7.01860E-002	-5.12056E-003	5.95999E-001	5.63653E-001	-2.80311E-002	-3.88224E-002	6.94489E-001	-4.39762E-002	-3.95435E-004	2.88497E-005	-3.35792E-003	-3.17568E-003	1.57930E-004	2.18729E-004	-3.91283E-003	2.47767E-004
	198	198	4.99964E-002	-5.57020E-003	0.00000E+000	-2.78490E-004	-5.42857E-002	4.20564E-002	3.49855E+001	11	...........	7.01661E-002	-5.21528E-003	5.95940E-001	5.63682E-001	-2.80203E-002	-3.88317E-002	6.94332E-001	-4.39043E-002	-3.90839E-004	2.90501E-005	-3.31951E-003	-3.13982E-003	1.56079E-004	2.16300E-004	-3.86757E-003	2.44556E-004
	199	199	4.99968E-002	-5.50595E-003	0.00000E+000	-2.75280E-004	-5.36437E-002	4.20435E-002	3.49978E+001	11	...........	7.01503E-002	-5.17319E-003	5.96007E-001	5.63703E-001	-2.80076E-002	-3.88356E-002	6.94305E-001	-4.39281E-002	-3.86244E-004	2.84833E-005	-3.28158E-003	-3.10372E-003	1.54209E-004	2.13826E-004	-3.82280E-003	2.41865E-004
	200	200	4.99967E-002	-5.45018E-003	0.00000E+000	-2.72491E-004	-5.30863E-002	4.20662E-002	3.42766E+001	11	...........	7.01789E-002	-5.22833E-003	5.96167E-001	5.63779E-001	-2.80199E-002	-3.88697E-002	6.94413E-001	-4.39093E-002	-3.82487E-004	2.84953E-005	-3.24922E-003	-3.07270E-003	1.52713E-004	2.11847E-004	-3.78467E-003	2.39314E-004
	201	201	4.99966E-002	-5.32261E-003	0.00000E+000	-2.66112E-004	-5.18210E-002	4.19642E-002	3.45242E+001	11	...........	7.00107E-002	-5.27028E-003	5.96216E-001	5.63835E-001	-2.80328E-002	-3.88625E-002	6.94476E-001	-4.39719E-002	-3.72639E-004	2.80516E-005	-3.17342E-003	-3.00107E-003	1.49207E-004	2.06850E-004	-3.69642E-003	2.34045E-004
	202	202	4.99972E-002	-5.33008E-003	0.00000E+000	-2.66489E-004	-5.18920E-002	4.21005E-002	3.48565E+001	11	...........	7.02215E-002	-5.28458E-003	5.96138E-001	5.63730E-001	-2.80425E-002	-3.88425E-002	6.94586E-001	-4.38894E-002	-3.74286E-004	2.81673E-005	-3.17746E-003	-3.00473E-003	1.49469E-004	2.07034E-004	-3.70220E-003	2.33934E-004
	203	203	4.99970E-002	-5.28038E-003	0.00000E+000	-2.64003E-004	-5.14010E-002	4.20447E-002	3.48522E+001	11	...........	7.01411E-002	-5.28236E-003	5.96154E-001	5.63720E-001	-2.80218E-002	-3.88681E-002	6.94541E-001	-4.39937E-002	-3.70371E-004	2.78928E-005	-3.14792E-003	-2.97665E-003	1.47966E-004	2.05238E-004	-3.66744E-003	2.32304E-004
	204	204	4.99967E-002	-5.21892E-003	0.00000E+000	-2.60929E-004	-5.08053E-002	4.20376E-002	3.49443E+001	11	...........	7.01354E-002	-5.27486E-003	5.96137E-001	5.63631E-001	-2.80317E-002	-3.88537E-002	6.94447E-001	-4.40133E-002	-3.66031E-004	2.75291E-005	-3.11119E-003	-2.94155E-003	1.46295E-004	2.02775E-004	-3.62426E-003	2.29702E-004
	205	205	4.99967E-002	-5.17115E-003	0.00000E+000	-2.58541E-004	-5.03287E-002	4.20591E-002	3.49704E+001	11	...........	7.01714E-002	-5.21847E-003	5.96061E-001	5.63639E-001	-2.80356E-002	-3.88296E-002	6.94495E-001	-4.39789E-002	-3.62867E-004	2.69855E-005	-3.08232E-003	-2.91466E-003	1.44976E-004	2.00794E-004	-3.59134E-003	2.27421E-004
	206	206	4.99971E-002	-5.12334E-003	0.00000E+000	-2.56152E-004	-4.98520E-002	4.20597E-002	3.49945E+001	11	...........	7.01632E-002	-5.17792E-003	5.96124E-001	5.63603E-001	-2.80262E-002	-3.88062E-002	6.94540E-001	-4.38857E-002	-3.59470E-004	2.65282E-005	-3.05415E-003	-2.88753E-003	1.43588E-004	1.98818E-004	-3.55837E-003	2.24841E-004
	207	207	4.99969E-002	-5.08382E-003	0.00000E+000	-2.54175E-004	-4.94597E-002	4.20687E-002	3.50188E+001	11	...........	7.01868E-002	-5.19917E-003	5.96010E-001	5.63681E-001	-2.80100E-002	-3.87807E-002	6.94599E-001	-4.39417E-002	-3.56817E-004	2.64316E-005	-3.03001E-003	-2.86565E-003	1.42398E-004	1.97154E-004	-3.53122E-003	2.23392E-004
	208	207.712	4.99970E-002	-5.04355E-003	0.00000E+000	-2.52163E-004	-4.90595E-002	4.20446E-002	3.50565E+001	11	...........	7.01479E-002	-5.15652E-003	5.96006E-001	5.63716E-001	-2.80232E-002	-3.87697E-002	6.94672E-001	-4.39614E-002	-3.53795E-004	2.60072E-005	-3.00599E-003	-2.84313E-003	1.41337E-004	1.95537E-004	-3.50361E-003	2.21721E-004
STARTTIMEOFFSET	QUANT	567659.3	Start Time Offset (s)
