EXPLAIN
TAG	PWR800_DISCHARGE
TITLE	LABEL	PWR Discharge	Test Identifier
DATE	LABEL	10/18/2022	Date
TIME	LABEL	8:56:28	Time
NOTES	NOTES	1	Notes...
	
PSTAT	PSTAT	REF3000-21114	Potentiostat
CAPACITY	QUANT	5.30000E-002	Capacity (A-hr)
CELLTYPE	SELECTOR	1	Cell Type
WORKINGCONNECTION	SELECTOR	0	Working Connection
MAXDISCHARGETIME	VARIABLEANDUNITS	7.20000E+003	s	2.00000E+000	hour(s)	Max Discharge Time
DISCHARGEMODE	MULTIPARAM	0	1.00000E-001	Discharge Mode	Constant Current	Amp(s)
VOLTAGEFINISH	TWOPARAM	T	5.00000E-003	7.20000E+003	Voltage Finish	I (A) <	Max Time(s)
SAMPLETIME	QUANT	1.00000E+000	Sample Period (s)
DISCHARGESTOPAT1	MULTIPARAM	1	5.00000E-002	Stop At 1	|Voltage| < Limit	V
DISCHARGESTOPAT2	MULTIPARAM	0	0.00000E+000	Stop At 2	None	N/A
AESELECTOR	AESELECTOR	0x1	T	Set Limits	AE Channels
AESBHCSELECTOR	TOGGLE	F	Save Both Half Cells
IRCOMP	TOGGLE	F	IR Measure
EOC	QUANT	0.5089474	Open Circuit (V)
SEQUENCER	TOGGLE	TRUE	Run as Sequence
PSTATMODEL	IQUANT	5	Pstat Model
PSTATSECTION	LABEL	REF3000-21114	Pstat Section
PSTATSERIALNO	LABEL	21114	Pstat Serial Number
CTRLMODE	IQUANT	0	Control Mode
ELECTROMETER	IQUANT	0	RE=0 or CS=1
IESTAB	IQUANT	0	I/E Stability
CASPEED	IQUANT	4	Control Amp Speed
CONVENTION	IQUANT	1	Current Convention
ICHRANGE	IQUANT	2	Ich Range
ICHRANGEMODE	TOGGLE	T	Ich Auto Range
ICHOFFSETENABLE	TOGGLE	F	Ich Offset Enable
ICHOFFSET	QUANT	0	Ich Offset (V)
ICHFILTER	IQUANT	1	Ich Filter
VCHRANGE	IQUANT	3	Vch Range
VCHRANGEMODE	TOGGLE	T	Vch Auto Range
VCHOFFSETENABLE	TOGGLE	F	Vch Offset Enable
VCHOFFSET	QUANT	0	Vch Offset (V)
VCHFILTER	IQUANT	1	Vch Filter
ACHRANGE	IQUANT	2	Ach Range
ACHOFFSETENABLE	TOGGLE	F	Ach Offset Enable
ACHOFFSET	QUANT	0	Ach Offset (V)
ACHFILTER	IQUANT	1	Ach Filter
IERANGELOWERLIMIT	IQUANT	9	I/E Range Lower Limit
IERANGEMODE	TOGGLE	F	I/E AutoRange
IERANGE	IQUANT	9	I/E Range
POSFEEDENABLE	TOGGLE	F	Positive Feedback IR Comp
POSFEEDRESISTANCE	QUANT	0	Positive Feedback Resistance (ohm)
ACHSELECT	IQUANT	1	Ach Select
SENSECABLEID	IQUANT	13	Sense Cable ID
PWRCABLEID	IQUANT	13	Power Cable ID
DCCALDATE	LABEL		DC Calibration Date
ACCALDATE	LABEL		AC Calibration Date
THERMOSELECT	IQUANT	1	Thermo Select
FRAMEWORKVERSION	LABEL	7.8.6	Framework Version
INSTRUMENTVERSION	LABEL	4.50	Instrument Version
COMPLIANCEVOLTAGE	IQUANT	0	Compliance Voltage
CURVE	TABLE	49
	Pt	T	Vf	Im	Vu	Pwr	Sig	Ach	Temp	IERange	Over	Vf1	Vf2	Vf3	Vf4	Vf5	Vf6	Vf7	Vf8	Pwr1	Pwr2	Pwr3	Pwr4	Pwr5	Pwr6	Pwr7	Pwr8
	#	s	V	A	V	W	V	V	deg C	#	bits	V	V	V	V	V	V	V	V	W	W	W	W	W	W	W	W
	0	1	2.64804E-001	-1.00081E-001	0.00000E+000	-2.65019E-002	-9.94000E-001	3.47901E-002	2.88698E+001	11	...........	5.76592E-002	-5.07639E-003	6.05025E-001	5.30339E-001	-2.69831E-002	-3.80942E-002	7.04637E-001	-4.38331E-002	-5.77061E-003	5.08052E-004	-6.05517E-002	-5.30771E-002	2.70050E-003	3.81252E-003	-7.05211E-002	4.38688E-003
	1	2	1.64453E-001	-1.00082E-001	0.00000E+000	-1.64588E-002	-9.94000E-001	3.47106E-002	2.76763E+001	11	...........	5.75314E-002	-5.22903E-003	6.04829E-001	5.30339E-001	-2.69722E-002	-3.81214E-002	7.04585E-001	-4.37918E-002	-5.75784E-003	5.23330E-004	-6.05323E-002	-5.30773E-002	2.69943E-003	3.81526E-003	-7.05161E-002	4.38276E-003
	2	2.82167	8.39483E-002	-1.00082E-001	0.00000E+000	-8.40172E-003	-9.94000E-001	3.47143E-002	2.72915E+001	11	...........	5.75541E-002	-5.16413E-003	6.04675E-001	5.30420E-001	-2.69755E-002	-3.80989E-002	7.04719E-001	-4.38306E-002	-5.76013E-003	5.16837E-004	-6.05171E-002	-5.30855E-002	2.69976E-003	3.81302E-003	-7.05297E-002	4.38666E-003
	3	3	4.91836E-002	-9.48934E-002	0.00000E+000	-4.66720E-003	-9.42400E-001	3.47621E-002	2.69880E+001	11	...........	5.76550E-002	-5.22118E-003	6.04706E-001	5.30513E-001	-2.68583E-002	-3.81090E-002	7.04828E-001	-4.38162E-002	-5.47108E-003	4.95456E-004	-5.73826E-002	-5.03422E-002	2.54867E-003	3.61630E-003	-6.68835E-002	4.15787E-003
	4	4	4.94989E-002	-7.00375E-002	0.00000E+000	-3.46678E-003	-6.95261E-001	3.49207E-002	2.81093E+001	11	...........	5.78564E-002	-5.25833E-003	6.04691E-001	5.30358E-001	-2.69375E-002	-3.80929E-002	7.04622E-001	-4.38572E-002	-4.05212E-003	3.68280E-004	-4.23510E-002	-3.71449E-002	1.88663E-003	2.66793E-003	-4.93500E-002	3.07165E-003
	5	5	4.97418E-002	-4.64598E-002	0.00000E+000	-2.31099E-003	-4.60835E-001	3.49480E-002	2.89079E+001	11	...........	5.79000E-002	-5.20375E-003	6.04680E-001	5.30371E-001	-2.69294E-002	-3.80743E-002	7.04505E-001	-4.39074E-002	-2.69002E-003	2.41765E-004	-2.80933E-002	-2.46409E-002	1.25114E-003	1.76892E-003	-3.27311E-002	2.03993E-003
	6	6	4.98437E-002	-3.38441E-002	0.00000E+000	-1.68691E-003	-3.35405E-001	3.50413E-002	3.00677E+001	11	...........	5.80149E-002	-5.15264E-003	6.04847E-001	5.30311E-001	-2.69194E-002	-3.80708E-002	7.04585E-001	-4.39239E-002	-1.96346E-003	1.74386E-004	-2.04705E-002	-1.79479E-002	9.11064E-004	1.28847E-003	-2.38460E-002	1.48656E-003
	7	7	4.98936E-002	-2.62801E-002	0.00000E+000	-1.31121E-003	-2.60205E-001	3.51292E-002	3.04113E+001	11	...........	5.81221E-002	-5.06347E-003	6.04959E-001	5.30292E-001	-2.69360E-002	-3.80612E-002	7.04554E-001	-4.38667E-002	-1.52745E-003	1.33069E-004	-1.58984E-002	-1.39361E-002	7.07880E-004	1.00025E-003	-1.85157E-002	1.15282E-003
	8	8	4.99223E-002	-2.13533E-002	0.00000E+000	-1.06601E-003	-2.11216E-001	3.51135E-002	3.09100E+001	11	...........	5.81204E-002	-5.18944E-003	6.05002E-001	5.30366E-001	-2.69424E-002	-3.80746E-002	7.04587E-001	-4.38139E-002	-1.24106E-003	1.10812E-004	-1.29188E-002	-1.13251E-002	5.75309E-004	8.13019E-004	-1.50453E-002	9.35572E-004
	9	9	4.99360E-002	-1.79794E-002	0.00000E+000	-8.97821E-004	-1.77666E-001	3.51376E-002	3.08886E+001	11	...........	5.81449E-002	-5.15208E-003	6.05130E-001	5.30279E-001	-2.69479E-002	-3.80803E-002	7.04570E-001	-4.37669E-002	-1.04541E-003	9.26315E-005	-1.08799E-002	-9.53412E-003	4.84508E-004	6.84662E-004	-1.26678E-002	7.86905E-004
	10	10	4.99510E-002	-1.55953E-002	0.00000E+000	-7.79001E-004	-1.53951E-001	3.51726E-002	3.13795E+001	11	...........	5.82083E-002	-5.19556E-003	6.05227E-001	5.30200E-001	-2.69029E-002	-3.80561E-002	7.04524E-001	-4.37879E-002	-9.07777E-004	8.10263E-005	-9.43871E-003	-8.26863E-003	4.19559E-004	5.93497E-004	-1.09873E-002	6.82886E-004
	11	11	4.99569E-002	-1.38354E-002	0.00000E+000	-6.91173E-004	-1.36444E-001	3.52048E-002	3.14564E+001	11	...........	5.82610E-002	-5.29819E-003	6.05304E-001	5.30252E-001	-2.68674E-002	-3.80646E-002	7.04526E-001	-4.37319E-002	-8.06063E-004	7.33026E-005	-8.37462E-003	-7.33624E-003	3.71720E-004	5.26638E-004	-9.74740E-003	6.05049E-004
	12	12	4.99615E-002	-1.25038E-002	0.00000E+000	-6.24708E-004	-1.23206E-001	3.51970E-002	3.11632E+001	11	...........	5.82228E-002	-5.26250E-003	6.05380E-001	5.30123E-001	-2.68603E-002	-3.81031E-002	7.04584E-001	-4.37560E-002	-7.28005E-004	6.58012E-005	-7.56954E-003	-6.62854E-003	3.35855E-004	4.76432E-004	-8.80996E-003	5.47115E-004
	13	13	4.99655E-002	-1.14999E-002	0.00000E+000	-5.74598E-004	-1.13222E-001	3.50582E-002	3.15135E+001	11	...........	5.82899E-002	-5.30208E-003	6.05328E-001	5.30256E-001	-2.68596E-002	-3.81453E-002	7.04406E-001	-4.37444E-002	-6.70328E-004	6.09734E-005	-6.96121E-003	-6.09789E-003	3.08882E-004	4.38667E-004	-8.10059E-003	5.03057E-004
	14	14	4.99691E-002	-1.07533E-002	0.00000E+000	-5.37333E-004	-1.05796E-001	3.52728E-002	3.17209E+001	11	...........	5.83490E-002	-5.38556E-003	6.05274E-001	5.30154E-001	-2.68706E-002	-3.81514E-002	7.04545E-001	-4.38346E-002	-6.27445E-004	5.79125E-005	-6.50870E-003	-5.70091E-003	2.88947E-004	4.10254E-004	-7.57619E-003	4.71367E-004
	15	15	4.99693E-002	-1.00403E-002	0.00000E+000	-5.01707E-004	-9.87427E-002	3.52537E-002	3.16357E+001	11	...........	5.83175E-002	-5.32083E-003	6.05247E-001	5.30366E-001	-2.68753E-002	-3.81529E-002	7.04597E-001	-4.38353E-002	-5.85526E-004	5.34228E-005	-6.07687E-003	-5.32504E-003	2.69836E-004	3.83067E-004	-7.07437E-003	4.40120E-004
	16	16	4.99719E-002	-9.53217E-003	0.00000E+000	-4.76341E-004	-9.36797E-002	3.51878E-002	3.11810E+001	11	...........	5.82257E-002	-5.24875E-003	6.05257E-001	5.30268E-001	-2.68557E-002	-3.81344E-002	7.04576E-001	-4.37818E-002	-5.55017E-004	5.00320E-005	-5.76941E-003	-5.05461E-003	2.55993E-004	3.63504E-004	-6.71615E-003	4.17336E-004
	17	17	4.99730E-002	-9.14821E-003	0.00000E+000	-4.57163E-004	-8.98537E-002	3.54261E-002	3.19794E+001	11	...........	5.86346E-002	-5.35597E-003	6.05303E-001	5.30600E-001	-2.68544E-002	-3.81401E-002	7.04610E-001	-4.37868E-002	-5.36402E-004	4.89976E-005	-5.53744E-003	-4.85404E-003	2.45670E-004	3.48914E-004	-6.44592E-003	4.00571E-004
	18	18	4.99729E-002	-8.77724E-003	0.00000E+000	-4.38625E-004	-8.61767E-002	3.53828E-002	3.20205E+001	11	...........	5.85572E-002	-5.31139E-003	6.05476E-001	5.30658E-001	-2.68862E-002	-3.81394E-002	7.04607E-001	-4.37162E-002	-5.13971E-004	4.66193E-005	-5.31441E-003	-4.65772E-003	2.35987E-004	3.34759E-004	-6.18451E-003	3.83708E-004
	19	19	4.99736E-002	-8.42795E-003	0.00000E+000	-4.21175E-004	-8.27013E-002	3.53448E-002	3.18195E+001	11	...........	5.84725E-002	-5.30097E-003	6.05402E-001	5.30585E-001	-2.69035E-002	-3.81731E-002	7.04558E-001	-4.37632E-002	-4.92803E-004	4.46763E-005	-5.10230E-003	-4.47174E-003	2.26741E-004	3.21721E-004	-5.93798E-003	3.68834E-004
	20	20	4.99750E-002	-8.14871E-003	0.00000E+000	-4.07232E-004	-7.99197E-002	3.52478E-002	3.18017E+001	11	...........	5.85656E-002	-5.25389E-003	6.05567E-001	5.30451E-001	-2.68936E-002	-3.81700E-002	7.04659E-001	-4.37719E-002	-4.77234E-004	4.28124E-005	-4.93459E-003	-4.32249E-003	2.19148E-004	3.11036E-004	-5.74206E-003	3.56685E-004
	21	21	4.99749E-002	-7.91594E-003	0.00000E+000	-3.95598E-004	-7.76077E-002	3.51055E-002	3.20225E+001	11	...........	5.84965E-002	-5.33611E-003	6.05568E-001	5.30388E-001	-2.68650E-002	-3.81390E-002	7.04725E-001	-4.38853E-002	-4.63055E-004	4.22403E-005	-4.79364E-003	-4.19852E-003	2.12662E-004	3.01906E-004	-5.57856E-003	3.47393E-004
	22	22	4.99750E-002	-7.70466E-003	0.00000E+000	-3.85040E-004	-7.55253E-002	3.51318E-002	3.21843E+001	11	...........	5.85599E-002	-5.28764E-003	6.05607E-001	5.30231E-001	-2.68579E-002	-3.81158E-002	7.04748E-001	-4.38456E-002	-4.51184E-004	4.07395E-005	-4.66600E-003	-4.08525E-003	2.06931E-004	2.93670E-004	-5.42984E-003	3.37815E-004
	23	23	4.99757E-002	-7.52738E-003	0.00000E+000	-3.76186E-004	-7.37510E-002	3.52627E-002	3.22343E+001	11	...........	5.87362E-002	-5.22208E-003	6.05686E-001	5.30138E-001	-2.68179E-002	-3.81099E-002	7.04709E-001	-4.38736E-002	-4.42130E-004	3.93086E-005	-4.55923E-003	-3.99056E-003	2.01869E-004	2.86868E-004	-5.30462E-003	3.30254E-004
	24	24	4.99759E-002	-7.35410E-003	0.00000E+000	-3.67528E-004	-7.20230E-002	3.52032E-002	3.23359E+001	11	...........	5.86149E-002	-5.17347E-003	6.05837E-001	5.30168E-001	-2.68281E-002	-3.80967E-002	7.04674E-001	-4.38322E-002	-4.31060E-004	3.80462E-005	-4.45539E-003	-3.89891E-003	1.97296E-004	2.80167E-004	-5.18224E-003	3.22347E-004
	25	25	4.99758E-002	-7.17320E-003	0.00000E+000	-3.58486E-004	-7.02240E-002	3.52017E-002	3.26995E+001	11	...........	5.86424E-002	-5.20458E-003	6.05861E-001	5.30056E-001	-2.68257E-002	-3.81314E-002	7.04581E-001	-4.39289E-002	-4.20653E-004	3.73335E-005	-4.34596E-003	-3.80220E-003	1.92426E-004	2.73524E-004	-5.05410E-003	3.15111E-004
	26	26	4.99767E-002	-7.00704E-003	0.00000E+000	-3.50189E-004	-6.85703E-002	3.51638E-002	3.16530E+001	11	...........	5.85943E-002	-5.25500E-003	6.05937E-001	5.30167E-001	-2.68753E-002	-3.81617E-002	7.04618E-001	-4.38440E-002	-4.10573E-004	3.68220E-005	-4.24582E-003	-3.71490E-003	1.88316E-004	2.67400E-004	-4.93729E-003	3.07217E-004
	27	27	4.99756E-002	-6.92964E-003	0.00000E+000	-3.46313E-004	-6.78007E-002	3.52907E-002	3.23066E+001	11	...........	5.87899E-002	-5.23736E-003	6.05868E-001	5.30281E-001	-2.68826E-002	-3.81721E-002	7.04694E-001	-4.38146E-002	-4.07392E-004	3.62930E-005	-4.19844E-003	-3.67466E-003	1.86287E-004	2.64519E-004	-4.88328E-003	3.03619E-004
	28	28	4.99760E-002	-6.76993E-003	0.00000E+000	-3.38334E-004	-6.62050E-002	3.52561E-002	3.25060E+001	11	...........	5.87326E-002	-5.27847E-003	6.05958E-001	5.30338E-001	-2.68339E-002	-3.81610E-002	7.04792E-001	-4.36967E-002	-3.97616E-004	3.57349E-005	-4.10229E-003	-3.59035E-003	1.81663E-004	2.58347E-004	-4.77139E-003	2.95823E-004
	29	29	4.99768E-002	-6.62682E-003	0.00000E+000	-3.31187E-004	-6.47783E-002	3.52800E-002	3.21743E+001	11	...........	5.87676E-002	-5.21944E-003	6.05977E-001	5.30180E-001	-2.68051E-002	-3.81399E-002	7.04839E-001	-4.36582E-002	-3.89443E-004	3.45883E-005	-4.01570E-003	-3.51341E-003	1.77633E-004	2.52746E-004	-4.67084E-003	2.89315E-004
	30	30	4.99765E-002	-6.51174E-003	0.00000E+000	-3.25434E-004	-6.36307E-002	3.53158E-002	3.22771E+001	11	...........	5.88471E-002	-5.14125E-003	6.05896E-001	5.30213E-001	-2.67837E-002	-3.81537E-002	7.04759E-001	-4.38649E-002	-3.83197E-004	3.34785E-005	-3.94543E-003	-3.45261E-003	1.74409E-004	2.48447E-004	-4.58921E-003	2.85637E-004
	31	31	4.99760E-002	-6.39082E-003	0.00000E+000	-3.19388E-004	-6.24490E-002	3.51645E-002	3.23022E+001	11	...........	5.85840E-002	-5.18722E-003	6.05858E-001	5.30194E-001	-2.67732E-002	-3.81525E-002	7.04814E-001	-4.36650E-002	-3.74400E-004	3.31506E-005	-3.87193E-003	-3.38838E-003	1.71103E-004	2.43826E-004	-4.50434E-003	2.79055E-004
	32	32	4.99771E-002	-6.28735E-003	0.00000E+000	-3.14223E-004	-6.14157E-002	3.53997E-002	3.27041E+001	11	...........	5.89594E-002	-5.21167E-003	6.05964E-001	5.30162E-001	-2.68383E-002	-3.81508E-002	7.04773E-001	-4.37069E-002	-3.70698E-004	3.27675E-005	-3.80990E-003	-3.33331E-003	1.68742E-004	2.39867E-004	-4.43115E-003	2.74801E-004
	33	33	4.99759E-002	-6.19970E-003	0.00000E+000	-3.09836E-004	-6.05413E-002	3.53902E-002	3.24604E+001	11	...........	5.89650E-002	-5.19861E-003	6.05811E-001	5.30247E-001	-2.68403E-002	-3.81194E-002	7.04611E-001	-4.38940E-002	-3.65566E-004	3.22298E-005	-3.75585E-003	-3.28738E-003	1.66402E-004	2.36329E-004	-4.36838E-003	2.72130E-004
	34	34	4.99770E-002	-6.07354E-003	0.00000E+000	-3.03537E-004	-5.92873E-002	3.52059E-002	3.23632E+001	11	...........	5.86411E-002	-5.22681E-003	6.05748E-001	5.30249E-001	-2.68051E-002	-3.81267E-002	7.04434E-001	-4.39060E-002	-3.56159E-004	3.17452E-005	-3.67903E-003	-3.22049E-003	1.62802E-004	2.31564E-004	-4.27841E-003	2.66665E-004
	35	35	4.99770E-002	-5.97510E-003	0.00000E+000	-2.98618E-004	-5.83063E-002	3.53996E-002	3.21077E+001	11	...........	5.89842E-002	-5.21111E-003	6.05894E-001	5.30254E-001	-2.68018E-002	-3.81139E-002	7.04476E-001	-4.38815E-002	-3.52436E-004	3.11369E-005	-3.62028E-003	-3.16832E-003	1.60143E-004	2.27734E-004	-4.20932E-003	2.62197E-004
	36	36	4.99768E-002	-5.89038E-003	0.00000E+000	-2.94382E-004	-5.74600E-002	3.52624E-002	3.26426E+001	11	...........	5.87671E-002	-5.28028E-003	6.06040E-001	5.30241E-001	-2.68083E-002	-3.81069E-002	7.04500E-001	-4.39547E-002	-3.46160E-004	3.11028E-005	-3.56981E-003	-3.12332E-003	1.57911E-004	2.24464E-004	-4.14977E-003	2.58910E-004
	37	37	4.99762E-002	-5.82384E-003	0.00000E+000	-2.91053E-004	-5.67960E-002	3.54260E-002	3.25054E+001	11	...........	5.90362E-002	-5.28236E-003	6.05901E-001	5.30079E-001	-2.68381E-002	-3.80983E-002	7.04457E-001	-4.38931E-002	-3.43818E-004	3.07636E-005	-3.52867E-003	-3.08710E-003	1.56301E-004	2.21879E-004	-4.10265E-003	2.55626E-004
	38	38	4.99778E-002	-5.69848E-003	0.00000E+000	-2.84798E-004	-5.55577E-002	3.53122E-002	3.23899E+001	11	...........	5.88110E-002	-5.32847E-003	6.05958E-001	5.30080E-001	-2.68992E-002	-3.80986E-002	7.04575E-001	-4.38103E-002	-3.35133E-004	3.03642E-005	-3.45304E-003	-3.02065E-003	1.53284E-004	2.17104E-004	-4.01500E-003	2.49652E-004
	39	39	4.99762E-002	-5.59414E-003	0.00000E+000	-2.79574E-004	-5.45143E-002	3.51890E-002	3.14381E+001	11	...........	5.86331E-002	-5.35389E-003	6.05963E-001	5.30126E-001	-2.68810E-002	-3.80989E-002	7.04648E-001	-4.38532E-002	-3.28001E-004	2.99504E-005	-3.38984E-003	-2.96560E-003	1.50376E-004	2.13130E-004	-3.94190E-003	2.45321E-004
	40	40	4.99773E-002	-5.55959E-003	0.00000E+000	-2.77853E-004	-5.41703E-002	3.55157E-002	3.19290E+001	11	...........	5.91961E-002	-5.18917E-003	6.05865E-001	5.30107E-001	-2.68411E-002	-3.80978E-002	7.04605E-001	-4.38510E-002	-3.29106E-004	2.88496E-005	-3.36836E-003	-2.94717E-003	1.49225E-004	2.11808E-004	-3.91731E-003	2.43793E-004
	41	41	4.99775E-002	-5.48507E-003	0.00000E+000	-2.74130E-004	-5.34300E-002	3.54357E-002	3.20037E+001	11	...........	5.90231E-002	-5.18736E-003	6.05887E-001	5.30131E-001	-2.68582E-002	-3.81093E-002	7.04502E-001	-4.38221E-002	-3.23746E-004	2.84531E-005	-3.32334E-003	-2.90781E-003	1.47319E-004	2.09032E-004	-3.86424E-003	2.40367E-004
	42	42	4.99766E-002	-5.38016E-003	0.00000E+000	-2.68882E-004	-5.23813E-002	3.54065E-002	3.21646E+001	11	...........	5.89814E-002	-5.10875E-003	6.05850E-001	5.30196E-001	-2.68882E-002	-3.81004E-002	7.04576E-001	-4.39236E-002	-3.17329E-004	2.74859E-005	-3.25957E-003	-2.85254E-003	1.44663E-004	2.04986E-004	-3.79073E-003	2.36316E-004
	43	43	4.99772E-002	-5.30189E-003	0.00000E+000	-2.64974E-004	-5.16063E-002	3.53972E-002	3.20462E+001	11	...........	5.89575E-002	-5.16111E-003	6.05973E-001	5.30233E-001	-2.68840E-002	-3.81121E-002	7.04609E-001	-4.38890E-002	-3.12586E-004	2.73636E-005	-3.21280E-003	-2.81124E-003	1.42536E-004	2.02066E-004	-3.73576E-003	2.32695E-004
	44	44	4.99771E-002	-5.23455E-003	0.00000E+000	-2.61608E-004	-5.09480E-002	3.54302E-002	3.18732E+001	11	...........	5.90324E-002	-5.12500E-003	6.05961E-001	5.30181E-001	-2.68329E-002	-3.80833E-002	7.04558E-001	-4.37906E-002	-3.09008E-004	2.68271E-005	-3.17193E-003	-2.77526E-003	1.40458E-004	1.99349E-004	-3.68804E-003	2.29224E-004
	45	45	4.99777E-002	-5.18641E-003	0.00000E+000	-2.59205E-004	-5.04737E-002	3.54617E-002	3.25375E+001	11	...........	5.90908E-002	-5.22292E-003	6.05908E-001	5.30151E-001	-2.68415E-002	-3.81028E-002	7.04650E-001	-4.36965E-002	-3.06469E-004	2.70882E-005	-3.14249E-003	-2.74958E-003	1.39211E-004	1.97617E-004	-3.65460E-003	2.26628E-004
	46	46	4.99772E-002	-5.13611E-003	0.00000E+000	-2.56688E-004	-4.99783E-002	3.55349E-002	3.24642E+001	11	...........	5.92122E-002	-5.30917E-003	6.05827E-001	5.30096E-001	-2.68861E-002	-3.81079E-002	7.04747E-001	-4.38131E-002	-3.04121E-004	2.72685E-005	-3.11159E-003	-2.72263E-003	1.38090E-004	1.95727E-004	-3.61966E-003	2.25029E-004
	47	47	4.99771E-002	-5.06106E-003	0.00000E+000	-2.52937E-004	-4.92260E-002	3.54672E-002	3.26781E+001	11	...........	5.90771E-002	-5.25611E-003	6.05764E-001	5.30041E-001	-2.68432E-002	-3.80725E-002	7.04660E-001	-4.38822E-002	-2.98993E-004	2.66015E-005	-3.06581E-003	-2.68257E-003	1.35855E-004	1.92687E-004	-3.56633E-003	2.22091E-004
	48	47.22	4.99773E-002	-5.02961E-003	0.00000E+000	-2.51367E-004	-4.89182E-002	3.55148E-002	3.24186E+001	11	...........	5.92115E-002	-5.23548E-003	6.05846E-001	5.30015E-001	-2.67645E-002	-3.80922E-002	7.04595E-001	-4.39337E-002	-2.97811E-004	2.63324E-005	-3.04717E-003	-2.66577E-003	1.34615E-004	1.91589E-004	-3.54384E-003	2.20970E-004
STARTTIMEOFFSET	QUANT	996268	Start Time Offset (s)
