EXPLAIN
TAG	PWR800_DISCHARGE
TITLE	LABEL	PWR Discharge	Test Identifier
DATE	LABEL	10/15/2022	Date
TIME	LABEL	11:11:54	Time
NOTES	NOTES	1	Notes...
	
PSTAT	PSTAT	REF3000-21114	Potentiostat
CAPACITY	QUANT	5.30000E-002	Capacity (A-hr)
CELLTYPE	SELECTOR	1	Cell Type
WORKINGCONNECTION	SELECTOR	0	Working Connection
MAXDISCHARGETIME	VARIABLEANDUNITS	7.20000E+003	s	2.00000E+000	hour(s)	Max Discharge Time
DISCHARGEMODE	MULTIPARAM	0	1.00000E-001	Discharge Mode	Constant Current	Amp(s)
VOLTAGEFINISH	TWOPARAM	T	5.00000E-003	7.20000E+003	Voltage Finish	I (A) <	Max Time(s)
SAMPLETIME	QUANT	1.00000E+000	Sample Period (s)
DISCHARGESTOPAT1	MULTIPARAM	1	5.00000E-002	Stop At 1	|Voltage| < Limit	V
DISCHARGESTOPAT2	MULTIPARAM	0	0.00000E+000	Stop At 2	None	N/A
AESELECTOR	AESELECTOR	0x1	T	Set Limits	AE Channels
AESBHCSELECTOR	TOGGLE	F	Save Both Half Cells
IRCOMP	TOGGLE	F	IR Measure
EOC	QUANT	0.5634031	Open Circuit (V)
SEQUENCER	TOGGLE	TRUE	Run as Sequence
PSTATMODEL	IQUANT	5	Pstat Model
PSTATSECTION	LABEL	REF3000-21114	Pstat Section
PSTATSERIALNO	LABEL	21114	Pstat Serial Number
CTRLMODE	IQUANT	0	Control Mode
ELECTROMETER	IQUANT	0	RE=0 or CS=1
IESTAB	IQUANT	0	I/E Stability
CASPEED	IQUANT	4	Control Amp Speed
CONVENTION	IQUANT	1	Current Convention
ICHRANGE	IQUANT	2	Ich Range
ICHRANGEMODE	TOGGLE	T	Ich Auto Range
ICHOFFSETENABLE	TOGGLE	F	Ich Offset Enable
ICHOFFSET	QUANT	0	Ich Offset (V)
ICHFILTER	IQUANT	1	Ich Filter
VCHRANGE	IQUANT	3	Vch Range
VCHRANGEMODE	TOGGLE	T	Vch Auto Range
VCHOFFSETENABLE	TOGGLE	F	Vch Offset Enable
VCHOFFSET	QUANT	0	Vch Offset (V)
VCHFILTER	IQUANT	1	Vch Filter
ACHRANGE	IQUANT	2	Ach Range
ACHOFFSETENABLE	TOGGLE	F	Ach Offset Enable
ACHOFFSET	QUANT	0	Ach Offset (V)
ACHFILTER	IQUANT	1	Ach Filter
IERANGELOWERLIMIT	IQUANT	9	I/E Range Lower Limit
IERANGEMODE	TOGGLE	F	I/E AutoRange
IERANGE	IQUANT	9	I/E Range
POSFEEDENABLE	TOGGLE	F	Positive Feedback IR Comp
POSFEEDRESISTANCE	QUANT	0	Positive Feedback Resistance (ohm)
ACHSELECT	IQUANT	1	Ach Select
SENSECABLEID	IQUANT	13	Sense Cable ID
PWRCABLEID	IQUANT	13	Power Cable ID
DCCALDATE	LABEL		DC Calibration Date
ACCALDATE	LABEL		AC Calibration Date
THERMOSELECT	IQUANT	1	Thermo Select
FRAMEWORKVERSION	LABEL	7.8.6	Framework Version
INSTRUMENTVERSION	LABEL	4.50	Instrument Version
COMPLIANCEVOLTAGE	IQUANT	0	Compliance Voltage
CURVE	TABLE	196
	Pt	T	Vf	Im	Vu	Pwr	Sig	Ach	Temp	IERange	Over	Vf1	Vf2	Vf3	Vf4	Vf5	Vf6	Vf7	Vf8	Pwr1	Pwr2	Pwr3	Pwr4	Pwr5	Pwr6	Pwr7	Pwr8
	#	s	V	A	V	W	V	V	deg C	#	bits	V	V	V	V	V	V	V	V	W	W	W	W	W	W	W	W
	0	1	3.28373E-001	-1.00104E-001	0.00000E+000	-3.28713E-002	-9.94000E-001	3.60795E-002	3.01778E+001	11	...........	5.97862E-002	-4.19514E-003	5.81876E-001	6.27992E-001	-2.94715E-002	-3.85650E-002	6.70625E-001	-4.29035E-002	-5.98482E-003	4.19949E-004	-5.82479E-002	-6.28643E-002	2.95021E-003	3.86050E-003	-6.71320E-002	4.29480E-003
	1	2	2.38909E-001	-1.00104E-001	0.00000E+000	-2.39159E-002	-9.94000E-001	3.61725E-002	2.94753E+001	11	...........	5.99525E-002	-4.25028E-003	5.81831E-001	6.27787E-001	-2.94806E-002	-3.85924E-002	6.70672E-001	-4.29821E-002	-6.00151E-003	4.25472E-004	-5.82439E-002	-6.28442E-002	2.95113E-003	3.86327E-003	-6.71373E-002	4.30270E-003
	2	3	1.66800E-001	-1.00104E-001	0.00000E+000	-1.66974E-002	-9.94000E-001	3.60372E-002	2.87997E+001	11	...........	5.97294E-002	-4.24806E-003	5.81819E-001	6.27731E-001	-2.94604E-002	-3.85775E-002	6.70624E-001	-4.28899E-002	-5.97917E-003	4.25248E-004	-5.82426E-002	-6.28386E-002	2.94911E-003	3.86177E-003	-6.71323E-002	4.29346E-003
	3	4	1.04943E-001	-1.00104E-001	0.00000E+000	-1.05053E-002	-9.94000E-001	3.60423E-002	2.77502E+001	11	...........	5.97304E-002	-4.33542E-003	5.81866E-001	6.27752E-001	-2.94536E-002	-3.85667E-002	6.70596E-001	-4.28932E-002	-5.97928E-003	4.33995E-004	-5.82474E-002	-6.28407E-002	2.94844E-003	3.86070E-003	-6.71297E-002	4.29380E-003
	4	4.54	6.33505E-002	-1.00104E-001	0.00000E+000	-6.34165E-003	-9.94000E-001	3.58914E-002	2.71425E+001	11	...........	5.94938E-002	-4.22145E-003	5.81815E-001	6.27598E-001	-2.94583E-002	-3.85820E-002	6.70551E-001	-4.28107E-002	-5.95558E-003	4.22585E-004	-5.82420E-002	-6.28252E-002	2.94890E-003	3.86222E-003	-6.71249E-002	4.28553E-003
	5	5	4.94768E-002	-9.17040E-002	0.00000E+000	-4.53722E-003	-9.10465E-001	3.60567E-002	2.75571E+001	11	...........	5.97482E-002	-4.19475E-003	5.81823E-001	6.27716E-001	-2.94309E-002	-3.85752E-002	6.70486E-001	-4.27551E-002	-5.47915E-003	3.84675E-004	-5.33554E-002	-5.75640E-002	2.69893E-003	3.53750E-003	-6.14862E-002	3.92081E-003
	6	6	4.96856E-002	-7.60723E-002	0.00000E+000	-3.77970E-003	-7.55057E-001	3.62454E-002	2.83984E+001	11	...........	6.00799E-002	-4.17514E-003	5.81857E-001	6.27475E-001	-2.94599E-002	-3.85817E-002	6.70560E-001	-4.28926E-002	-4.57041E-003	3.17612E-004	-4.42632E-002	-4.77335E-002	2.24108E-003	2.93500E-003	-5.10110E-002	3.26294E-003
	7	7	4.97825E-002	-6.31253E-002	0.00000E+000	-3.14254E-003	-6.26348E-001	3.62508E-002	2.92902E+001	11	...........	6.00879E-002	-4.19000E-003	5.82027E-001	6.27328E-001	-2.94757E-002	-3.85794E-002	6.70656E-001	-4.28310E-002	-3.79307E-003	2.64495E-004	-3.67406E-002	-3.96003E-002	1.86066E-003	2.43534E-003	-4.23354E-002	2.70372E-003
	8	8	4.98312E-002	-5.56284E-002	0.00000E+000	-2.77203E-003	-5.51813E-001	3.62908E-002	2.93426E+001	11	...........	6.01332E-002	-4.16125E-003	5.82037E-001	6.27362E-001	-2.94778E-002	-3.85796E-002	6.70657E-001	-4.29342E-002	-3.34511E-003	2.31484E-004	-3.23778E-002	-3.48991E-002	1.63980E-003	2.14612E-003	-3.73076E-002	2.38836E-003
	9	9	4.98496E-002	-5.11237E-002	0.00000E+000	-2.54850E-003	-5.07031E-001	3.64743E-002	2.97313E+001	11	...........	6.04585E-002	-4.16361E-003	5.82068E-001	6.27185E-001	-2.94722E-002	-3.86015E-002	6.70618E-001	-4.28903E-002	-3.09086E-003	2.12859E-004	-2.97575E-002	-3.20640E-002	1.50673E-003	1.97345E-003	-3.42845E-002	2.19271E-003
	10	10	4.98763E-002	-4.75507E-002	0.00000E+000	-2.37165E-003	-4.71506E-001	3.63825E-002	2.99136E+001	11	...........	6.02714E-002	-4.27069E-003	5.81945E-001	6.27151E-001	-2.94379E-002	-3.86039E-002	6.70629E-001	-4.28889E-002	-2.86594E-003	2.03074E-004	-2.76719E-002	-2.98214E-002	1.39979E-003	1.83564E-003	-3.18888E-002	2.03939E-003
	11	11	4.98872E-002	-4.57081E-002	0.00000E+000	-2.28025E-003	-4.53187E-001	3.65791E-002	3.07427E+001	11	...........	6.06003E-002	-4.32056E-003	5.81864E-001	6.27112E-001	-2.94339E-002	-3.86037E-002	6.70681E-001	-4.29001E-002	-2.76992E-003	1.97484E-004	-2.65959E-002	-2.86641E-002	1.34537E-003	1.76450E-003	-3.06556E-002	1.96088E-003
	12	12	4.98824E-002	-4.37954E-002	0.00000E+000	-2.18462E-003	-4.34171E-001	3.65333E-002	3.02944E+001	11	...........	6.05361E-002	-4.15653E-003	5.81934E-001	6.27105E-001	-2.94378E-002	-3.86122E-002	6.70712E-001	-4.28942E-002	-2.65120E-003	1.82037E-004	-2.54860E-002	-2.74643E-002	1.28924E-003	1.69104E-003	-2.93741E-002	1.87857E-003
	13	13	4.98889E-002	-4.21341E-002	0.00000E+000	-2.10202E-003	-4.17646E-001	3.66002E-002	3.06316E+001	11	...........	6.06611E-002	-4.27750E-003	5.81944E-001	6.27185E-001	-2.94154E-002	-3.85889E-002	6.70697E-001	-4.28585E-002	-2.55590E-003	1.80228E-004	-2.45197E-002	-2.64259E-002	1.23939E-003	1.62591E-003	-2.82592E-002	1.80580E-003
	14	14	4.98908E-002	-4.09467E-002	0.00000E+000	-2.04287E-003	-4.05862E-001	3.66557E-002	3.00978E+001	11	...........	6.07317E-002	-4.45236E-003	5.81890E-001	6.27151E-001	-2.94408E-002	-3.85681E-002	6.70750E-001	-4.28789E-002	-2.48676E-003	1.82309E-004	-2.38265E-002	-2.56798E-002	1.20550E-003	1.57923E-003	-2.74650E-002	1.75575E-003
	15	15	4.99062E-002	-3.99822E-002	0.00000E+000	-1.99536E-003	-3.96271E-001	3.67128E-002	3.06118E+001	11	...........	6.08167E-002	-4.33792E-003	5.81962E-001	6.27195E-001	-2.94221E-002	-3.85964E-002	6.70728E-001	-4.30333E-002	-2.43158E-003	1.73439E-004	-2.32681E-002	-2.50766E-002	1.17636E-003	1.54317E-003	-2.68172E-002	1.72057E-003
	16	16	4.98960E-002	-3.92823E-002	0.00000E+000	-1.96003E-003	-3.89323E-001	3.67767E-002	3.10773E+001	11	...........	6.09269E-002	-4.40375E-003	5.81795E-001	6.27261E-001	-2.94204E-002	-3.85892E-002	6.70631E-001	-4.29208E-002	-2.39335E-003	1.72990E-004	-2.28543E-002	-2.46403E-002	1.15570E-003	1.51587E-003	-2.63440E-002	1.68603E-003
	17	17	4.98976E-002	-3.85889E-002	0.00000E+000	-1.92549E-003	-3.82429E-001	3.68683E-002	3.11962E+001	11	...........	6.10903E-002	-4.44028E-003	5.81766E-001	6.27391E-001	-2.94225E-002	-3.85690E-002	6.70659E-001	-4.29489E-002	-2.35741E-003	1.71345E-004	-2.24497E-002	-2.42103E-002	1.13538E-003	1.48834E-003	-2.58800E-002	1.65735E-003
	18	18	4.98967E-002	-3.75979E-002	0.00000E+000	-1.87601E-003	-3.72563E-001	3.67961E-002	3.10204E+001	11	...........	6.09601E-002	-4.43569E-003	5.81761E-001	6.27292E-001	-2.94437E-002	-3.85875E-002	6.70627E-001	-4.27729E-002	-2.29197E-003	1.66773E-004	-2.18730E-002	-2.35848E-002	1.10702E-003	1.45081E-003	-2.52141E-002	1.60817E-003
	19	19	4.99016E-002	-3.71102E-002	0.00000E+000	-1.85186E-003	-3.67723E-001	3.69034E-002	3.06602E+001	11	...........	6.11290E-002	-4.32528E-003	5.81835E-001	6.27363E-001	-2.94676E-002	-3.86225E-002	6.70572E-001	-4.27612E-002	-2.26851E-003	1.60512E-004	-2.15920E-002	-2.32816E-002	1.09355E-003	1.43329E-003	-2.48851E-002	1.58688E-003
	20	20	4.99049E-002	-3.65981E-002	0.00000E+000	-1.82643E-003	-3.62624E-001	3.68719E-002	3.13915E+001	11	...........	6.12725E-002	-4.21903E-003	5.81892E-001	6.27304E-001	-2.94829E-002	-3.86128E-002	6.70629E-001	-4.27774E-002	-2.24246E-003	1.54409E-004	-2.12962E-002	-2.29582E-002	1.07902E-003	1.41316E-003	-2.45438E-002	1.56557E-003
	21	21	4.98993E-002	-3.61296E-002	0.00000E+000	-1.80284E-003	-3.57965E-001	3.66177E-002	3.10279E+001	11	...........	6.12435E-002	-4.29319E-003	5.81776E-001	6.27398E-001	-2.94710E-002	-3.86144E-002	6.70667E-001	-4.29315E-002	-2.21270E-003	1.55111E-004	-2.10193E-002	-2.26676E-002	1.06477E-003	1.39512E-003	-2.42309E-002	1.55110E-003
	22	22	4.98968E-002	-3.53613E-002	0.00000E+000	-1.76442E-003	-3.50314E-001	3.67551E-002	3.14395E+001	11	...........	6.12281E-002	-4.21694E-003	5.81673E-001	6.27517E-001	-2.94708E-002	-3.86000E-002	6.70773E-001	-4.28565E-002	-2.16511E-003	1.49117E-004	-2.05687E-002	-2.21899E-002	1.04213E-003	1.36495E-003	-2.37194E-002	1.51546E-003
	23	23	4.99031E-002	-3.48647E-002	0.00000E+000	-1.73986E-003	-3.45379E-001	3.68607E-002	3.11365E+001	11	...........	6.13993E-002	-4.14833E-003	5.81668E-001	6.27529E-001	-2.94899E-002	-3.86047E-002	6.70880E-001	-4.28904E-002	-2.14067E-003	1.44630E-004	-2.02797E-002	-2.18786E-002	1.02815E-003	1.34594E-003	-2.33900E-002	1.49536E-003
	24	24	4.98984E-002	-3.41566E-002	0.00000E+000	-1.70436E-003	-3.38344E-001	3.67307E-002	3.09592E+001	11	...........	6.11844E-002	-4.21764E-003	5.81510E-001	6.27479E-001	-2.94957E-002	-3.86253E-002	6.70974E-001	-4.30117E-002	-2.08985E-003	1.44060E-004	-1.98624E-002	-2.14325E-002	1.00747E-003	1.31931E-003	-2.29181E-002	1.46913E-003
	25	25	4.99048E-002	-3.39421E-002	0.00000E+000	-1.69387E-003	-3.36206E-001	3.68795E-002	3.17302E+001	11	...........	6.14360E-002	-4.28167E-003	5.81341E-001	6.27351E-001	-2.95039E-002	-3.86612E-002	6.70964E-001	-4.30037E-002	-2.08527E-003	1.45329E-004	-1.97319E-002	-2.12936E-002	1.00142E-003	1.31225E-003	-2.27740E-002	1.45964E-003
	26	26	4.98950E-002	-3.36568E-002	0.00000E+000	-1.67931E-003	-3.33367E-001	3.69999E-002	3.14960E+001	11	...........	6.16214E-002	-4.28819E-003	5.81193E-001	6.27360E-001	-2.94993E-002	-3.86651E-002	6.70842E-001	-4.28668E-002	-2.07398E-003	1.44327E-004	-1.95611E-002	-2.11150E-002	9.92854E-004	1.30135E-003	-2.25784E-002	1.44276E-003
	27	27	4.99065E-002	-3.31024E-002	0.00000E+000	-1.65202E-003	-3.27859E-001	3.69928E-002	3.18409E+001	11	...........	6.16347E-002	-4.30486E-003	5.81171E-001	6.27408E-001	-2.94892E-002	-3.86592E-002	6.70748E-001	-4.28692E-002	-2.04025E-003	1.42501E-004	-1.92381E-002	-2.07687E-002	9.76161E-004	1.27971E-003	-2.22034E-002	1.41907E-003
	28	28	4.98995E-002	-3.25081E-002	0.00000E+000	-1.62213E-003	-3.21935E-001	3.69658E-002	3.09416E+001	11	...........	6.15742E-002	-4.27431E-003	5.81204E-001	6.27466E-001	-2.94629E-002	-3.86303E-002	6.70800E-001	-4.28903E-002	-2.00166E-003	1.38949E-004	-1.88938E-002	-2.03977E-002	9.57782E-004	1.25580E-003	-2.18064E-002	1.39428E-003
	29	29	4.99042E-002	-3.17845E-002	0.00000E+000	-1.58618E-003	-3.14755E-001	3.68965E-002	3.11374E+001	11	...........	6.14540E-002	-4.32917E-003	5.81137E-001	6.27434E-001	-2.94487E-002	-3.85979E-002	6.70856E-001	-4.28372E-002	-1.95328E-003	1.37600E-004	-1.84711E-002	-1.99426E-002	9.36012E-004	1.22681E-003	-2.13228E-002	1.36156E-003
	30	30	4.99112E-002	-3.20026E-002	0.00000E+000	-1.59729E-003	-3.16929E-001	3.71231E-002	3.20660E+001	11	...........	6.18360E-002	-4.42583E-003	5.81260E-001	6.27295E-001	-2.94519E-002	-3.85986E-002	6.70872E-001	-4.28747E-002	-1.97891E-003	1.41638E-004	-1.86019E-002	-2.00751E-002	9.42539E-004	1.23526E-003	-2.14697E-002	1.37210E-003
	31	31	4.98985E-002	-3.15098E-002	0.00000E+000	-1.57229E-003	-3.12027E-001	3.69858E-002	3.13521E+001	11	...........	6.15965E-002	-4.38861E-003	5.81452E-001	6.27281E-001	-2.94258E-002	-3.86086E-002	6.70871E-001	-4.27547E-002	-1.94089E-003	1.38284E-004	-1.83214E-002	-1.97655E-002	9.27202E-004	1.21655E-003	-2.11390E-002	1.34719E-003
	32	32	4.99053E-002	-3.10291E-002	0.00000E+000	-1.54852E-003	-3.07260E-001	3.71383E-002	3.16054E+001	11	...........	6.18606E-002	-4.34611E-003	5.81471E-001	6.27340E-001	-2.94347E-002	-3.85979E-002	6.70843E-001	-4.29318E-002	-1.91948E-003	1.34856E-004	-1.80425E-002	-1.94658E-002	9.13332E-004	1.19766E-003	-2.08156E-002	1.33213E-003
	33	33	4.98980E-002	-3.05078E-002	0.00000E+000	-1.52228E-003	-3.02081E-001	3.70904E-002	3.13644E+001	11	...........	6.17879E-002	-4.26375E-003	5.81493E-001	6.27278E-001	-2.94371E-002	-3.86085E-002	6.70886E-001	-4.29031E-002	-1.88501E-003	1.30078E-004	-1.77401E-002	-1.91369E-002	8.98060E-004	1.17786E-003	-2.04672E-002	1.30888E-003
	34	34	4.99051E-002	-2.99916E-002	0.00000E+000	-1.49673E-003	-2.96951E-001	3.69836E-002	3.10058E+001	11	...........	6.16092E-002	-4.23778E-003	5.81397E-001	6.27326E-001	-2.94271E-002	-3.85904E-002	6.70882E-001	-4.28107E-002	-1.84776E-003	1.27098E-004	-1.74370E-002	-1.88145E-002	8.82566E-004	1.15739E-003	-2.01209E-002	1.28396E-003
	35	35	4.99044E-002	-3.00165E-002	0.00000E+000	-1.49796E-003	-2.97192E-001	3.72480E-002	3.19583E+001	11	...........	6.20483E-002	-4.29986E-003	5.81377E-001	6.27343E-001	-2.94250E-002	-3.86250E-002	6.70923E-001	-4.28471E-002	-1.86248E-003	1.29067E-004	-1.74509E-002	-1.88307E-002	8.83237E-004	1.15939E-003	-2.01388E-002	1.28612E-003
	36	36	4.99061E-002	-2.97290E-002	0.00000E+000	-1.48366E-003	-2.94327E-001	3.72343E-002	3.18208E+001	11	...........	6.20300E-002	-4.24083E-003	5.81330E-001	6.27147E-001	-2.94346E-002	-3.86331E-002	6.70862E-001	-4.27425E-002	-1.84409E-003	1.26076E-004	-1.72823E-002	-1.86444E-002	8.75060E-004	1.14852E-003	-1.99440E-002	1.27069E-003
	37	37	4.99028E-002	-2.90963E-002	0.00000E+000	-1.45199E-003	-2.88057E-001	3.71306E-002	3.19388E+001	11	...........	6.18328E-002	-4.19208E-003	5.81481E-001	6.26979E-001	-2.94218E-002	-3.86212E-002	6.70836E-001	-4.28122E-002	-1.79911E-003	1.21974E-004	-1.69189E-002	-1.82428E-002	8.56067E-004	1.12374E-003	-1.95189E-002	1.24568E-003
	38	38	4.99023E-002	-2.88282E-002	0.00000E+000	-1.43859E-003	-2.85383E-001	3.73144E-002	3.16959E+001	11	...........	6.21454E-002	-4.22056E-003	5.81451E-001	6.26905E-001	-2.94196E-002	-3.86137E-002	6.70814E-001	-4.29351E-002	-1.79154E-003	1.21671E-004	-1.67622E-002	-1.80725E-002	8.48113E-004	1.11316E-003	-1.93383E-002	1.23774E-003
	39	39	4.99015E-002	-2.80300E-002	0.00000E+000	-1.39874E-003	-2.77451E-001	3.70808E-002	3.15562E+001	11	...........	6.17649E-002	-4.13986E-003	5.81385E-001	6.26873E-001	-2.94039E-002	-3.86006E-002	6.70725E-001	-4.30571E-002	-1.73127E-003	1.16040E-004	-1.62962E-002	-1.75712E-002	8.24191E-004	1.08197E-003	-1.88004E-002	1.20689E-003
	40	40	4.99079E-002	-2.81195E-002	0.00000E+000	-1.40338E-003	-2.78343E-001	3.72719E-002	3.20273E+001	11	...........	6.20800E-002	-4.21125E-003	5.81557E-001	6.26802E-001	-2.94132E-002	-3.85993E-002	6.70799E-001	-4.30412E-002	-1.74566E-003	1.18418E-004	-1.63531E-002	-1.76253E-002	8.27083E-004	1.08539E-003	-1.88625E-002	1.21030E-003
	41	41	4.98950E-002	-2.78314E-002	0.00000E+000	-1.38865E-003	-2.75473E-001	3.73145E-002	3.18429E+001	11	...........	6.21486E-002	-4.30778E-003	5.81663E-001	6.26848E-001	-2.93999E-002	-3.86140E-002	6.70878E-001	-4.31158E-002	-1.72968E-003	1.19891E-004	-1.61885E-002	-1.74461E-002	8.18239E-004	1.07468E-003	-1.86715E-002	1.19997E-003
	42	42	4.99035E-002	-2.70651E-002	0.00000E+000	-1.35065E-003	-2.67849E-001	3.73219E-002	3.14263E+001	11	...........	6.21678E-002	-4.26528E-003	5.81695E-001	6.26839E-001	-2.94346E-002	-3.85990E-002	6.70967E-001	-4.30235E-002	-1.68258E-003	1.15440E-004	-1.57437E-002	-1.69655E-002	7.96651E-004	1.04469E-003	-1.81598E-002	1.16444E-003
	43	43	4.99070E-002	-2.68575E-002	0.00000E+000	-1.34038E-003	-2.65792E-001	3.72457E-002	3.17915E+001	11	...........	6.20256E-002	-4.08014E-003	5.81714E-001	6.26925E-001	-2.94450E-002	-3.85951E-002	6.70830E-001	-4.30331E-002	-1.66585E-003	1.09582E-004	-1.56234E-002	-1.68376E-002	7.90819E-004	1.03657E-003	-1.80168E-002	1.15576E-003
	44	44	4.99073E-002	-2.68823E-002	0.00000E+000	-1.34163E-003	-2.66041E-001	3.73610E-002	3.21743E+001	11	...........	6.22146E-002	-4.12833E-003	5.81636E-001	6.26976E-001	-2.94492E-002	-3.85804E-002	6.70812E-001	-4.30683E-002	-1.67247E-003	1.10979E-004	-1.56358E-002	-1.68546E-002	7.91663E-004	1.03713E-003	-1.80330E-002	1.15778E-003
	45	45	4.99046E-002	-2.65869E-002	0.00000E+000	-1.32681E-003	-2.63099E-001	3.73884E-002	3.21763E+001	11	...........	6.22833E-002	-4.13111E-003	5.81501E-001	6.27107E-001	-2.94639E-002	-3.85889E-002	6.70755E-001	-4.29986E-002	-1.65592E-003	1.09834E-004	-1.54603E-002	-1.66729E-002	7.83354E-004	1.02596E-003	-1.78333E-002	1.14320E-003
	46	46	4.98952E-002	-2.59498E-002	0.00000E+000	-1.29477E-003	-2.56763E-001	3.72997E-002	3.19579E+001	11	...........	6.21349E-002	-4.11194E-003	5.81313E-001	6.27153E-001	-2.94682E-002	-3.85954E-002	6.70865E-001	-4.29388E-002	-1.61239E-003	1.06704E-004	-1.50850E-002	-1.62745E-002	7.64694E-004	1.00154E-003	-1.74088E-002	1.11425E-003
	47	47	4.99036E-002	-2.55705E-002	0.00000E+000	-1.27606E-003	-2.52988E-001	3.73835E-002	3.13486E+001	11	...........	6.22717E-002	-4.21403E-003	5.81190E-001	6.27185E-001	-2.94706E-002	-3.85839E-002	6.70974E-001	-4.29739E-002	-1.59232E-003	1.07755E-004	-1.48613E-002	-1.60374E-002	7.53577E-004	9.86610E-004	-1.71571E-002	1.09886E-003
	48	48	4.99115E-002	-2.54817E-002	0.00000E+000	-1.27183E-003	-2.52101E-001	3.74257E-002	3.23466E+001	11	...........	6.23394E-002	-4.16000E-003	5.81267E-001	6.27096E-001	-2.94700E-002	-3.85740E-002	6.70756E-001	-4.29761E-002	-1.58852E-003	1.06004E-004	-1.48117E-002	-1.59795E-002	7.50947E-004	9.82933E-004	-1.70920E-002	1.09511E-003
	49	49	4.99031E-002	-2.53160E-002	0.00000E+000	-1.26335E-003	-2.50451E-001	3.74382E-002	3.27724E+001	11	...........	6.23682E-002	-4.08806E-003	5.81422E-001	6.27089E-001	-2.94722E-002	-3.85858E-002	6.70627E-001	-4.29622E-002	-1.57891E-003	1.03493E-004	-1.47193E-002	-1.58754E-002	7.46118E-004	9.76838E-004	-1.69776E-002	1.08763E-003
	50	50	4.99044E-002	-2.49453E-002	0.00000E+000	-1.24488E-003	-2.46759E-001	3.74103E-002	3.18732E+001	11	...........	6.23169E-002	-4.05806E-003	5.81373E-001	6.27151E-001	-2.94485E-002	-3.86114E-002	6.70577E-001	-4.28912E-002	-1.55451E-003	1.01229E-004	-1.45025E-002	-1.56445E-002	7.34600E-004	9.63172E-004	-1.67277E-002	1.06993E-003
	51	51	4.99052E-002	-2.47099E-002	0.00000E+000	-1.23315E-003	-2.44413E-001	3.75658E-002	3.26947E+001	11	...........	6.25606E-002	-4.25083E-003	5.81364E-001	6.27052E-001	-2.94668E-002	-3.86054E-002	6.70712E-001	-4.29550E-002	-1.54586E-003	1.05038E-004	-1.43654E-002	-1.54944E-002	7.28121E-004	9.53935E-004	-1.65732E-002	1.06141E-003
	52	52	4.98951E-002	-2.43241E-002	0.00000E+000	-1.21365E-003	-2.40599E-001	3.74829E-002	3.19426E+001	11	...........	6.24215E-002	-4.35083E-003	5.81362E-001	6.26904E-001	-2.94525E-002	-3.86300E-002	6.70801E-001	-4.30256E-002	-1.51835E-003	1.05830E-004	-1.41411E-002	-1.52489E-002	7.16406E-004	9.39640E-004	-1.63166E-002	1.04656E-003
	53	53	4.99122E-002	-2.40204E-002	0.00000E+000	-1.19891E-003	-2.37575E-001	3.74640E-002	3.23741E+001	11	...........	6.24010E-002	-4.25694E-003	5.81239E-001	6.26915E-001	-2.94439E-002	-3.86381E-002	6.70725E-001	-4.30957E-002	-1.49890E-003	1.02253E-004	-1.39616E-002	-1.50588E-002	7.07254E-004	9.28101E-004	-1.61111E-002	1.03518E-003
	54	54	4.99016E-002	-2.36900E-002	0.00000E+000	-1.18217E-003	-2.34289E-001	3.74436E-002	3.20662E+001	11	...........	6.23554E-002	-4.34792E-003	5.81263E-001	6.26855E-001	-2.94344E-002	-3.86504E-002	6.70630E-001	-4.30161E-002	-1.47720E-003	1.03002E-004	-1.37702E-002	-1.48502E-002	6.97303E-004	9.15630E-004	-1.58873E-002	1.01905E-003
	55	55	4.99035E-002	-2.36118E-002	0.00000E+000	-1.17831E-003	-2.33508E-001	3.76091E-002	3.22272E+001	11	...........	6.26607E-002	-4.34472E-003	5.81241E-001	6.27051E-001	-2.94424E-002	-3.86557E-002	6.70724E-001	-4.29154E-002	-1.47953E-003	1.02587E-004	-1.37241E-002	-1.48058E-002	6.95186E-004	9.12730E-004	-1.58370E-002	1.01331E-003
	56	56	4.99086E-002	-2.31937E-002	0.00000E+000	-1.15757E-003	-2.29361E-001	3.75122E-002	3.27545E+001	11	...........	6.24832E-002	-4.35125E-003	5.81135E-001	6.27106E-001	-2.94478E-002	-3.86207E-002	6.70642E-001	-4.28892E-002	-1.44922E-003	1.00922E-004	-1.34787E-002	-1.45449E-002	6.83003E-004	8.95757E-004	-1.55547E-002	9.94759E-004
	57	57	4.99013E-002	-2.28792E-002	0.00000E+000	-1.14170E-003	-2.26225E-001	3.74639E-002	3.23260E+001	11	...........	6.24026E-002	-4.38111E-003	5.80895E-001	6.27146E-001	-2.94399E-002	-3.86112E-002	6.70653E-001	-4.29919E-002	-1.42772E-003	1.00236E-004	-1.32904E-002	-1.43486E-002	6.73559E-004	8.83393E-004	-1.53440E-002	9.83619E-004
	58	58	4.99072E-002	-2.25416E-002	0.00000E+000	-1.12499E-003	-2.22859E-001	3.75523E-002	3.23194E+001	11	...........	6.25712E-002	-4.26528E-003	5.80840E-001	6.27274E-001	-2.94547E-002	-3.86125E-002	6.70595E-001	-4.30461E-002	-1.41045E-003	9.61460E-005	-1.30930E-002	-1.41397E-002	6.63955E-004	8.70386E-004	-1.51163E-002	9.70326E-004
	59	59	4.99044E-002	-2.22736E-002	0.00000E+000	-1.11155E-003	-2.20189E-001	3.75872E-002	3.30325E+001	11	...........	6.26210E-002	-4.21486E-003	5.80970E-001	6.27257E-001	-2.94549E-002	-3.86204E-002	6.70679E-001	-4.29700E-002	-1.39480E-003	9.38803E-005	-1.29403E-002	-1.39713E-002	6.56067E-004	8.60217E-004	-1.49385E-002	9.57098E-004
	60	60	4.98965E-002	-2.19839E-002	0.00000E+000	-1.09692E-003	-2.17309E-001	3.76207E-002	3.24163E+001	11	...........	6.26654E-002	-4.14097E-003	5.80925E-001	6.27204E-001	-2.94682E-002	-3.86119E-002	6.70714E-001	-4.29996E-002	-1.37763E-003	9.10348E-005	-1.27710E-002	-1.37884E-002	6.47826E-004	8.48842E-004	-1.47449E-002	9.45299E-004
	61	61	4.99087E-002	-2.15999E-002	0.00000E+000	-1.07802E-003	-2.13507E-001	3.75623E-002	3.20928E+001	11	...........	6.25725E-002	-4.31125E-003	5.80976E-001	6.27314E-001	-2.94686E-002	-3.86056E-002	6.70700E-001	-4.30118E-002	-1.35156E-003	9.31224E-005	-1.25490E-002	-1.35499E-002	6.36518E-004	8.33875E-004	-1.44870E-002	9.29049E-004
	62	62	4.99066E-002	-2.15030E-002	0.00000E+000	-1.07314E-003	-2.12547E-001	3.76580E-002	3.25849E+001	11	...........	6.27156E-002	-4.17583E-003	5.80808E-001	6.27253E-001	-2.94568E-002	-3.86086E-002	6.70735E-001	-4.30226E-002	-1.34857E-003	8.97929E-005	-1.24891E-002	-1.34878E-002	6.33409E-004	8.30200E-004	-1.44228E-002	9.25115E-004
	63	63	4.99035E-002	-2.13174E-002	0.00000E+000	-1.06381E-003	-2.10699E-001	3.76552E-002	3.21877E+001	11	...........	6.27262E-002	-4.17361E-003	5.80776E-001	6.26969E-001	-2.94857E-002	-3.85928E-002	6.70717E-001	-4.29922E-002	-1.33716E-003	8.89706E-005	-1.23806E-002	-1.33654E-002	6.28559E-004	8.22698E-004	-1.42980E-002	9.16483E-004
	64	64	4.99094E-002	-2.09572E-002	0.00000E+000	-1.04596E-003	-2.07111E-001	3.76538E-002	3.30711E+001	11	...........	6.27393E-002	-4.22431E-003	5.80753E-001	6.27106E-001	-2.94796E-002	-3.85679E-002	6.70617E-001	-4.30100E-002	-1.31484E-003	8.85296E-005	-1.21710E-002	-1.31424E-002	6.17809E-004	8.08275E-004	-1.40542E-002	9.01369E-004
	65	65	4.99031E-002	-2.07651E-002	0.00000E+000	-1.03624E-003	-2.05205E-001	3.76635E-002	3.25448E+001	11	...........	6.27565E-002	-4.18194E-003	5.80739E-001	6.27208E-001	-2.94674E-002	-3.85754E-002	6.70642E-001	-4.29807E-002	-1.30315E-003	8.68387E-005	-1.20591E-002	-1.30241E-002	6.11894E-004	8.01024E-004	-1.39260E-002	8.92501E-004
	66	66	4.99039E-002	-2.04840E-002	0.00000E+000	-1.02223E-003	-2.02413E-001	3.76189E-002	3.25489E+001	11	...........	6.26568E-002	-4.23556E-003	5.80749E-001	6.27241E-001	-2.94914E-002	-3.85994E-002	6.70660E-001	-4.29906E-002	-1.28346E-003	8.67613E-005	-1.18961E-002	-1.28484E-002	6.04103E-004	7.90673E-004	-1.37378E-002	8.80620E-004
	67	67	4.99078E-002	-2.03134E-002	0.00000E+000	-1.01380E-003	-2.00719E-001	3.76863E-002	3.27162E+001	11	...........	6.27753E-002	-4.30514E-003	5.80845E-001	6.27320E-001	-2.94883E-002	-3.86162E-002	6.70647E-001	-4.29433E-002	-1.27518E-003	8.74518E-005	-1.17989E-002	-1.27430E-002	5.99007E-004	7.84425E-004	-1.36231E-002	8.72323E-004
	68	68	4.99040E-002	-2.01381E-002	0.00000E+000	-1.00497E-003	-1.98973E-001	3.77979E-002	3.32195E+001	11	...........	6.29611E-002	-4.25417E-003	5.81022E-001	6.27305E-001	-2.94644E-002	-3.85967E-002	6.70541E-001	-4.29146E-002	-1.26792E-003	8.56709E-005	-1.17007E-002	-1.26328E-002	5.93359E-004	7.77264E-004	-1.35034E-002	8.64219E-004
	69	69	4.99025E-002	-1.98226E-002	0.00000E+000	-9.89200E-004	-1.95831E-001	3.77062E-002	3.26348E+001	11	...........	6.28157E-002	-4.16986E-003	5.80970E-001	6.27335E-001	-2.94553E-002	-3.85886E-002	6.70598E-001	-4.28269E-002	-1.24517E-003	8.26577E-005	-1.15164E-002	-1.24354E-002	5.83882E-004	7.64928E-004	-1.32930E-002	8.48943E-004
	70	70	4.99022E-002	-1.93814E-002	0.00000E+000	-9.67175E-004	-1.91449E-001	3.76676E-002	3.22709E+001	11	...........	6.27578E-002	-4.23875E-003	5.80945E-001	6.27351E-001	-2.94574E-002	-3.86032E-002	6.70630E-001	-4.28272E-002	-1.21633E-003	8.21529E-005	-1.12595E-002	-1.21589E-002	5.70925E-004	7.48184E-004	-1.29978E-002	8.30052E-004
	71	71	4.99062E-002	-1.91617E-002	0.00000E+000	-9.56287E-004	-1.89280E-001	3.77299E-002	3.23480E+001	11	...........	6.28601E-002	-4.35083E-003	5.80848E-001	6.27409E-001	-2.94419E-002	-3.86237E-002	6.70505E-001	-4.29981E-002	-1.20451E-003	8.33693E-005	-1.11300E-002	-1.20222E-002	5.64157E-004	7.40096E-004	-1.28480E-002	8.23915E-004
	72	72	4.99100E-002	-1.90963E-002	0.00000E+000	-9.53094E-004	-1.88633E-001	3.77741E-002	3.27264E+001	11	...........	6.29240E-002	-4.28403E-003	5.80836E-001	6.27372E-001	-2.94500E-002	-3.86443E-002	6.70593E-001	-4.30608E-002	-1.20161E-003	8.18089E-005	-1.10918E-002	-1.19805E-002	5.62385E-004	7.37962E-004	-1.28058E-002	8.22301E-004
	73	73	4.99032E-002	-1.89393E-002	0.00000E+000	-9.45131E-004	-1.87061E-001	3.78015E-002	3.25153E+001	11	...........	6.29733E-002	-3.99750E-003	5.80661E-001	6.27405E-001	-2.94687E-002	-3.86179E-002	6.70591E-001	-4.29489E-002	-1.19267E-003	7.57098E-005	-1.09973E-002	-1.18826E-002	5.58117E-004	7.31396E-004	-1.27005E-002	8.13422E-004
	74	74	4.99038E-002	-1.85839E-002	0.00000E+000	-9.27409E-004	-1.83522E-001	3.78322E-002	3.31478E+001	11	...........	6.30199E-002	-4.02222E-003	5.80528E-001	6.27374E-001	-2.94674E-002	-3.86440E-002	6.70636E-001	-4.28546E-002	-1.17116E-003	7.47488E-005	-1.07885E-002	-1.16591E-002	5.47620E-004	7.18158E-004	-1.24631E-002	7.96407E-004
	75	75	4.99048E-002	-1.83544E-002	0.00000E+000	-9.15975E-004	-1.81237E-001	3.77053E-002	3.24058E+001	11	...........	6.28224E-002	-4.11306E-003	5.80682E-001	6.27223E-001	-2.94657E-002	-3.86429E-002	6.70731E-001	-4.28687E-002	-1.15307E-003	7.54928E-005	-1.06581E-002	-1.15123E-002	5.40826E-004	7.09269E-004	-1.23109E-002	7.86832E-004
	76	76	4.99086E-002	-1.83304E-002	0.00000E+000	-9.14844E-004	-1.80994E-001	3.79359E-002	3.32546E+001	11	...........	6.31851E-002	-4.14750E-003	5.80643E-001	6.27258E-001	-2.94740E-002	-3.86539E-002	6.70686E-001	-4.27847E-002	-1.15821E-003	7.60253E-005	-1.06434E-002	-1.14979E-002	5.40271E-004	7.08541E-004	-1.22939E-002	7.84261E-004
	77	77	4.99038E-002	-1.80879E-002	0.00000E+000	-9.02653E-004	-1.78588E-001	3.77783E-002	3.27739E+001	11	...........	6.29151E-002	-4.17667E-003	5.80509E-001	6.27333E-001	-2.94687E-002	-3.86642E-002	6.70665E-001	-4.29485E-002	-1.13800E-003	7.55470E-005	-1.05002E-002	-1.13471E-002	5.33027E-004	6.99352E-004	-1.21309E-002	7.76846E-004
	78	78	4.99042E-002	-1.78129E-002	0.00000E+000	-8.88938E-004	-1.75857E-001	3.78657E-002	3.24617E+001	11	...........	6.30640E-002	-4.18944E-003	5.80414E-001	6.27399E-001	-2.94901E-002	-3.86442E-002	6.70678E-001	-4.29528E-002	-1.12335E-003	7.46261E-005	-1.03388E-002	-1.11758E-002	5.25304E-004	6.88364E-004	-1.19467E-002	7.65113E-004
	79	79	4.99039E-002	-1.73971E-002	0.00000E+000	-8.68185E-004	-1.71713E-001	3.78013E-002	3.22386E+001	11	...........	6.29665E-002	-4.18208E-003	5.80348E-001	6.27479E-001	-2.94972E-002	-3.86393E-002	6.70748E-001	-4.28882E-002	-1.09544E-003	7.27563E-005	-1.00964E-002	-1.09163E-002	5.13168E-004	6.72214E-004	-1.16691E-002	7.46132E-004
	80	80	4.99068E-002	-1.72577E-002	0.00000E+000	-8.61276E-004	-1.70325E-001	3.78019E-002	3.28205E+001	11	...........	6.29718E-002	-4.19861E-003	5.80400E-001	6.27388E-001	-2.95025E-002	-3.86462E-002	6.70882E-001	-4.28144E-002	-1.08675E-003	7.24582E-005	-1.00164E-002	-1.08272E-002	5.09144E-004	6.66944E-004	-1.15779E-002	7.38877E-004
	81	81	4.99016E-002	-1.72785E-002	0.00000E+000	-8.62224E-004	-1.70531E-001	3.79114E-002	3.27189E+001	11	...........	6.31522E-002	-4.19944E-003	5.80485E-001	6.27301E-001	-2.94899E-002	-3.86687E-002	6.70882E-001	-4.29326E-002	-1.09117E-003	7.25599E-005	-1.00299E-002	-1.08388E-002	5.09539E-004	6.68137E-004	-1.15918E-002	7.41810E-004
	82	82	4.99101E-002	-1.69477E-002	0.00000E+000	-8.45863E-004	-1.67237E-001	3.78803E-002	3.31322E+001	11	...........	6.31030E-002	-4.14639E-003	5.80359E-001	6.27221E-001	-2.95035E-002	-3.86435E-002	6.70699E-001	-4.29585E-002	-1.06945E-003	7.02719E-005	-9.83577E-003	-1.06300E-002	5.00017E-004	6.54919E-004	-1.13668E-002	7.28049E-004
	83	83	4.99044E-002	-1.66532E-002	0.00000E+000	-8.31068E-004	-1.64319E-001	3.78658E-002	3.24264E+001	11	...........	6.30574E-002	-4.10778E-003	5.80413E-001	6.27262E-001	-2.94892E-002	-3.86476E-002	6.70767E-001	-4.29412E-002	-1.05011E-003	6.84076E-005	-9.66574E-003	-1.04459E-002	4.91089E-004	6.43607E-004	-1.11704E-002	7.15109E-004
	84	84	4.99058E-002	-1.64461E-002	0.00000E+000	-8.20757E-004	-1.62266E-001	3.78172E-002	3.25858E+001	11	...........	6.29822E-002	-4.13028E-003	5.80330E-001	6.27276E-001	-2.94879E-002	-3.86365E-002	6.70595E-001	-4.30547E-002	-1.03581E-003	6.79270E-005	-9.54417E-003	-1.03163E-002	4.84962E-004	6.35421E-004	-1.10287E-002	7.08083E-004
	85	85	4.99064E-002	-1.63678E-002	0.00000E+000	-8.16856E-004	-1.61481E-001	3.79017E-002	3.29507E+001	11	...........	6.31286E-002	-4.19667E-003	5.80396E-001	6.27255E-001	-2.94610E-002	-3.86421E-002	6.70596E-001	-4.30257E-002	-1.03327E-003	6.86900E-005	-9.49978E-003	-1.02667E-002	4.82210E-004	6.32484E-004	-1.09762E-002	7.04234E-004
	86	86	4.99051E-002	-1.62619E-002	0.00000E+000	-8.11550E-004	-1.60425E-001	3.80008E-002	3.29420E+001	11	...........	6.32915E-002	-4.28292E-003	5.80488E-001	6.27265E-001	-2.94499E-002	-3.86167E-002	6.70811E-001	-4.30514E-002	-1.02924E-003	6.96483E-005	-9.43983E-003	-1.02005E-002	4.78910E-004	6.27980E-004	-1.09086E-002	7.00096E-004
	87	87	4.99063E-002	-1.60068E-002	0.00000E+000	-7.98839E-004	-1.57887E-001	3.79043E-002	3.28103E+001	11	...........	6.31410E-002	-4.30319E-003	5.80349E-001	6.27255E-001	-2.94414E-002	-3.86208E-002	6.70787E-001	-4.30253E-002	-1.01068E-003	6.88803E-005	-9.28951E-003	-1.00403E-002	4.71262E-004	6.18195E-004	-1.07371E-002	6.88696E-004
	88	88	4.99029E-002	-1.56093E-002	0.00000E+000	-7.78949E-004	-1.53931E-001	3.78611E-002	3.26070E+001	11	...........	6.30679E-002	-4.34569E-003	5.80331E-001	6.27333E-001	-2.94518E-002	-3.86347E-002	6.70759E-001	-4.31432E-002	-9.84445E-004	6.78332E-005	-9.05854E-003	-9.79221E-003	4.59721E-004	6.03060E-004	-1.04701E-002	6.73434E-004
	89	89	4.99094E-002	-1.55866E-002	0.00000E+000	-7.77917E-004	-1.53713E-001	3.79137E-002	3.32384E+001	11	...........	6.31615E-002	-4.21750E-003	5.80386E-001	6.27189E-001	-2.94424E-002	-3.86485E-002	6.70800E-001	-4.32074E-002	-9.84471E-004	6.57363E-005	-9.04623E-003	-9.77572E-003	4.58905E-004	6.02397E-004	-1.04555E-002	6.73454E-004
	90	90	4.99045E-002	-1.54363E-002	0.00000E+000	-7.70341E-004	-1.52211E-001	3.78946E-002	3.31697E+001	11	...........	6.31146E-002	-4.37139E-003	5.80369E-001	6.27019E-001	-2.94533E-002	-3.86294E-002	6.70717E-001	-4.31556E-002	-9.74256E-004	6.74781E-005	-8.95875E-003	-9.67886E-003	4.54651E-004	5.96296E-004	-1.03534E-002	6.66162E-004
	91	91	4.99024E-002	-1.52937E-002	0.00000E+000	-7.63193E-004	-1.50804E-001	3.80519E-002	3.30243E+001	11	...........	6.33704E-002	-4.32472E-003	5.80332E-001	6.27055E-001	-2.94651E-002	-3.86168E-002	6.70641E-001	-4.30957E-002	-9.69168E-004	6.61410E-005	-8.87542E-003	-9.58999E-003	4.50631E-004	5.90594E-004	-1.02566E-002	6.59093E-004
	92	92	4.99097E-002	-1.49962E-002	0.00000E+000	-7.48458E-004	-1.47834E-001	3.79237E-002	3.28530E+001	11	...........	6.31843E-002	-4.35653E-003	5.80273E-001	6.26941E-001	-2.94568E-002	-3.86401E-002	6.70513E-001	-4.30546E-002	-9.47526E-004	6.53315E-005	-8.70190E-003	-9.40175E-003	4.41741E-004	5.79456E-004	-1.00552E-002	6.45656E-004
	93	93	4.99051E-002	-1.48509E-002	0.00000E+000	-7.41133E-004	-1.46385E-001	3.78561E-002	3.29695E+001	11	...........	6.30617E-002	-4.35528E-003	5.80233E-001	6.27138E-001	-2.94717E-002	-3.86585E-002	6.70620E-001	-4.31549E-002	-9.36520E-004	6.46796E-005	-8.61696E-003	-9.31355E-003	4.37680E-004	5.74112E-004	-9.95929E-003	6.40887E-004
	94	94	4.99062E-002	-1.47707E-002	0.00000E+000	-7.37150E-004	-1.45589E-001	3.80264E-002	3.33950E+001	11	...........	6.33476E-002	-4.43375E-003	5.80280E-001	6.27027E-001	-2.94449E-002	-3.86631E-002	6.70616E-001	-4.31374E-002	-9.35689E-004	6.54896E-005	-8.57115E-003	-9.26163E-003	4.34921E-004	5.71080E-004	-9.90547E-003	6.37169E-004
	95	95	4.98999E-002	-1.45491E-002	0.00000E+000	-7.25997E-004	-1.43379E-001	3.79701E-002	3.29966E+001	11	...........	6.32561E-002	-4.42500E-003	5.80263E-001	6.26894E-001	-2.94399E-002	-3.86753E-002	6.70648E-001	-4.31182E-002	-9.20317E-004	6.43796E-005	-8.44229E-003	-9.12072E-003	4.28323E-004	5.62689E-004	-9.75731E-003	6.27330E-004
	96	96	4.99109E-002	-1.44057E-002	0.00000E+000	-7.19003E-004	-1.41948E-001	3.80308E-002	3.33642E+001	11	...........	6.33374E-002	-4.40625E-003	5.80181E-001	6.27117E-001	-2.94575E-002	-3.86903E-002	6.70641E-001	-4.30812E-002	-9.12421E-004	6.34753E-005	-8.35793E-003	-9.03408E-003	4.24357E-004	5.57362E-004	-9.66108E-003	6.20617E-004
	97	97	4.99021E-002	-1.40565E-002	0.00000E+000	-7.01450E-004	-1.38499E-001	3.78623E-002	3.24993E+001	11	...........	6.30912E-002	-4.40583E-003	5.80053E-001	6.27129E-001	-2.94689E-002	-3.86871E-002	6.70545E-001	-4.30421E-002	-8.86843E-004	6.19307E-005	-8.15352E-003	-8.81524E-003	4.14230E-004	5.43805E-004	-9.42553E-003	6.05022E-004
	98	98	4.99094E-002	-1.39754E-002	0.00000E+000	-6.97505E-004	-1.37696E-001	3.79829E-002	3.29366E+001	11	...........	6.32801E-002	-4.35208E-003	5.79973E-001	6.27104E-001	-2.94856E-002	-3.87219E-002	6.70483E-001	-4.30089E-002	-8.84367E-004	6.08222E-005	-8.10538E-003	-8.76405E-003	4.12073E-004	5.41156E-004	-9.37029E-003	6.01068E-004
	99	99	4.99076E-002	-1.38877E-002	0.00000E+000	-6.93104E-004	-1.36825E-001	3.79951E-002	3.32847E+001	11	...........	6.32926E-002	-4.36667E-003	5.80083E-001	6.27050E-001	-2.95078E-002	-3.87585E-002	6.70581E-001	-4.29024E-002	-8.78992E-004	6.06432E-005	-8.05604E-003	-8.70832E-003	4.09797E-004	5.38268E-004	-9.31286E-003	5.95817E-004
	100	100	4.99042E-002	-1.37561E-002	0.00000E+000	-6.86489E-004	-1.35511E-001	3.81230E-002	3.35399E+001	11	...........	6.34776E-002	-4.23792E-003	5.80143E-001	6.27200E-001	-2.94996E-002	-3.87679E-002	6.70682E-001	-4.28765E-002	-8.73208E-004	5.82974E-005	-7.98054E-003	-8.62786E-003	4.05801E-004	5.33297E-004	-9.22600E-003	5.89816E-004
	101	101	4.99054E-002	-1.35139E-002	0.00000E+000	-6.74414E-004	-1.33098E-001	3.80030E-002	3.25793E+001	11	...........	6.33017E-002	-4.27056E-003	5.80157E-001	6.27212E-001	-2.94803E-002	-3.87706E-002	6.70707E-001	-4.29467E-002	-8.55450E-004	5.77117E-005	-7.84016E-003	-8.47605E-003	3.98392E-004	5.23940E-004	-9.06384E-003	5.80375E-004
	102	102	4.99065E-002	-1.32504E-002	0.00000E+000	-6.61282E-004	-1.30477E-001	3.79245E-002	3.29039E+001	11	...........	6.31811E-002	-4.18597E-003	5.80134E-001	6.27223E-001	-2.95037E-002	-3.87672E-002	6.70713E-001	-4.29710E-002	-8.37176E-004	5.54658E-005	-7.68701E-003	-8.31096E-003	3.90937E-004	5.13682E-004	-8.88722E-003	5.69383E-004
	103	103	4.99080E-002	-1.32341E-002	0.00000E+000	-6.60486E-004	-1.30313E-001	3.80669E-002	3.32023E+001	11	...........	6.33932E-002	-4.30167E-003	5.80174E-001	6.27103E-001	-2.95012E-002	-3.87633E-002	6.70769E-001	-4.29162E-002	-8.38949E-004	5.69285E-005	-7.67806E-003	-8.29912E-003	3.90421E-004	5.12996E-004	-8.87699E-003	5.67956E-004
	104	104	4.99054E-002	-1.31602E-002	0.00000E+000	-6.56767E-004	-1.29581E-001	3.81324E-002	3.31577E+001	11	...........	6.35197E-002	-4.21042E-003	5.80181E-001	6.27168E-001	-2.95233E-002	-3.87496E-002	6.70610E-001	-4.29997E-002	-8.35935E-004	5.54101E-005	-7.63533E-003	-8.25368E-003	3.88534E-004	5.09954E-004	-8.82538E-003	5.65887E-004
	105	105	4.99048E-002	-1.28365E-002	0.00000E+000	-6.40601E-004	-1.26369E-001	3.80643E-002	3.32253E+001	11	...........	6.34125E-002	-4.22611E-003	5.80071E-001	6.27216E-001	-2.95431E-002	-3.87335E-002	6.70663E-001	-4.29267E-002	-8.13993E-004	5.42484E-005	-7.44607E-003	-8.05124E-003	3.79229E-004	4.97201E-004	-8.60895E-003	5.51027E-004
	106	106	4.99056E-002	-1.26702E-002	0.00000E+000	-6.32313E-004	-1.24711E-001	3.79407E-002	3.27891E+001	11	...........	6.32042E-002	-4.19792E-003	5.80050E-001	6.27121E-001	-2.95497E-002	-3.87164E-002	6.70610E-001	-4.29710E-002	-8.00809E-004	5.31884E-005	-7.34935E-003	-7.94575E-003	3.74401E-004	4.90544E-004	-8.49676E-003	5.44450E-004
	107	107	4.99087E-002	-1.27119E-002	0.00000E+000	-6.34433E-004	-1.25126E-001	3.81965E-002	3.31738E+001	11	...........	6.36217E-002	-4.15861E-003	5.80115E-001	6.26923E-001	-2.95421E-002	-3.87121E-002	6.70525E-001	-4.28528E-002	-8.08750E-004	5.28637E-005	-7.37434E-003	-7.96936E-003	3.75535E-004	4.92103E-004	-8.52363E-003	5.44739E-004
	108	108	4.99053E-002	-1.24559E-002	0.00000E+000	-6.21616E-004	-1.22577E-001	3.80679E-002	3.38738E+001	11	...........	6.34049E-002	-4.22750E-003	5.80054E-001	6.27015E-001	-2.95544E-002	-3.87057E-002	6.70490E-001	-4.27900E-002	-7.89766E-004	5.26574E-005	-7.22510E-003	-7.81004E-003	3.68128E-004	4.82115E-004	-8.35157E-003	5.32989E-004
	109	109	4.99014E-002	-1.23133E-002	0.00000E+000	-6.14452E-004	-1.21155E-001	3.81601E-002	3.31287E+001	11	...........	6.35625E-002	-4.18583E-003	5.80037E-001	6.27004E-001	-2.95396E-002	-3.87017E-002	6.70430E-001	-4.27760E-002	-7.82666E-004	5.15415E-005	-7.14218E-003	-7.72050E-003	3.63730E-004	4.76546E-004	-8.25522E-003	5.26714E-004
	110	110	4.99100E-002	-1.20857E-002	0.00000E+000	-6.03200E-004	-1.18889E-001	3.80263E-002	3.24073E+001	11	...........	6.33522E-002	-4.21403E-003	5.80075E-001	6.26978E-001	-2.95172E-002	-3.86742E-002	6.70532E-001	-4.28813E-002	-7.65659E-004	5.09297E-005	-7.01064E-003	-7.57750E-003	3.56738E-004	4.67406E-004	-8.10388E-003	5.18252E-004
	111	111	4.99084E-002	-1.20560E-002	0.00000E+000	-6.01697E-004	-1.18597E-001	3.81270E-002	3.31749E+001	11	...........	6.35156E-002	-4.25125E-003	5.80090E-001	6.27006E-001	-2.95012E-002	-3.86783E-002	6.70524E-001	-4.29849E-002	-7.65744E-004	5.12531E-005	-6.99357E-003	-7.55919E-003	3.55667E-004	4.66307E-004	-8.08385E-003	5.18226E-004
	112	112	4.99053E-002	-1.19266E-002	0.00000E+000	-5.95200E-004	-1.17308E-001	3.81128E-002	3.35125E+001	11	...........	6.35014E-002	-4.26583E-003	5.79980E-001	6.27041E-001	-2.94828E-002	-3.86887E-002	6.70533E-001	-4.29226E-002	-7.57354E-004	5.08768E-005	-6.91717E-003	-7.47845E-003	3.51628E-004	4.61424E-004	-7.99716E-003	5.11920E-004
	113	113	4.99055E-002	-1.17809E-002	0.00000E+000	-5.87933E-004	-1.15849E-001	3.81050E-002	3.36971E+001	11	...........	6.34743E-002	-4.24903E-003	5.79968E-001	6.26953E-001	-2.94712E-002	-3.86928E-002	6.70509E-001	-4.29564E-002	-7.47787E-004	5.00575E-005	-6.83257E-003	-7.38610E-003	3.47199E-004	4.55837E-004	-7.89922E-003	5.06066E-004
	114	114	4.99025E-002	-1.16083E-002	0.00000E+000	-5.79282E-004	-1.14147E-001	3.82667E-002	3.30813E+001	11	...........	6.37586E-002	-4.18236E-003	5.80014E-001	6.27004E-001	-2.94672E-002	-3.86961E-002	6.70627E-001	-4.29469E-002	-7.40128E-004	4.85501E-005	-6.73297E-003	-7.27844E-003	3.42064E-004	4.49196E-004	-7.78483E-003	4.98541E-004
	115	115	4.99086E-002	-1.13304E-002	0.00000E+000	-5.65485E-004	-1.11393E-001	3.79827E-002	3.28302E+001	11	...........	6.32874E-002	-4.19944E-003	5.80016E-001	6.27127E-001	-2.94775E-002	-3.86799E-002	6.70554E-001	-4.28407E-002	-7.17072E-004	4.75814E-005	-6.57182E-003	-7.10561E-003	3.33992E-004	4.38259E-004	-7.59766E-003	4.85403E-004
	116	116	4.99093E-002	-1.14301E-002	0.00000E+000	-5.70469E-004	-1.12389E-001	3.82592E-002	3.40659E+001	11	...........	6.37322E-002	-4.24389E-003	5.79924E-001	6.27051E-001	-2.94931E-002	-3.86894E-002	6.70495E-001	-4.28594E-002	-7.28467E-004	4.85082E-005	-6.62860E-003	-7.16727E-003	3.37109E-004	4.42225E-004	-7.66384E-003	4.89889E-004
	117	117	4.99054E-002	-1.13150E-002	0.00000E+000	-5.64679E-004	-1.11239E-001	3.81717E-002	3.38536E+001	11	...........	6.35885E-002	-4.29069E-003	5.79928E-001	6.27074E-001	-2.95060E-002	-3.86824E-002	6.70530E-001	-4.30271E-002	-7.19502E-004	4.85491E-005	-6.56187E-003	-7.09533E-003	3.33859E-004	4.37690E-004	-7.58703E-003	4.86851E-004
	118	118	4.99058E-002	-1.10713E-002	0.00000E+000	-5.52523E-004	-1.08811E-001	3.80762E-002	3.28140E+001	11	...........	6.34246E-002	-4.31139E-003	5.80027E-001	6.27159E-001	-2.95146E-002	-3.87090E-002	6.70534E-001	-4.31464E-002	-7.02194E-004	4.77328E-005	-6.42167E-003	-6.94348E-003	3.26766E-004	4.28560E-004	-7.42370E-003	4.77688E-004
	119	119	4.99070E-002	-1.09556E-002	0.00000E+000	-5.46762E-004	-1.07659E-001	3.82892E-002	3.38709E+001	11	...........	6.37725E-002	-4.32069E-003	5.80018E-001	6.27096E-001	-2.95269E-002	-3.86978E-002	6.70533E-001	-4.30222E-002	-6.98668E-004	4.73360E-005	-6.35447E-003	-6.87023E-003	3.23486E-004	4.23959E-004	-7.34611E-003	4.71336E-004
	120	120	4.99065E-002	-1.08182E-002	0.00000E+000	-5.39897E-004	-1.06291E-001	3.79857E-002	3.30485E+001	11	...........	6.32725E-002	-4.33819E-003	5.79976E-001	6.27002E-001	-2.95299E-002	-3.86946E-002	6.70466E-001	-4.28507E-002	-6.84493E-004	4.69313E-005	-6.27428E-003	-6.78302E-003	3.19459E-004	4.18605E-004	-7.25322E-003	4.63566E-004
	121	121	4.99072E-002	-1.07752E-002	0.00000E+000	-5.37758E-004	-1.05862E-001	3.82762E-002	3.39794E+001	11	...........	6.37646E-002	-4.14361E-003	5.79945E-001	6.27089E-001	-2.95079E-002	-3.87139E-002	6.70425E-001	-4.27290E-002	-6.87074E-004	4.46481E-005	-6.24901E-003	-6.75699E-003	3.17953E-004	4.17149E-004	-7.22394E-003	4.60412E-004
	122	122	4.99064E-002	-1.06708E-002	0.00000E+000	-5.32540E-004	-1.04824E-001	3.82690E-002	3.35320E+001	11	...........	6.37289E-002	-4.17444E-003	5.80022E-001	6.27188E-001	-2.94992E-002	-3.87111E-002	6.70525E-001	-4.28361E-002	-6.80036E-004	4.45445E-005	-6.18928E-003	-6.69259E-003	3.14779E-004	4.13077E-004	-7.15502E-003	4.57094E-004
	123	123	4.99055E-002	-1.04648E-002	0.00000E+000	-5.22251E-004	-1.02787E-001	3.81276E-002	3.39614E+001	11	...........	6.35096E-002	-4.07250E-003	5.79922E-001	6.27213E-001	-2.94814E-002	-3.87012E-002	6.70520E-001	-4.28406E-002	-6.64616E-004	4.26179E-005	-6.06877E-003	-6.56366E-003	3.08517E-004	4.05001E-004	-7.01687E-003	4.48318E-004
	124	124	4.99073E-002	-1.03553E-002	0.00000E+000	-5.16805E-004	-1.01728E-001	3.82762E-002	3.33982E+001	11	...........	6.37635E-002	-4.19931E-003	5.80040E-001	6.27164E-001	-2.94803E-002	-3.86932E-002	6.70476E-001	-4.29178E-002	-6.60290E-004	4.34851E-005	-6.00649E-003	-6.49447E-003	3.05277E-004	4.00680E-004	-6.94298E-003	4.44426E-004
	125	125	4.99060E-002	-1.01843E-002	0.00000E+000	-5.08260E-004	-1.00028E-001	3.80627E-002	3.32151E+001	11	...........	6.34037E-002	-4.26736E-003	5.80063E-001	6.27230E-001	-2.94811E-002	-3.86772E-002	6.70412E-001	-4.28806E-002	-6.45725E-004	4.34602E-005	-5.90756E-003	-6.38792E-003	3.00245E-004	3.93902E-004	-6.82770E-003	4.36710E-004
	126	126	4.99072E-002	-1.01774E-002	0.00000E+000	-5.07923E-004	-9.99587E-002	3.82457E-002	3.38626E+001	11	...........	6.37087E-002	-4.21639E-003	5.80097E-001	6.27366E-001	-2.94950E-002	-3.86976E-002	6.70538E-001	-4.29000E-002	-6.48387E-004	4.29117E-005	-5.90385E-003	-6.38493E-003	3.00181E-004	3.93840E-004	-6.82430E-003	4.36609E-004
	127	127	4.99066E-002	-1.00845E-002	0.00000E+000	-5.03285E-004	-9.90293E-002	3.83063E-002	3.41158E+001	11	...........	6.38040E-002	-4.08528E-003	5.79983E-001	6.27301E-001	-2.94999E-002	-3.86915E-002	6.70508E-001	-4.28856E-002	-6.43434E-004	4.11982E-005	-5.84886E-003	-6.32605E-003	2.97493E-004	3.90186E-004	-6.76176E-003	4.32481E-004
	128	128	4.99062E-002	-9.93090E-003	0.00000E+000	-4.95613E-004	-9.75000E-002	3.82173E-002	3.35795E+001	11	...........	6.36553E-002	-4.08681E-003	5.79839E-001	6.27257E-001	-2.95106E-002	-3.86682E-002	6.70491E-001	-4.29040E-002	-6.32154E-004	4.05857E-005	-5.75833E-003	-6.22922E-003	2.93066E-004	3.84010E-004	-6.65857E-003	4.26076E-004
	129	129	4.99064E-002	-9.76692E-003	0.00000E+000	-4.87432E-004	-9.58667E-002	3.82304E-002	3.33155E+001	11	...........	6.36789E-002	-4.10792E-003	5.79797E-001	6.27236E-001	-2.95040E-002	-3.86650E-002	6.70451E-001	-4.29675E-002	-6.21947E-004	4.01217E-005	-5.66283E-003	-6.12617E-003	2.88163E-004	3.77638E-004	-6.54824E-003	4.19660E-004
	130	130	4.99074E-002	-9.68516E-003	0.00000E+000	-4.83361E-004	-9.50520E-002	3.81528E-002	3.37776E+001	11	...........	6.35611E-002	-4.17375E-003	5.79731E-001	6.27271E-001	-2.95150E-002	-3.86796E-002	6.70395E-001	-4.30135E-002	-6.15599E-004	4.04234E-005	-5.61479E-003	-6.07521E-003	2.85857E-004	3.74618E-004	-6.49289E-003	4.16592E-004
	131	131	4.99076E-002	-9.66074E-003	0.00000E+000	-4.82144E-004	-9.48067E-002	3.82482E-002	3.38179E+001	11	...........	6.37176E-002	-4.23486E-003	5.79740E-001	6.27352E-001	-2.95126E-002	-3.86557E-002	6.70392E-001	-4.28910E-002	-6.15559E-004	4.09119E-005	-5.60071E-003	-6.06069E-003	2.85114E-004	3.73442E-004	-6.47648E-003	4.14358E-004
	132	132	4.99065E-002	-9.56563E-003	0.00000E+000	-4.77387E-004	-9.38633E-002	3.83349E-002	3.40160E+001	11	...........	6.38572E-002	-4.28222E-003	5.79668E-001	6.27378E-001	-2.95078E-002	-3.86400E-002	6.70380E-001	-4.28040E-002	-6.10835E-004	4.09622E-005	-5.54489E-003	-6.00127E-003	2.82261E-004	3.69616E-004	-6.41261E-003	4.09448E-004
	133	133	4.99050E-002	-9.37481E-003	0.00000E+000	-4.67850E-004	-9.19533E-002	3.81658E-002	3.36452E+001	11	...........	6.35832E-002	-4.37944E-003	5.79701E-001	6.27316E-001	-2.95025E-002	-3.86501E-002	6.70489E-001	-4.28678E-002	-5.96081E-004	4.10565E-005	-5.43458E-003	-5.88097E-003	2.76580E-004	3.62338E-004	-6.28571E-003	4.01877E-004
	134	134	4.99050E-002	-9.22815E-003	0.00000E+000	-4.60531E-004	-9.04973E-002	3.82044E-002	3.26448E+001	11	...........	6.37239E-002	-4.34556E-003	5.79536E-001	6.27383E-001	-2.94985E-002	-3.86565E-002	6.70482E-001	-4.29751E-002	-5.88054E-004	4.01014E-005	-5.34805E-003	-5.78959E-003	2.72216E-004	3.56728E-004	-6.18731E-003	3.96581E-004
	135	135	4.99097E-002	-9.18126E-003	0.00000E+000	-4.58234E-004	-9.00220E-002	3.83136E-002	3.38945E+001	11	...........	6.38137E-002	-4.28222E-003	5.79484E-001	6.27545E-001	-2.94981E-002	-3.86364E-002	6.70452E-001	-4.29085E-002	-5.85891E-004	3.93162E-005	-5.32039E-003	-5.76166E-003	2.70829E-004	3.54731E-004	-6.15560E-003	3.93954E-004
	136	136	4.99070E-002	-9.14654E-003	0.00000E+000	-4.56477E-004	-8.96767E-002	3.83012E-002	3.34635E+001	11	...........	6.37801E-002	-4.16028E-003	5.79458E-001	6.27579E-001	-2.94886E-002	-3.86496E-002	6.70481E-001	-4.29614E-002	-5.83368E-004	3.80522E-005	-5.30004E-003	-5.74018E-003	2.69719E-004	3.53510E-004	-6.13258E-003	3.92948E-004
	137	137	4.99075E-002	-8.96240E-003	0.00000E+000	-4.47291E-004	-8.78767E-002	3.82786E-002	3.39321E+001	11	...........	6.37721E-002	-4.28597E-003	5.79521E-001	6.27459E-001	-2.95046E-002	-3.86481E-002	6.70421E-001	-4.29506E-002	-5.71551E-004	3.84126E-005	-5.19390E-003	-5.62354E-003	2.64432E-004	3.46379E-004	-6.00858E-003	3.84940E-004
	138	138	4.99052E-002	-8.90494E-003	0.00000E+000	-4.44403E-004	-8.73027E-002	3.82452E-002	3.34776E+001	11	...........	6.37018E-002	-4.32708E-003	5.79713E-001	6.27513E-001	-2.95187E-002	-3.86622E-002	6.70316E-001	-4.28974E-002	-5.67261E-004	3.85324E-005	-5.16231E-003	-5.58797E-003	2.62863E-004	3.44285E-004	-5.96912E-003	3.81999E-004
	139	139	4.99052E-002	-8.74223E-003	0.00000E+000	-4.36283E-004	-8.56853E-002	3.82937E-002	3.27362E+001	11	...........	6.37712E-002	-4.31153E-003	5.79849E-001	6.27465E-001	-2.95114E-002	-3.86757E-002	6.70156E-001	-4.28183E-002	-5.57503E-004	3.76924E-005	-5.06917E-003	-5.48544E-003	2.57995E-004	3.38112E-004	-5.85866E-003	3.74328E-004
	140	140	4.99090E-002	-8.68020E-003	0.00000E+000	-4.33220E-004	-8.50673E-002	3.83572E-002	3.34854E+001	11	...........	6.39006E-002	-4.37333E-003	5.79998E-001	6.27269E-001	-2.95019E-002	-3.86735E-002	6.70164E-001	-4.30365E-002	-5.54670E-004	3.79614E-005	-5.03450E-003	-5.44482E-003	2.56083E-004	3.35694E-004	-5.81716E-003	3.73566E-004
	141	141	4.99067E-002	-8.63086E-003	0.00000E+000	-4.30738E-004	-8.45753E-002	3.82749E-002	3.38561E+001	11	...........	6.37639E-002	-4.39264E-003	5.79843E-001	6.27345E-001	-2.94811E-002	-3.86621E-002	6.70303E-001	-4.29912E-002	-5.50337E-004	3.79123E-005	-5.00454E-003	-5.41453E-003	2.54447E-004	3.33687E-004	-5.78530E-003	3.71052E-004
	142	142	4.99051E-002	-8.52595E-003	0.00000E+000	-4.25488E-004	-8.35313E-002	3.83758E-002	3.36269E+001	11	...........	6.39247E-002	-4.43861E-003	5.79950E-001	6.27357E-001	-2.95107E-002	-3.86500E-002	6.70314E-001	-4.28526E-002	-5.45019E-004	3.78434E-005	-4.94462E-003	-5.34882E-003	2.51607E-004	3.29528E-004	-5.71506E-003	3.65360E-004
	143	143	4.99090E-002	-8.37201E-003	0.00000E+000	-4.17839E-004	-8.19967E-002	3.83275E-002	3.32234E+001	11	...........	6.38529E-002	-4.41111E-003	5.79997E-001	6.27291E-001	-2.95172E-002	-3.86503E-002	6.70297E-001	-4.28521E-002	-5.34577E-004	3.69299E-005	-4.85574E-003	-5.25169E-003	2.47119E-004	3.23581E-004	-5.61173E-003	3.58758E-004
	144	144	4.99079E-002	-8.30122E-003	0.00000E+000	-4.14297E-004	-8.12967E-002	3.82247E-002	3.36223E+001	11	...........	6.36565E-002	-4.24694E-003	5.80064E-001	6.27274E-001	-2.94990E-002	-3.86562E-002	6.70425E-001	-4.28021E-002	-5.28427E-004	3.52548E-005	-4.81524E-003	-5.20714E-003	2.44878E-004	3.20894E-004	-5.56535E-003	3.55310E-004
	145	145	4.99065E-002	-8.29916E-003	0.00000E+000	-4.14182E-004	-8.12767E-002	3.83835E-002	3.41454E+001	11	...........	6.39362E-002	-4.22389E-003	5.80115E-001	6.27288E-001	-2.95144E-002	-3.86640E-002	6.70485E-001	-4.28574E-002	-5.30617E-004	3.50547E-005	-4.81447E-003	-5.20596E-003	2.44945E-004	3.20879E-004	-5.56446E-003	3.55680E-004
	146	146	4.99064E-002	-8.16910E-003	0.00000E+000	-4.07691E-004	-7.99820E-002	3.83216E-002	3.37143E+001	11	...........	6.38436E-002	-4.32403E-003	5.80135E-001	6.27370E-001	-2.94815E-002	-3.86886E-002	6.70468E-001	-4.28465E-002	-5.21545E-004	3.53234E-005	-4.73918E-003	-5.12505E-003	2.40837E-004	3.16051E-004	-5.47712E-003	3.50017E-004
	147	147	4.99059E-002	-8.04642E-003	0.00000E+000	-4.01563E-004	-7.87600E-002	3.84152E-002	3.32581E+001	11	...........	6.39958E-002	-4.15750E-003	5.80165E-001	6.27637E-001	-2.94935E-002	-3.86846E-002	6.70588E-001	-4.28489E-002	-5.14937E-004	3.34530E-005	-4.66825E-003	-5.05023E-003	2.37317E-004	3.11272E-004	-5.39583E-003	3.44780E-004
	148	148	4.99077E-002	-7.93806E-003	0.00000E+000	-3.96170E-004	-7.76820E-002	3.82564E-002	3.29150E+001	11	...........	6.37183E-002	-4.17083E-003	5.80101E-001	6.27681E-001	-2.95283E-002	-3.86782E-002	6.70528E-001	-4.28722E-002	-5.05800E-004	3.31083E-005	-4.60487E-003	-4.98257E-003	2.34398E-004	3.07030E-004	-5.32269E-003	3.40322E-004
	149	149	4.99080E-002	-7.91782E-003	0.00000E+000	-3.95163E-004	-7.74760E-002	3.83904E-002	3.37883E+001	11	...........	6.39485E-002	-4.14361E-003	5.80074E-001	6.27602E-001	-2.95439E-002	-3.86671E-002	6.70508E-001	-4.28396E-002	-5.06333E-004	3.28084E-005	-4.59292E-003	-4.96924E-003	2.33923E-004	3.06159E-004	-5.30897E-003	3.39196E-004
	150	150	4.99073E-002	-7.89154E-003	0.00000E+000	-3.93846E-004	-7.72147E-002	3.84443E-002	3.43065E+001	11	...........	6.40381E-002	-4.12833E-003	5.80064E-001	6.27778E-001	-2.95233E-002	-3.86603E-002	6.70434E-001	-4.28492E-002	-5.05359E-004	3.25789E-005	-4.57760E-003	-4.95414E-003	2.32985E-004	3.05089E-004	-5.29075E-003	3.38146E-004
	151	151	4.99071E-002	-7.77620E-003	0.00000E+000	-3.88087E-004	-7.60840E-002	3.82767E-002	3.36437E+001	11	...........	6.37669E-002	-4.14139E-003	5.80159E-001	6.27848E-001	-2.94879E-002	-3.86450E-002	6.70485E-001	-4.29053E-002	-4.95864E-004	3.22043E-005	-4.51143E-003	-4.88227E-003	2.29304E-004	3.00511E-004	-5.21382E-003	3.33640E-004
	152	152	4.99066E-002	-7.67779E-003	0.00000E+000	-3.83173E-004	-7.51053E-002	3.84965E-002	3.38532E+001	11	...........	6.41283E-002	-4.27917E-003	5.80321E-001	6.27878E-001	-2.94661E-002	-3.86514E-002	6.70623E-001	-4.29472E-002	-4.92364E-004	3.28546E-005	-4.45559E-003	-4.82072E-003	2.26235E-004	2.96757E-004	-5.14891E-003	3.29740E-004
	153	153	4.99056E-002	-7.54505E-003	0.00000E+000	-3.76540E-004	-7.37767E-002	3.82197E-002	3.32554E+001	11	...........	6.36683E-002	-4.21583E-003	5.80273E-001	6.27837E-001	-2.94636E-002	-3.86387E-002	6.70551E-001	-4.29375E-002	-4.80381E-004	3.18087E-005	-4.37819E-003	-4.73706E-003	2.22304E-004	2.91531E-004	-5.05934E-003	3.23965E-004
	154	154	4.99092E-002	-7.57260E-003	0.00000E+000	-3.77942E-004	-7.40527E-002	3.85275E-002	3.40156E+001	11	...........	6.41986E-002	-4.13486E-003	5.80268E-001	6.27935E-001	-2.94728E-002	-3.86387E-002	6.70549E-001	-4.29410E-002	-4.86150E-004	3.13116E-005	-4.39414E-003	-4.75510E-003	2.23186E-004	2.92596E-004	-5.07780E-003	3.25175E-004
	155	155	4.99066E-002	-7.47235E-003	0.00000E+000	-3.72920E-004	-7.30520E-002	3.83414E-002	3.43153E+001	11	...........	6.38851E-002	-4.27542E-003	5.80107E-001	6.27836E-001	-2.94706E-002	-3.86722E-002	6.70578E-001	-4.28918E-002	-4.77372E-004	3.19474E-005	-4.33476E-003	-4.69141E-003	2.20214E-004	2.88972E-004	-5.01079E-003	3.20502E-004
	156	156	4.99074E-002	-7.39867E-003	0.00000E+000	-3.69248E-004	-7.23207E-002	3.84428E-002	3.40634E+001	11	...........	6.40246E-002	-4.32417E-003	5.80120E-001	6.27697E-001	-2.94799E-002	-3.86828E-002	6.70646E-001	-4.30290E-002	-4.73697E-004	3.19931E-005	-4.29211E-003	-4.64412E-003	2.18112E-004	2.86201E-004	-4.96189E-003	3.18358E-004
	157	157	4.99067E-002	-7.30693E-003	0.00000E+000	-3.64665E-004	-7.14033E-002	3.84517E-002	3.37391E+001	11	...........	6.40600E-002	-4.22667E-003	5.80287E-001	6.27658E-001	-2.94761E-002	-3.86819E-002	6.70563E-001	-4.29890E-002	-4.68082E-004	3.08840E-005	-4.24011E-003	-4.58625E-003	2.15380E-004	2.82646E-004	-4.89976E-003	3.14118E-004
	158	158	4.99061E-002	-7.17005E-003	0.00000E+000	-3.57829E-004	-7.00360E-002	3.82554E-002	3.31537E+001	11	...........	6.37206E-002	-4.28111E-003	5.80268E-001	6.27676E-001	-2.94676E-002	-3.86656E-002	6.70435E-001	-4.29918E-002	-4.56879E-004	3.06958E-005	-4.16055E-003	-4.50047E-003	2.11284E-004	2.77234E-004	-4.80705E-003	3.08253E-004
	159	159	4.99090E-002	-7.19277E-003	0.00000E+000	-3.58984E-004	-7.02580E-002	3.85817E-002	3.46642E+001	11	...........	6.42831E-002	-4.39833E-003	5.80309E-001	6.27731E-001	-2.94781E-002	-3.86494E-002	6.70602E-001	-4.29511E-002	-4.62373E-004	3.16362E-005	-4.17403E-003	-4.51513E-003	2.12029E-004	2.77997E-004	-4.82349E-003	3.08938E-004
	160	160	4.99063E-002	-7.13362E-003	0.00000E+000	-3.56013E-004	-6.96733E-002	3.84317E-002	3.37918E+001	11	...........	6.40226E-002	-4.24278E-003	5.80333E-001	6.27651E-001	-2.94646E-002	-3.86360E-002	6.70575E-001	-4.28121E-002	-4.56713E-004	3.02664E-005	-4.13988E-003	-4.47743E-003	2.10189E-004	2.75615E-004	-4.78363E-003	3.05405E-004
	161	161	4.99073E-002	-6.99118E-003	0.00000E+000	-3.48911E-004	-6.82560E-002	3.83279E-002	3.42173E+001	11	...........	6.38643E-002	-4.11069E-003	5.80289E-001	6.27616E-001	-2.94407E-002	-3.86375E-002	6.70536E-001	-4.29146E-002	-4.46487E-004	2.87386E-005	-4.05690E-003	-4.38778E-003	2.05825E-004	2.70122E-004	-4.68784E-003	3.00024E-004
	162	162	4.99072E-002	-6.92320E-003	0.00000E+000	-3.45517E-004	-6.75747E-002	3.84923E-002	3.36392E+001	11	...........	6.41217E-002	-4.26694E-003	5.80287E-001	6.27645E-001	-2.94429E-002	-3.86296E-002	6.70532E-001	-4.29110E-002	-4.43927E-004	2.95409E-005	-4.01744E-003	-4.34532E-003	2.03839E-004	2.67440E-004	-4.64223E-003	2.97081E-004
	163	163	4.99073E-002	-6.83913E-003	0.00000E+000	-3.41322E-004	-6.67387E-002	3.82671E-002	3.40538E+001	11	...........	6.37651E-002	-4.13611E-003	5.80126E-001	6.27563E-001	-2.94546E-002	-3.86297E-002	6.70518E-001	-4.29274E-002	-4.36098E-004	2.82874E-005	-3.96756E-003	-4.29198E-003	2.01444E-004	2.64194E-004	-4.58576E-003	2.93586E-004
	164	164	4.99056E-002	-6.83687E-003	0.00000E+000	-3.41198E-004	-6.67127E-002	3.85442E-002	3.38634E+001	11	...........	6.42201E-002	-4.32861E-003	5.80124E-001	6.27481E-001	-2.94614E-002	-3.86231E-002	6.70514E-001	-4.30281E-002	-4.39064E-004	2.95941E-005	-3.96623E-003	-4.29000E-003	2.01424E-004	2.64061E-004	-4.58421E-003	2.94177E-004
	165	165	4.99087E-002	-6.76116E-003	0.00000E+000	-3.37441E-004	-6.59633E-002	3.84768E-002	3.43987E+001	11	...........	6.41006E-002	-4.22722E-003	5.80192E-001	6.27305E-001	-2.94549E-002	-3.86172E-002	6.70471E-001	-4.30915E-002	-4.33394E-004	2.85809E-005	-3.92277E-003	-4.24131E-003	1.99149E-004	2.61097E-004	-4.53316E-003	2.91349E-004
	166	166	4.99080E-002	-6.68099E-003	0.00000E+000	-3.33435E-004	-6.51673E-002	3.83242E-002	3.42562E+001	11	...........	6.38572E-002	-4.10000E-003	5.80236E-001	6.27259E-001	-2.94443E-002	-3.85808E-002	6.70548E-001	-4.30208E-002	-4.26630E-004	2.73921E-005	-3.87655E-003	-4.19071E-003	1.96717E-004	2.57758E-004	-4.47992E-003	2.87422E-004
	167	167	4.99066E-002	-6.57613E-003	0.00000E+000	-3.28192E-004	-6.41180E-002	3.84197E-002	3.38742E+001	11	...........	6.40103E-002	-4.03972E-003	5.80197E-001	6.27232E-001	-2.94046E-002	-3.85833E-002	6.70525E-001	-4.30035E-002	-4.20940E-004	2.65657E-005	-3.81545E-003	-4.12476E-003	1.93368E-004	2.53729E-004	-4.40946E-003	2.82796E-004
	168	168	4.99068E-002	-6.51102E-003	0.00000E+000	-3.24944E-004	-6.34720E-002	3.83970E-002	3.38392E+001	11	...........	6.39722E-002	-4.24750E-003	5.80115E-001	6.27245E-001	-2.94019E-002	-3.85822E-002	6.70651E-001	-4.30451E-002	-4.16524E-004	2.76556E-005	-3.77714E-003	-4.08400E-003	1.91437E-004	2.51210E-004	-4.36663E-003	2.80268E-004
	169	169	4.99083E-002	-6.47112E-003	0.00000E+000	-3.22962E-004	-6.30847E-002	3.84583E-002	3.38298E+001	11	...........	6.40799E-002	-4.24111E-003	5.80076E-001	6.27391E-001	-2.94189E-002	-3.85778E-002	6.70781E-001	-4.30861E-002	-4.14668E-004	2.74447E-005	-3.75374E-003	-4.05992E-003	1.90373E-004	2.49641E-004	-4.34070E-003	2.78815E-004
	170	170	4.99066E-002	-6.40830E-003	0.00000E+000	-3.19817E-004	-6.24693E-002	3.84379E-002	3.42434E+001	11	...........	6.40351E-002	-4.18819E-003	5.80074E-001	6.27326E-001	-2.94181E-002	-3.85586E-002	6.70627E-001	-4.31096E-002	-4.10357E-004	2.68392E-005	-3.71729E-003	-4.02009E-003	1.88520E-004	2.47095E-004	-4.29758E-003	2.76259E-004
	171	171	4.99072E-002	-6.33741E-003	0.00000E+000	-3.16282E-004	-6.17733E-002	3.85422E-002	3.47268E+001	11	...........	6.41997E-002	-4.27056E-003	5.80063E-001	6.27308E-001	-2.94192E-002	-3.85325E-002	6.70620E-001	-4.29212E-002	-4.06860E-004	2.70642E-005	-3.67609E-003	-3.97551E-003	1.86441E-004	2.44196E-004	-4.24999E-003	2.72009E-004
	172	172	4.99072E-002	-6.28886E-003	0.00000E+000	-3.13859E-004	-6.12887E-002	3.83987E-002	3.38883E+001	11	...........	6.39814E-002	-4.35861E-003	5.79942E-001	6.27397E-001	-2.94285E-002	-3.85458E-002	6.70435E-001	-4.28879E-002	-4.02370E-004	2.74107E-005	-3.64717E-003	-3.94561E-003	1.85071E-004	2.42409E-004	-4.21627E-003	2.69716E-004
	173	173	4.99069E-002	-6.22644E-003	0.00000E+000	-3.10742E-004	-6.06633E-002	3.85063E-002	3.43886E+001	11	...........	6.41589E-002	-4.30639E-003	5.79898E-001	6.27426E-001	-2.94356E-002	-3.85757E-002	6.70436E-001	-4.29615E-002	-3.99482E-004	2.68135E-005	-3.61070E-003	-3.90663E-003	1.83279E-004	2.40189E-004	-4.17443E-003	2.67497E-004
	174	174	4.99084E-002	-6.19532E-003	0.00000E+000	-3.09198E-004	-6.03527E-002	3.85054E-002	3.42738E+001	11	...........	6.41453E-002	-4.26028E-003	5.80040E-001	6.27497E-001	-2.94360E-002	-3.85617E-002	6.70609E-001	-4.28901E-002	-3.97401E-004	2.63938E-005	-3.59353E-003	-3.88755E-003	1.82365E-004	2.38902E-004	-4.15464E-003	2.65718E-004
	175	175	4.99069E-002	-6.12952E-003	0.00000E+000	-3.05906E-004	-5.96960E-002	3.84919E-002	3.47876E+001	11	...........	6.41107E-002	-4.22861E-003	5.80024E-001	6.27549E-001	-2.94344E-002	-3.85619E-002	6.70614E-001	-4.29856E-002	-3.92968E-004	2.59194E-005	-3.55527E-003	-3.84658E-003	1.80419E-004	2.36366E-004	-4.11054E-003	2.63481E-004
	176	176	4.99070E-002	-6.05182E-003	0.00000E+000	-3.02028E-004	-5.89227E-002	3.84854E-002	3.35768E+001	11	...........	6.41087E-002	-4.27139E-003	5.79973E-001	6.27480E-001	-2.94375E-002	-3.85476E-002	6.70537E-001	-4.29036E-002	-3.87974E-004	2.58497E-005	-3.50989E-003	-3.79740E-003	1.78150E-004	2.33283E-004	-4.05796E-003	2.59645E-004
	177	177	4.99083E-002	-5.98350E-003	0.00000E+000	-2.98626E-004	-5.82420E-002	3.84894E-002	3.43237E+001	11	...........	6.41119E-002	-4.17403E-003	5.79996E-001	6.27263E-001	-2.94264E-002	-3.85478E-002	6.70487E-001	-4.28444E-002	-3.83614E-004	2.49753E-005	-3.47041E-003	-3.75323E-003	1.76073E-004	2.30651E-004	-4.01186E-003	2.56360E-004
	178	178	4.99073E-002	-5.96577E-003	0.00000E+000	-2.97736E-004	-5.80673E-002	3.84383E-002	3.39615E+001	11	...........	6.40294E-002	-4.11389E-003	5.79995E-001	6.27239E-001	-2.94351E-002	-3.85562E-002	6.70545E-001	-4.29342E-002	-3.81985E-004	2.45425E-005	-3.46012E-003	-3.74196E-003	1.75603E-004	2.30018E-004	-4.00032E-003	2.56135E-004
	179	179	4.99066E-002	-5.90519E-003	0.00000E+000	-2.94708E-004	-5.74613E-002	3.86004E-002	3.41749E+001	11	...........	6.43112E-002	-4.09042E-003	5.80032E-001	6.27287E-001	-2.94343E-002	-3.85554E-002	6.70600E-001	-4.29350E-002	-3.79770E-004	2.41547E-005	-3.42520E-003	-3.70425E-003	1.73815E-004	2.27677E-004	-3.96002E-003	2.53539E-004
	180	180	4.99072E-002	-5.78371E-003	0.00000E+000	-2.88649E-004	-5.62513E-002	3.84243E-002	3.35811E+001	11	...........	6.40088E-002	-4.14028E-003	5.80077E-001	6.27240E-001	-2.94242E-002	-3.85658E-002	6.70486E-001	-4.30076E-002	-3.70208E-004	2.39462E-005	-3.35500E-003	-3.62778E-003	1.70181E-004	2.23054E-004	-3.87790E-003	2.48744E-004
	181	181	4.99078E-002	-5.78287E-003	0.00000E+000	-2.88610E-004	-5.62453E-002	3.85680E-002	3.40374E+001	11	...........	6.42437E-002	-4.21597E-003	5.80195E-001	6.27211E-001	-2.94271E-002	-3.85592E-002	6.70448E-001	-4.30710E-002	-3.71513E-004	2.43804E-005	-3.35519E-003	-3.62708E-003	1.70173E-004	2.22983E-004	-3.87711E-003	2.49074E-004
	182	182	4.99076E-002	-5.74856E-003	0.00000E+000	-2.86897E-004	-5.59087E-002	3.85299E-002	3.42741E+001	11	...........	6.41907E-002	-4.23153E-003	5.80360E-001	6.27170E-001	-2.94396E-002	-3.85593E-002	6.70581E-001	-4.30397E-002	-3.69004E-004	2.43252E-005	-3.33623E-003	-3.60532E-003	1.69235E-004	2.21660E-004	-3.85487E-003	2.47416E-004
	183	183	4.99069E-002	-5.67356E-003	0.00000E+000	-2.83150E-004	-5.51600E-002	3.85515E-002	3.41046E+001	11	...........	6.42212E-002	-4.33278E-003	5.80314E-001	6.27156E-001	-2.94468E-002	-3.85606E-002	6.70472E-001	-4.29365E-002	-3.64363E-004	2.45823E-005	-3.29245E-003	-3.55821E-003	1.67068E-004	2.18776E-004	-3.80396E-003	2.43603E-004
	184	184	4.99081E-002	-5.61288E-003	0.00000E+000	-2.80128E-004	-5.45493E-002	3.85453E-002	3.42694E+001	11	...........	6.42203E-002	-4.29167E-003	5.80327E-001	6.27196E-001	-2.94392E-002	-3.85600E-002	6.70457E-001	-4.28387E-002	-3.60461E-004	2.40886E-005	-3.25730E-003	-3.52038E-003	1.65239E-004	2.16433E-004	-3.76320E-003	2.40449E-004
	185	185	4.99075E-002	-5.55988E-003	0.00000E+000	-2.77480E-004	-5.40227E-002	3.84174E-002	3.41443E+001	11	...........	6.39925E-002	-4.28875E-003	5.80274E-001	6.27004E-001	-2.94162E-002	-3.85612E-002	6.70445E-001	-4.28974E-002	-3.55791E-004	2.38449E-005	-3.22625E-003	-3.48607E-003	1.63551E-004	2.14396E-004	-3.72760E-003	2.38504E-004
	186	186	4.99082E-002	-5.55034E-003	0.00000E+000	-2.77008E-004	-5.39233E-002	3.85963E-002	3.41099E+001	11	...........	6.42985E-002	-4.32611E-003	5.80270E-001	6.26969E-001	-2.94024E-002	-3.85487E-002	6.70511E-001	-4.30008E-002	-3.56878E-004	2.40114E-005	-3.22070E-003	-3.47989E-003	1.63193E-004	2.13959E-004	-3.72157E-003	2.38669E-004
	187	187	4.99066E-002	-5.51046E-003	0.00000E+000	-2.75008E-004	-5.35267E-002	3.86022E-002	3.38536E+001	11	...........	6.43140E-002	-4.37681E-003	5.80148E-001	6.26921E-001	-2.93843E-002	-3.85219E-002	6.70564E-001	-4.29935E-002	-3.54400E-004	2.41182E-005	-3.19688E-003	-3.45463E-003	1.61921E-004	2.12274E-004	-3.69512E-003	2.36914E-004
	188	188	4.99072E-002	-5.41380E-003	0.00000E+000	-2.70187E-004	-5.25667E-002	3.85282E-002	3.41453E+001	11	...........	6.41810E-002	-4.29458E-003	5.79917E-001	6.26715E-001	-2.94006E-002	-3.85197E-002	6.70565E-001	-4.30524E-002	-3.47463E-004	2.32500E-005	-3.13955E-003	-3.39291E-003	1.59169E-004	2.08538E-004	-3.63030E-003	2.33077E-004
	189	189	4.99076E-002	-5.36770E-003	0.00000E+000	-2.67889E-004	-5.21100E-002	3.85072E-002	3.36861E+001	11	...........	6.41572E-002	-4.36208E-003	5.80064E-001	6.26685E-001	-2.93801E-002	-3.85421E-002	6.70643E-001	-4.29671E-002	-3.44377E-004	2.34143E-005	-3.11361E-003	-3.36386E-003	1.57704E-004	2.06882E-004	-3.59981E-003	2.30634E-004
	190	190	4.99080E-002	-5.35082E-003	0.00000E+000	-2.67049E-004	-5.19380E-002	3.86855E-002	3.47220E+001	11	...........	6.44431E-002	-4.41611E-003	5.79925E-001	6.26740E-001	-2.94197E-002	-3.85594E-002	6.70555E-001	-4.29279E-002	-3.44823E-004	2.36298E-005	-3.10308E-003	-3.35358E-003	1.57420E-004	2.06325E-004	-3.58802E-003	2.29700E-004
	191	191	4.99069E-002	-5.28254E-003	0.00000E+000	-2.63636E-004	-5.12613E-002	3.85288E-002	3.40301E+001	11	...........	6.41886E-002	-4.35389E-003	5.79918E-001	6.26692E-001	-2.94332E-002	-3.85707E-002	6.70594E-001	-4.28926E-002	-3.39079E-004	2.29996E-005	-3.06344E-003	-3.31053E-003	1.55482E-004	2.03751E-004	-3.54244E-003	2.26582E-004
	192	192	4.99074E-002	-5.23094E-003	0.00000E+000	-2.61063E-004	-5.07633E-002	3.85886E-002	3.42829E+001	11	...........	6.42843E-002	-4.39153E-003	5.79910E-001	6.26824E-001	-2.94247E-002	-3.85817E-002	6.70515E-001	-4.28606E-002	-3.36268E-004	2.29718E-005	-3.03348E-003	-3.27888E-003	1.53919E-004	2.01819E-004	-3.50743E-003	2.24201E-004
	193	193	4.99067E-002	-5.15769E-003	0.00000E+000	-2.57403E-004	-5.00367E-002	3.85992E-002	3.30743E+001	11	...........	6.43000E-002	-4.45069E-003	5.79908E-001	6.26806E-001	-2.94276E-002	-3.85762E-002	6.70520E-001	-4.29824E-002	-3.31639E-004	2.29553E-005	-2.99099E-003	-3.23287E-003	1.51779E-004	1.98964E-004	-3.45833E-003	2.21690E-004
	194	194	4.99083E-002	-5.08248E-003	0.00000E+000	-2.53658E-004	-4.92907E-002	3.84452E-002	3.28909E+001	11	...........	6.40554E-002	-4.21069E-003	5.79835E-001	6.26789E-001	-2.94512E-002	-3.85779E-002	6.70458E-001	-4.30869E-002	-3.25561E-004	2.14008E-005	-2.94700E-003	-3.18564E-003	1.49685E-004	1.96072E-004	-3.40759E-003	2.18989E-004
	195	194.308	4.99045E-002	-5.08151E-003	0.00000E+000	-2.53590E-004	-4.92800E-002	3.86511E-002	3.34188E+001	11	...........	6.44018E-002	-4.07703E-003	5.79848E-001	6.26834E-001	-2.93730E-002	-3.85982E-002	6.70440E-001	-4.30203E-002	-3.27258E-004	2.07175E-005	-2.94650E-003	-3.18526E-003	1.49259E-004	1.96137E-004	-3.40685E-003	2.18608E-004
STARTTIMEOFFSET	QUANT	745260.9	Start Time Offset (s)
