EXPLAIN
TAG	PWR800_DISCHARGE
TITLE	LABEL	PWR Discharge	Test Identifier
DATE	LABEL	10/15/2022	Date
TIME	LABEL	20:55:11	Time
NOTES	NOTES	1	Notes...
	
PSTAT	PSTAT	REF3000-21114	Potentiostat
CAPACITY	QUANT	5.30000E-002	Capacity (A-hr)
CELLTYPE	SELECTOR	1	Cell Type
WORKINGCONNECTION	SELECTOR	0	Working Connection
MAXDISCHARGETIME	VARIABLEANDUNITS	7.20000E+003	s	2.00000E+000	hour(s)	Max Discharge Time
DISCHARGEMODE	MULTIPARAM	0	1.00000E-001	Discharge Mode	Constant Current	Amp(s)
VOLTAGEFINISH	TWOPARAM	T	5.00000E-003	7.20000E+003	Voltage Finish	I (A) <	Max Time(s)
SAMPLETIME	QUANT	1.00000E+000	Sample Period (s)
DISCHARGESTOPAT1	MULTIPARAM	1	5.00000E-002	Stop At 1	|Voltage| < Limit	V
DISCHARGESTOPAT2	MULTIPARAM	0	0.00000E+000	Stop At 2	None	N/A
AESELECTOR	AESELECTOR	0x1	T	Set Limits	AE Channels
AESBHCSELECTOR	TOGGLE	F	Save Both Half Cells
IRCOMP	TOGGLE	F	IR Measure
EOC	QUANT	0.5535681	Open Circuit (V)
SEQUENCER	TOGGLE	TRUE	Run as Sequence
PSTATMODEL	IQUANT	5	Pstat Model
PSTATSECTION	LABEL	REF3000-21114	Pstat Section
PSTATSERIALNO	LABEL	21114	Pstat Serial Number
CTRLMODE	IQUANT	0	Control Mode
ELECTROMETER	IQUANT	0	RE=0 or CS=1
IESTAB	IQUANT	0	I/E Stability
CASPEED	IQUANT	4	Control Amp Speed
CONVENTION	IQUANT	1	Current Convention
ICHRANGE	IQUANT	2	Ich Range
ICHRANGEMODE	TOGGLE	T	Ich Auto Range
ICHOFFSETENABLE	TOGGLE	F	Ich Offset Enable
ICHOFFSET	QUANT	0	Ich Offset (V)
ICHFILTER	IQUANT	1	Ich Filter
VCHRANGE	IQUANT	3	Vch Range
VCHRANGEMODE	TOGGLE	T	Vch Auto Range
VCHOFFSETENABLE	TOGGLE	F	Vch Offset Enable
VCHOFFSET	QUANT	0	Vch Offset (V)
VCHFILTER	IQUANT	1	Vch Filter
ACHRANGE	IQUANT	2	Ach Range
ACHOFFSETENABLE	TOGGLE	F	Ach Offset Enable
ACHOFFSET	QUANT	0	Ach Offset (V)
ACHFILTER	IQUANT	1	Ach Filter
IERANGELOWERLIMIT	IQUANT	9	I/E Range Lower Limit
IERANGEMODE	TOGGLE	F	I/E AutoRange
IERANGE	IQUANT	9	I/E Range
POSFEEDENABLE	TOGGLE	F	Positive Feedback IR Comp
POSFEEDRESISTANCE	QUANT	0	Positive Feedback Resistance (ohm)
ACHSELECT	IQUANT	1	Ach Select
SENSECABLEID	IQUANT	13	Sense Cable ID
PWRCABLEID	IQUANT	13	Power Cable ID
DCCALDATE	LABEL		DC Calibration Date
ACCALDATE	LABEL		AC Calibration Date
THERMOSELECT	IQUANT	1	Thermo Select
FRAMEWORKVERSION	LABEL	7.8.6	Framework Version
INSTRUMENTVERSION	LABEL	4.50	Instrument Version
COMPLIANCEVOLTAGE	IQUANT	0	Compliance Voltage
CURVE	TABLE	148
	Pt	T	Vf	Im	Vu	Pwr	Sig	Ach	Temp	IERange	Over	Vf1	Vf2	Vf3	Vf4	Vf5	Vf6	Vf7	Vf8	Pwr1	Pwr2	Pwr3	Pwr4	Pwr5	Pwr6	Pwr7	Pwr8
	#	s	V	A	V	W	V	V	deg C	#	bits	V	V	V	V	V	V	V	V	W	W	W	W	W	W	W	W
	0	1	3.14765E-001	-1.00097E-001	0.00000E+000	-3.15072E-002	-9.94000E-001	3.58038E-002	3.00009E+001	11	...........	5.93564E-002	-4.16708E-003	5.77734E-001	6.04676E-001	-2.85576E-002	-3.89244E-002	6.64686E-001	-4.31746E-002	-5.94142E-003	4.17114E-004	-5.78297E-002	-6.05265E-002	2.85854E-003	3.89623E-003	-6.65333E-002	4.32166E-003
	1	2	2.20871E-001	-1.00098E-001	0.00000E+000	-2.21087E-002	-9.94000E-001	3.57920E-002	2.91777E+001	11	...........	5.93590E-002	-4.14208E-003	5.77805E-001	6.04561E-001	-2.85393E-002	-3.88964E-002	6.64688E-001	-4.32425E-002	-5.94171E-003	4.14613E-004	-5.78370E-002	-6.05153E-002	2.85672E-003	3.89344E-003	-6.65338E-002	4.32848E-003
	2	3	1.42765E-001	-1.00098E-001	0.00000E+000	-1.42905E-002	-9.94000E-001	3.57511E-002	2.85904E+001	11	...........	5.92939E-002	-4.19444E-003	5.77864E-001	6.04434E-001	-2.85394E-002	-3.88835E-002	6.64724E-001	-4.32449E-002	-5.93521E-003	4.19856E-004	-5.78431E-002	-6.05027E-002	2.85674E-003	3.89216E-003	-6.65376E-002	4.32873E-003
	3	3.86	7.78728E-002	-1.00098E-001	0.00000E+000	-7.79493E-003	-9.94000E-001	3.57093E-002	2.78520E+001	11	...........	5.92569E-002	-4.29651E-003	5.77800E-001	6.04239E-001	-2.85636E-002	-3.88711E-002	6.64761E-001	-4.31284E-002	-5.93152E-003	4.30073E-004	-5.78368E-002	-6.04833E-002	2.85917E-003	3.89093E-003	-6.65414E-002	4.31708E-003
	4	4	4.93078E-002	-9.67048E-002	0.00000E+000	-4.76830E-003	-9.60238E-001	3.58304E-002	2.74795E+001	11	...........	5.94137E-002	-4.38690E-003	5.77868E-001	6.04330E-001	-2.83978E-002	-3.89544E-002	6.64781E-001	-4.32440E-002	-5.74559E-003	4.24235E-004	-5.58826E-002	-5.84416E-002	2.74620E-003	3.76707E-003	-6.42875E-002	4.18191E-003
	5	5	4.95610E-002	-7.63266E-002	0.00000E+000	-3.78282E-003	-7.57638E-001	3.58677E-002	2.84586E+001	11	...........	5.94874E-002	-4.38139E-003	5.77932E-001	6.04441E-001	-2.85589E-002	-3.88933E-002	6.64711E-001	-4.32531E-002	-4.54047E-003	3.34417E-004	-4.41116E-002	-4.61349E-002	2.17980E-003	2.96860E-003	-5.07351E-002	3.30136E-003
	6	6	4.97658E-002	-5.64455E-002	0.00000E+000	-2.80906E-003	-5.59967E-001	3.59511E-002	2.90050E+001	11	...........	5.96075E-002	-4.43403E-003	5.77935E-001	6.04556E-001	-2.85718E-002	-3.88924E-002	6.64610E-001	-4.32526E-002	-3.36457E-003	2.50281E-004	-3.26218E-002	-3.41245E-002	1.61275E-003	2.19530E-003	-3.75142E-002	2.44142E-003
	7	7	4.98663E-002	-4.59494E-002	0.00000E+000	-2.29132E-003	-4.55616E-001	3.60173E-002	3.01497E+001	11	...........	5.97001E-002	-4.45708E-003	5.77840E-001	6.04501E-001	-2.85987E-002	-3.88869E-002	6.64657E-001	-4.33892E-002	-2.74318E-003	2.04800E-004	-2.65514E-002	-2.77764E-002	1.31409E-003	1.78683E-003	-3.05406E-002	1.99370E-003
	8	8	4.98782E-002	-3.94753E-002	0.00000E+000	-1.96896E-003	-3.91257E-001	3.60495E-002	3.06771E+001	11	...........	5.97510E-002	-4.50222E-003	5.77836E-001	6.04344E-001	-2.85993E-002	-3.88440E-002	6.64629E-001	-4.33476E-002	-2.35869E-003	1.77727E-004	-2.28103E-002	-2.38566E-002	1.12897E-003	1.53338E-003	-2.62364E-002	1.71116E-003
	9	9	4.99169E-002	-3.51287E-002	0.00000E+000	-1.75351E-003	-3.48029E-001	3.61397E-002	3.12628E+001	11	...........	5.98994E-002	-4.50306E-003	5.77813E-001	6.04431E-001	-2.85628E-002	-3.88378E-002	6.64680E-001	-4.33700E-002	-2.10419E-003	1.58186E-004	-2.02978E-002	-2.12328E-002	1.00337E-003	1.36432E-003	-2.33493E-002	1.52353E-003
	10	10	4.99180E-002	-3.19624E-002	0.00000E+000	-1.59550E-003	-3.16547E-001	3.61831E-002	3.10402E+001	11	...........	5.99776E-002	-4.27653E-003	5.77786E-001	6.04449E-001	-2.85606E-002	-3.88274E-002	6.64686E-001	-4.32675E-002	-1.91703E-003	1.36688E-004	-1.84674E-002	-1.93196E-002	9.12864E-004	1.24102E-003	-2.12450E-002	1.38293E-003
	11	11	4.99378E-002	-2.97620E-002	0.00000E+000	-1.48625E-003	-2.94690E-001	3.61458E-002	3.08965E+001	11	...........	5.98996E-002	-4.28653E-003	5.77765E-001	6.04295E-001	-2.85656E-002	-3.88562E-002	6.64749E-001	-4.32532E-002	-1.78273E-003	1.27576E-004	-1.71954E-002	-1.79850E-002	8.50168E-004	1.15644E-003	-1.97843E-002	1.28730E-003
	12	12	4.99444E-002	-2.85173E-002	0.00000E+000	-1.42428E-003	-2.82311E-001	3.63497E-002	3.17150E+001	11	...........	6.02368E-002	-4.35667E-003	5.77857E-001	6.04216E-001	-2.85403E-002	-3.88487E-002	6.64662E-001	-4.32772E-002	-1.71779E-003	1.24240E-004	-1.64789E-002	-1.72306E-002	8.13890E-004	1.10786E-003	-1.89543E-002	1.23415E-003
	13	13	4.99353E-002	-2.70344E-002	0.00000E+000	-1.34997E-003	-2.67565E-001	3.62499E-002	3.18195E+001	11	...........	6.00844E-002	-4.43556E-003	5.78075E-001	6.04289E-001	-2.85244E-002	-3.88217E-002	6.64605E-001	-4.32783E-002	-1.62435E-003	1.19913E-004	-1.56279E-002	-1.63366E-002	7.71141E-004	1.04952E-003	-1.79672E-002	1.17000E-003
	14	14	4.99440E-002	-2.60722E-002	0.00000E+000	-1.30215E-003	-2.57997E-001	3.63909E-002	3.19408E+001	11	...........	6.03225E-002	-4.29125E-003	5.77957E-001	6.04209E-001	-2.85078E-002	-3.88196E-002	6.64588E-001	-4.33821E-002	-1.57274E-003	1.11882E-004	-1.50686E-002	-1.57531E-002	7.43261E-004	1.01211E-003	-1.73273E-002	1.13107E-003
	15	15	4.99525E-002	-2.52073E-002	0.00000E+000	-1.25917E-003	-2.49393E-001	3.63690E-002	3.17550E+001	11	...........	6.02910E-002	-4.40292E-003	5.77872E-001	6.04106E-001	-2.84957E-002	-3.88453E-002	6.64714E-001	-4.33229E-002	-1.51977E-003	1.10986E-004	-1.45666E-002	-1.52279E-002	7.18300E-004	9.79185E-004	-1.67557E-002	1.09205E-003
	16	16	4.99474E-002	-2.42810E-002	0.00000E+000	-1.21278E-003	-2.40185E-001	3.62787E-002	3.18594E+001	11	...........	6.01265E-002	-4.30833E-003	5.77775E-001	6.04022E-001	-2.85032E-002	-3.88486E-002	6.64758E-001	-4.32243E-002	-1.45993E-003	1.04611E-004	-1.40290E-002	-1.46663E-002	6.92087E-004	9.43284E-004	-1.61410E-002	1.04953E-003
	17	17	4.99532E-002	-2.39168E-002	0.00000E+000	-1.19472E-003	-2.36564E-001	3.65052E-002	3.21491E+001	11	...........	6.04881E-002	-4.26264E-003	5.77749E-001	6.03950E-001	-2.84971E-002	-3.88344E-002	6.64763E-001	-4.32246E-002	-1.44668E-003	1.01949E-004	-1.38179E-002	-1.44445E-002	6.81559E-004	9.28795E-004	-1.58990E-002	1.03379E-003
	18	18	4.99473E-002	-2.31695E-002	0.00000E+000	-1.15725E-003	-2.29129E-001	3.64304E-002	3.20244E+001	11	...........	6.04043E-002	-4.17431E-003	5.77782E-001	6.03803E-001	-2.85079E-002	-3.88211E-002	6.64739E-001	-4.31856E-002	-1.39954E-003	9.67165E-005	-1.33869E-002	-1.39898E-002	6.60514E-004	8.99466E-004	-1.54017E-002	1.00059E-003
	19	19	4.99522E-002	-2.26663E-002	0.00000E+000	-1.13223E-003	-2.24127E-001	3.64928E-002	3.22577E+001	11	...........	6.05021E-002	-4.18222E-003	5.77803E-001	6.03788E-001	-2.85126E-002	-3.88190E-002	6.64752E-001	-4.32518E-002	-1.37136E-003	9.47955E-005	-1.30967E-002	-1.36856E-002	6.46276E-004	8.79884E-004	-1.50675E-002	9.80359E-004
	20	20	4.99526E-002	-2.20601E-002	0.00000E+000	-1.10196E-003	-2.18089E-001	3.63557E-002	3.18154E+001	11	...........	6.04711E-002	-4.20264E-003	5.77740E-001	6.03899E-001	-2.85331E-002	-3.88274E-002	6.64774E-001	-4.33260E-002	-1.33400E-003	9.27107E-005	-1.27450E-002	-1.33221E-002	6.29443E-004	8.56536E-004	-1.46650E-002	9.55776E-004
	21	21	4.99518E-002	-2.16039E-002	0.00000E+000	-1.07915E-003	-2.13558E-001	3.62382E-002	3.19143E+001	11	...........	6.04065E-002	-4.39736E-003	5.77678E-001	6.03899E-001	-2.85521E-002	-3.88262E-002	6.64834E-001	-4.33543E-002	-1.30502E-003	9.50002E-005	-1.24801E-002	-1.30466E-002	6.16837E-004	8.38799E-004	-1.43630E-002	9.36622E-004
	22	22	4.99528E-002	-2.13742E-002	0.00000E+000	-1.06770E-003	-2.11277E-001	3.63853E-002	3.22332E+001	11	...........	6.06578E-002	-4.47847E-003	5.77676E-001	6.03873E-001	-2.85526E-002	-3.88407E-002	6.64765E-001	-4.32401E-002	-1.29651E-003	9.57239E-005	-1.23474E-002	-1.29073E-002	6.10291E-004	8.30190E-004	-1.42088E-002	9.24225E-004
	23	23	4.99477E-002	-2.10289E-002	0.00000E+000	-1.05034E-003	-2.07839E-001	3.64298E-002	3.21187E+001	11	...........	6.07383E-002	-4.48208E-003	5.77718E-001	6.03909E-001	-2.85329E-002	-3.88383E-002	6.64820E-001	-4.33533E-002	-1.27726E-003	9.42532E-005	-1.21488E-002	-1.26995E-002	6.00016E-004	8.16727E-004	-1.39804E-002	9.11672E-004
	24	24	4.99600E-002	-2.05762E-002	0.00000E+000	-1.02799E-003	-2.03353E-001	3.63852E-002	3.21367E+001	11	...........	6.06415E-002	-4.37167E-003	5.77798E-001	6.03978E-001	-2.85335E-002	-3.88481E-002	6.64902E-001	-4.33439E-002	-1.24777E-003	8.99522E-005	-1.18889E-002	-1.24276E-002	5.87110E-004	7.99345E-004	-1.36811E-002	8.91852E-004
	25	25	4.99539E-002	-2.02938E-002	0.00000E+000	-1.01375E-003	-2.00539E-001	3.64100E-002	3.23381E+001	11	...........	6.07058E-002	-4.39111E-003	5.77725E-001	6.03995E-001	-2.85626E-002	-3.88426E-002	6.64903E-001	-4.34149E-002	-1.23195E-003	8.91122E-005	-1.17242E-002	-1.22573E-002	5.79644E-004	7.88264E-004	-1.34934E-002	8.81052E-004
	26	26	4.99488E-002	-1.98420E-002	0.00000E+000	-9.91081E-004	-1.96037E-001	3.63701E-002	3.24104E+001	11	...........	6.06457E-002	-4.33139E-003	5.77720E-001	6.03991E-001	-2.85739E-002	-3.88422E-002	6.64762E-001	-4.33615E-002	-1.20333E-003	8.59432E-005	-1.14631E-002	-1.19844E-002	5.66962E-004	7.70706E-004	-1.31902E-002	8.60378E-004
	27	27	4.99532E-002	-1.94276E-002	0.00000E+000	-9.70471E-004	-1.91919E-001	3.64001E-002	3.18298E+001	11	...........	6.06849E-002	-4.22486E-003	5.77731E-001	6.04158E-001	-2.85971E-002	-3.88274E-002	6.64719E-001	-4.32836E-002	-1.17896E-003	8.20789E-005	-1.12239E-002	-1.17373E-002	5.55573E-004	7.54322E-004	-1.29139E-002	8.40897E-004
	28	28	4.99624E-002	-1.93188E-002	0.00000E+000	-9.65214E-004	-1.90834E-001	3.65112E-002	3.24449E+001	11	...........	6.08667E-002	-4.25222E-003	5.77841E-001	6.04277E-001	-2.85910E-002	-3.88264E-002	6.64884E-001	-4.32403E-002	-1.17587E-003	8.21478E-005	-1.11632E-002	-1.16739E-002	5.52343E-004	7.50079E-004	-1.28448E-002	8.35350E-004
	29	29	4.99503E-002	-1.90461E-002	0.00000E+000	-9.51358E-004	-1.88127E-001	3.64602E-002	3.29066E+001	11	...........	6.07790E-002	-4.18736E-003	5.77720E-001	6.04262E-001	-2.85906E-002	-3.87979E-002	6.64903E-001	-4.32208E-002	-1.15760E-003	7.97528E-005	-1.10033E-002	-1.15088E-002	5.44538E-004	7.38948E-004	-1.26638E-002	8.23187E-004
	30	30	4.99513E-002	-1.87623E-002	0.00000E+000	-9.37202E-004	-1.85306E-001	3.65611E-002	3.24910E+001	11	...........	6.09542E-002	-4.19000E-003	5.77673E-001	6.04230E-001	-2.85875E-002	-3.87910E-002	6.64807E-001	-4.32310E-002	-1.14364E-003	7.86141E-005	-1.08385E-002	-1.13367E-002	5.36368E-004	7.27808E-004	-1.24733E-002	8.11113E-004
	31	31	4.99569E-002	-1.83909E-002	0.00000E+000	-9.18751E-004	-1.81609E-001	3.64836E-002	3.27191E+001	11	...........	6.08269E-002	-4.11681E-003	5.77706E-001	6.04258E-001	-2.85793E-002	-3.87829E-002	6.64727E-001	-4.31824E-002	-1.11866E-003	7.57117E-005	-1.06245E-002	-1.11128E-002	5.25599E-004	7.13252E-004	-1.22249E-002	7.94162E-004
	32	32	4.99565E-002	-1.82526E-002	0.00000E+000	-9.11836E-004	-1.80232E-001	3.65657E-002	3.26485E+001	11	...........	6.09642E-002	-4.10667E-003	5.77698E-001	6.04270E-001	-2.85942E-002	-3.87907E-002	6.64805E-001	-4.31828E-002	-1.11275E-003	7.49573E-005	-1.05445E-002	-1.10295E-002	5.21918E-004	7.08031E-004	-1.21344E-002	7.88197E-004
	33	33	4.99528E-002	-1.78675E-002	0.00000E+000	-8.92531E-004	-1.76411E-001	3.64989E-002	3.27393E+001	11	...........	6.08537E-002	-4.09986E-003	5.77694E-001	6.04362E-001	-2.85764E-002	-3.87832E-002	6.64835E-001	-4.31240E-002	-1.08730E-003	7.32542E-005	-1.03219E-002	-1.07984E-002	5.10588E-004	6.92958E-004	-1.18789E-002	7.70518E-004
	34	34	4.99561E-002	-1.76073E-002	0.00000E+000	-8.79591E-004	-1.73823E-001	3.65081E-002	3.25569E+001	11	...........	6.08808E-002	-4.19250E-003	5.77801E-001	6.04262E-001	-2.85562E-002	-3.87929E-002	6.64784E-001	-4.32056E-002	-1.07195E-003	7.38186E-005	-1.01735E-002	-1.06394E-002	5.02798E-004	6.83038E-004	-1.17051E-002	7.60733E-004
	35	35	4.99531E-002	-1.74238E-002	0.00000E+000	-8.70375E-004	-1.71997E-001	3.65932E-002	3.26367E+001	11	...........	6.10019E-002	-4.22306E-003	5.77626E-001	6.04291E-001	-2.85303E-002	-3.88128E-002	6.64924E-001	-4.32201E-002	-1.06289E-003	7.35818E-005	-1.00645E-002	-1.05291E-002	4.97107E-004	6.76268E-004	-1.15855E-002	7.53061E-004
	36	36	4.99524E-002	-1.71777E-002	0.00000E+000	-8.58069E-004	-1.69541E-001	3.66592E-002	3.28466E+001	11	...........	6.11061E-002	-4.19083E-003	5.77702E-001	6.04154E-001	-2.85385E-002	-3.88149E-002	6.64864E-001	-4.32428E-002	-1.04967E-003	7.19891E-005	-9.92362E-003	-1.03780E-002	4.90227E-004	6.66752E-004	-1.14209E-002	7.42813E-004
	37	37	4.99580E-002	-1.68235E-002	0.00000E+000	-8.40471E-004	-1.66023E-001	3.65893E-002	3.25476E+001	11	...........	6.09937E-002	-4.23639E-003	5.77683E-001	6.04069E-001	-2.85372E-002	-3.88249E-002	6.64834E-001	-4.32918E-002	-1.02613E-003	7.12711E-005	-9.71867E-003	-1.01626E-002	4.80097E-004	6.53172E-004	-1.11849E-002	7.28322E-004
	38	38	4.99492E-002	-1.64540E-002	0.00000E+000	-8.21866E-004	-1.62350E-001	3.64557E-002	3.25348E+001	11	...........	6.07825E-002	-4.20722E-003	5.77556E-001	6.03944E-001	-2.85626E-002	-3.88471E-002	6.64969E-001	-4.32757E-002	-1.00012E-003	6.92258E-005	-9.50314E-003	-9.93732E-003	4.69971E-004	6.39192E-004	-1.09414E-002	7.12060E-004
	39	39	4.99554E-002	-1.62635E-002	0.00000E+000	-8.12450E-004	-1.60459E-001	3.67423E-002	3.23375E+001	11	...........	6.12611E-002	-4.27514E-003	5.77611E-001	6.03975E-001	-2.85519E-002	-3.88612E-002	6.64941E-001	-4.33337E-002	-9.96321E-004	6.95288E-005	-9.39398E-003	-9.82276E-003	4.64355E-004	6.32021E-004	-1.08143E-002	7.04759E-004
	40	40	4.99597E-002	-1.62358E-002	0.00000E+000	-8.11134E-004	-1.60181E-001	3.67228E-002	3.25043E+001	11	...........	6.12332E-002	-4.36444E-003	5.77682E-001	6.04147E-001	-2.85429E-002	-3.88889E-002	6.64924E-001	-4.33696E-002	-9.94167E-004	7.08600E-005	-9.37910E-003	-9.80879E-003	4.63416E-004	6.31390E-004	-1.07955E-002	7.04138E-004
	41	41	4.99529E-002	-1.57748E-002	0.00000E+000	-7.87995E-004	-1.55593E-001	3.65579E-002	3.28288E+001	11	...........	6.09506E-002	-4.28375E-003	5.77688E-001	6.04165E-001	-2.85762E-002	-3.89060E-002	6.64921E-001	-4.35124E-002	-9.61481E-004	6.75751E-005	-9.11289E-003	-9.53056E-003	4.50784E-004	6.13732E-004	-1.04890E-002	6.86397E-004
	42	42	4.99540E-002	-1.55939E-002	0.00000E+000	-7.78980E-004	-1.53797E-001	3.66970E-002	3.19236E+001	11	...........	6.11750E-002	-4.45000E-003	5.77707E-001	6.04311E-001	-2.85551E-002	-3.89129E-002	6.64775E-001	-4.33803E-002	-9.53959E-004	6.93930E-005	-9.00873E-003	-9.42359E-003	4.45287E-004	6.06806E-004	-1.03665E-002	6.76469E-004
	43	43	4.99589E-002	-1.53917E-002	0.00000E+000	-7.68949E-004	-1.51789E-001	3.67834E-002	3.25498E+001	11	...........	6.13175E-002	-4.29181E-003	5.77861E-001	6.04386E-001	-2.85397E-002	-3.89183E-002	6.64769E-001	-4.33439E-002	-9.43778E-004	6.60580E-005	-8.89423E-003	-9.30250E-003	4.39273E-004	5.99017E-004	-1.02319E-002	6.67134E-004
	44	44	4.99511E-002	-1.52472E-002	0.00000E+000	-7.61615E-004	-1.50352E-001	3.66922E-002	3.25811E+001	11	...........	6.11703E-002	-4.30611E-003	5.77724E-001	6.04515E-001	-2.85475E-002	-3.89043E-002	6.64643E-001	-4.34350E-002	-9.32676E-004	6.56562E-005	-8.80868E-003	-9.21717E-003	4.35270E-004	5.93182E-004	-1.01339E-002	6.62262E-004
	45	45	4.99572E-002	-1.50148E-002	0.00000E+000	-7.50098E-004	-1.48033E-001	3.67442E-002	3.28140E+001	11	...........	6.12611E-002	-4.26014E-003	5.77754E-001	6.04477E-001	-2.85456E-002	-3.89139E-002	6.64732E-001	-4.34646E-002	-9.19825E-004	6.39653E-005	-8.67488E-003	-9.07612E-003	4.28607E-004	5.84285E-004	-9.98083E-003	6.52613E-004
	46	46	4.99564E-002	-1.47746E-002	0.00000E+000	-7.38088E-004	-1.45641E-001	3.67578E-002	3.24848E+001	11	...........	6.12821E-002	-4.21903E-003	5.77766E-001	6.04473E-001	-2.85512E-002	-3.89204E-002	6.64743E-001	-4.33764E-002	-9.05421E-004	6.23346E-005	-8.53629E-003	-8.93087E-003	4.21835E-004	5.75035E-004	-9.82135E-003	6.40871E-004
	47	47	4.99539E-002	-1.45735E-002	0.00000E+000	-7.28003E-004	-1.43633E-001	3.67069E-002	3.22910E+001	11	...........	6.11799E-002	-4.22986E-003	5.77882E-001	6.04380E-001	-2.85508E-002	-3.89025E-002	6.64867E-001	-4.33154E-002	-8.91604E-004	6.16438E-005	-8.42176E-003	-8.80792E-003	4.16085E-004	5.66945E-004	-9.68944E-003	6.31257E-004
	48	48	4.99590E-002	-1.45354E-002	0.00000E+000	-7.26172E-004	-1.43255E-001	3.68260E-002	3.29261E+001	11	...........	6.13921E-002	-4.30069E-003	5.77963E-001	6.04344E-001	-2.85511E-002	-3.88558E-002	6.64715E-001	-4.33214E-002	-8.92356E-004	6.25122E-005	-8.40091E-003	-8.78436E-003	4.15001E-004	5.64784E-004	-9.66188E-003	6.29692E-004
	49	49	4.99552E-002	-1.42869E-002	0.00000E+000	-7.13707E-004	-1.40777E-001	3.67521E-002	3.32105E+001	11	...........	6.12808E-002	-4.33361E-003	5.78044E-001	6.04356E-001	-2.85740E-002	-3.88431E-002	6.64693E-001	-4.32322E-002	-8.75515E-004	6.19140E-005	-8.25848E-003	-8.63439E-003	4.08235E-004	5.54948E-004	-9.49642E-003	6.17656E-004
	50	50	4.99559E-002	-1.41242E-002	0.00000E+000	-7.05587E-004	-1.39167E-001	3.67773E-002	3.26960E+001	11	...........	6.13035E-002	-4.34319E-003	5.78123E-001	6.04414E-001	-2.85618E-002	-3.88436E-002	6.64675E-001	-4.32079E-002	-8.65863E-004	6.13442E-005	-8.16552E-003	-8.53686E-003	4.03413E-004	5.48635E-004	-9.38800E-003	6.10277E-004
	51	51	4.99563E-002	-1.39879E-002	0.00000E+000	-6.98784E-004	-1.37829E-001	3.68071E-002	3.30754E+001	11	...........	6.13607E-002	-4.35486E-003	5.78146E-001	6.04466E-001	-2.85539E-002	-3.88239E-002	6.64608E-001	-4.32497E-002	-8.58307E-004	6.09153E-005	-8.08705E-003	-8.45521E-003	3.99409E-004	5.43064E-004	-9.29647E-003	6.04973E-004
	52	52	4.99537E-002	-1.38426E-002	0.00000E+000	-6.91487E-004	-1.36381E-001	3.68379E-002	3.32223E+001	11	...........	6.14250E-002	-4.42153E-003	5.78199E-001	6.04394E-001	-2.85600E-002	-3.88268E-002	6.64777E-001	-4.32528E-002	-8.50279E-004	6.12053E-005	-8.00376E-003	-8.36636E-003	3.95343E-004	5.37462E-004	-9.20221E-003	5.98729E-004
	53	53	4.99570E-002	-1.35025E-002	0.00000E+000	-6.74542E-004	-1.32990E-001	3.67863E-002	3.26577E+001	11	...........	6.13261E-002	-4.30167E-003	5.78174E-001	6.04250E-001	-2.85453E-002	-3.88011E-002	6.64621E-001	-4.33268E-002	-8.28053E-004	5.80831E-005	-7.80677E-003	-8.15886E-003	3.85431E-004	5.23910E-004	-8.97402E-003	5.85018E-004
	54	54	4.99546E-002	-1.33123E-002	0.00000E+000	-6.65010E-004	-1.31101E-001	3.66468E-002	3.23420E+001	11	...........	6.10856E-002	-4.25639E-003	5.78073E-001	6.04173E-001	-2.85236E-002	-3.88286E-002	6.64563E-001	-4.34329E-002	-8.13189E-004	5.66623E-005	-7.69548E-003	-8.04292E-003	3.79715E-004	5.16898E-004	-8.84686E-003	5.78192E-004
	55	55	4.99558E-002	-1.33249E-002	0.00000E+000	-6.65656E-004	-1.31229E-001	3.70077E-002	3.32172E+001	11	...........	6.16950E-002	-4.33917E-003	5.77973E-001	6.04176E-001	-2.85356E-002	-3.88057E-002	6.64732E-001	-4.34321E-002	-8.22079E-004	5.78189E-005	-7.70143E-003	-8.05057E-003	3.80233E-004	5.17082E-004	-8.85748E-003	5.78728E-004
	56	56	4.99586E-002	-1.31332E-002	0.00000E+000	-6.56116E-004	-1.29320E-001	3.68680E-002	3.31942E+001	11	...........	6.14682E-002	-4.37806E-003	5.77998E-001	6.04305E-001	-2.85969E-002	-3.87639E-002	6.64698E-001	-4.35006E-002	-8.07273E-004	5.74978E-005	-7.59095E-003	-7.93644E-003	3.75569E-004	5.09093E-004	-8.72960E-003	5.71301E-004
	57	57	4.99545E-002	-1.29101E-002	0.00000E+000	-6.44920E-004	-1.27119E-001	3.67873E-002	3.33366E+001	11	...........	6.13310E-002	-4.40458E-003	5.78145E-001	6.04178E-001	-2.86328E-002	-3.87997E-002	6.64812E-001	-4.34607E-002	-7.91791E-004	5.68638E-005	-7.46393E-003	-7.80003E-003	3.69653E-004	5.00910E-004	-8.58281E-003	5.61084E-004
	58	58	4.99537E-002	-1.28457E-002	0.00000E+000	-6.41692E-004	-1.26479E-001	3.69481E-002	3.32804E+001	11	...........	6.16065E-002	-4.44083E-003	5.78137E-001	6.04217E-001	-2.86531E-002	-3.88585E-002	6.64878E-001	-4.34285E-002	-7.91382E-004	5.70458E-005	-7.42660E-003	-7.76161E-003	3.68070E-004	4.99166E-004	-8.54085E-003	5.57871E-004
	59	59	4.99562E-002	-1.24727E-002	0.00000E+000	-6.23090E-004	-1.22755E-001	3.68323E-002	3.30186E+001	11	...........	6.14140E-002	-4.39097E-003	5.78041E-001	6.04236E-001	-2.86622E-002	-3.88650E-002	6.64904E-001	-4.32768E-002	-7.66000E-004	5.47674E-005	-7.20974E-003	-7.53646E-003	3.57496E-004	4.84752E-004	-8.29316E-003	5.39779E-004
	60	60	4.99575E-002	-1.23917E-002	0.00000E+000	-6.19056E-004	-1.21947E-001	3.68347E-002	3.31747E+001	11	...........	6.14039E-002	-4.37722E-003	5.78181E-001	6.04211E-001	-2.86618E-002	-3.88389E-002	6.64892E-001	-4.33026E-002	-7.60896E-004	5.42411E-005	-7.16462E-003	-7.48718E-003	3.55167E-004	4.81278E-004	-8.23912E-003	5.36592E-004
	61	61	4.99566E-002	-1.24142E-002	0.00000E+000	-6.20171E-004	-1.22173E-001	3.69567E-002	3.35464E+001	11	...........	6.16061E-002	-4.35792E-003	5.78088E-001	6.04165E-001	-2.86699E-002	-3.88733E-002	6.64943E-001	-4.33632E-002	-7.64791E-004	5.41001E-005	-7.17650E-003	-7.50023E-003	3.55913E-004	4.82581E-004	-8.25473E-003	5.38319E-004
	62	62	4.99560E-002	-1.21316E-002	0.00000E+000	-6.06044E-004	-1.19362E-001	3.68650E-002	3.33605E+001	11	...........	6.14385E-002	-4.32542E-003	5.78133E-001	6.04085E-001	-2.86612E-002	-3.88599E-002	6.64980E-001	-4.33665E-002	-7.45345E-004	5.24741E-005	-7.01366E-003	-7.32850E-003	3.47706E-004	4.71431E-004	-8.06725E-003	5.26104E-004
	63	63	4.99565E-002	-1.19748E-002	0.00000E+000	-5.98220E-004	-1.17797E-001	3.69034E-002	3.34440E+001	11	...........	6.15165E-002	-4.35861E-003	5.78247E-001	6.04109E-001	-2.86676E-002	-3.88471E-002	6.64920E-001	-4.33501E-002	-7.36649E-004	5.21936E-005	-6.92440E-003	-7.23409E-003	3.43290E-004	4.65187E-004	-7.96229E-003	5.19110E-004
	64	64	4.99554E-002	-1.18296E-002	0.00000E+000	-5.90951E-004	-1.16350E-001	3.68393E-002	3.29948E+001	11	...........	6.14181E-002	-4.35764E-003	5.78159E-001	6.04015E-001	-2.86760E-002	-3.88476E-002	6.64952E-001	-4.35010E-002	-7.26550E-004	5.15491E-005	-6.83938E-003	-7.14525E-003	3.39225E-004	4.59551E-004	-7.86611E-003	5.14598E-004
	65	65	4.99573E-002	-1.17276E-002	0.00000E+000	-5.85878E-004	-1.15327E-001	3.69546E-002	3.35060E+001	11	...........	6.16101E-002	-4.33833E-003	5.78174E-001	6.04057E-001	-2.86724E-002	-3.88632E-002	6.64849E-001	-4.35357E-002	-7.22537E-004	5.08781E-005	-6.78058E-003	-7.08412E-003	3.36257E-004	4.55771E-004	-7.79707E-003	5.10568E-004
	66	66	4.99573E-002	-1.16286E-002	0.00000E+000	-5.80933E-004	-1.14352E-001	3.69453E-002	3.34194E+001	11	...........	6.15993E-002	-4.40444E-003	5.78349E-001	6.04264E-001	-2.86706E-002	-3.88426E-002	6.65022E-001	-4.34675E-002	-7.16313E-004	5.12175E-005	-6.72538E-003	-7.02674E-003	3.33398E-004	4.51685E-004	-7.73327E-003	5.05466E-004
	67	67	4.99554E-002	-1.14409E-002	0.00000E+000	-5.71536E-004	-1.12502E-001	3.68956E-002	3.36443E+001	11	...........	6.15210E-002	-4.46639E-003	5.78365E-001	6.04218E-001	-2.87126E-002	-3.88214E-002	6.65198E-001	-4.35111E-002	-7.03857E-004	5.10996E-005	-6.61703E-003	-6.91281E-003	3.28499E-004	4.44152E-004	-7.61048E-003	4.97807E-004
	68	68	4.99544E-002	-1.12311E-002	0.00000E+000	-5.61040E-004	-1.10407E-001	3.68732E-002	3.35683E+001	11	...........	6.14626E-002	-4.44153E-003	5.78351E-001	6.04461E-001	-2.87000E-002	-3.87922E-002	6.65011E-001	-4.34049E-002	-6.90291E-004	4.98831E-005	-6.49550E-003	-6.78874E-003	3.22331E-004	4.35678E-004	-7.46878E-003	4.87483E-004
	69	69	4.99558E-002	-1.10760E-002	0.00000E+000	-5.53311E-004	-1.08865E-001	3.69547E-002	3.26681E+001	11	...........	6.15814E-002	-4.27375E-003	5.78200E-001	6.04494E-001	-2.87049E-002	-3.87612E-002	6.65212E-001	-4.33989E-002	-6.82076E-004	4.73361E-005	-6.40416E-003	-6.69539E-003	3.17935E-004	4.29320E-004	-7.36790E-003	4.80687E-004
	70	70	4.99580E-002	-1.09831E-002	0.00000E+000	-5.48695E-004	-1.07935E-001	3.69437E-002	3.33974E+001	11	...........	6.15822E-002	-4.24083E-003	5.78151E-001	6.04490E-001	-2.87035E-002	-3.87881E-002	6.65243E-001	-4.33879E-002	-6.76365E-004	4.65776E-005	-6.34990E-003	-6.63919E-003	3.15254E-004	4.26014E-004	-7.30645E-003	4.76535E-004
	71	71	4.99570E-002	-1.08791E-002	0.00000E+000	-5.43488E-004	-1.06903E-001	3.69801E-002	3.36796E+001	11	...........	6.16382E-002	-4.19222E-003	5.78250E-001	6.04567E-001	-2.86850E-002	-3.88006E-002	6.65151E-001	-4.34293E-002	-6.70568E-004	4.56076E-005	-6.29084E-003	-6.57714E-003	3.12067E-004	4.22115E-004	-7.23625E-003	4.72472E-004
	72	72	4.99532E-002	-1.07501E-002	0.00000E+000	-5.37003E-004	-1.05619E-001	3.70986E-002	3.31441E+001	11	...........	6.18507E-002	-4.17097E-003	5.78366E-001	6.04393E-001	-2.86904E-002	-3.88089E-002	6.65065E-001	-4.34365E-002	-6.64903E-004	4.48385E-005	-6.21751E-003	-6.49730E-003	3.08426E-004	4.17200E-004	-7.14953E-003	4.66948E-004
	73	73	4.99571E-002	-1.05672E-002	0.00000E+000	-5.27908E-004	-1.03801E-001	3.70087E-002	3.34334E+001	11	...........	6.16900E-002	-4.11375E-003	5.78461E-001	6.04513E-001	-2.86768E-002	-3.88007E-002	6.65117E-001	-4.33996E-002	-6.51892E-004	4.34709E-005	-6.11272E-003	-6.38802E-003	3.03034E-004	4.10015E-004	-7.02844E-003	4.58613E-004
	74	74	4.99566E-002	-1.03647E-002	0.00000E+000	-5.17785E-004	-1.01821E-001	3.69223E-002	3.24597E+001	11	...........	6.15485E-002	-4.19778E-003	5.78567E-001	6.04389E-001	-2.86651E-002	-3.88203E-002	6.65155E-001	-4.34161E-002	-6.37931E-004	4.35086E-005	-5.99666E-003	-6.26430E-003	2.97105E-004	4.02360E-004	-6.89412E-003	4.49994E-004
	75	75	4.99582E-002	-1.02710E-002	0.00000E+000	-5.13121E-004	-1.00903E-001	3.69595E-002	3.31073E+001	11	...........	6.16035E-002	-4.24000E-003	5.78591E-001	6.04344E-001	-2.86582E-002	-3.88240E-002	6.65250E-001	-4.34329E-002	-6.32729E-004	4.35490E-005	-5.94271E-003	-6.20722E-003	2.94348E-004	3.98762E-004	-6.83278E-003	4.46099E-004
	76	76	4.99574E-002	-1.02876E-002	0.00000E+000	-5.13944E-004	-1.01070E-001	3.71182E-002	3.35223E+001	11	...........	6.18832E-002	-4.28417E-003	5.78604E-001	6.04331E-001	-2.86557E-002	-3.88437E-002	6.65263E-001	-4.33890E-002	-6.36632E-004	4.40740E-005	-5.95247E-003	-6.21714E-003	2.94800E-004	3.99611E-004	-6.84399E-003	4.46371E-004
	77	77	4.99552E-002	-1.00997E-002	0.00000E+000	-5.04532E-004	-9.91907E-002	3.70017E-002	3.34938E+001	11	...........	6.16896E-002	-4.25903E-003	5.78754E-001	6.04516E-001	-2.86396E-002	-3.88268E-002	6.65293E-001	-4.33872E-002	-6.23047E-004	4.30149E-005	-5.84524E-003	-6.10543E-003	2.89251E-004	3.92139E-004	-6.71927E-003	4.38198E-004
	78	78	4.99581E-002	-1.00138E-002	0.00000E+000	-5.00272E-004	-9.83353E-002	3.70870E-002	3.35983E+001	11	...........	6.18325E-002	-4.19972E-003	5.78738E-001	6.04406E-001	-2.86244E-002	-3.88143E-002	6.65252E-001	-4.33261E-002	-6.19181E-004	4.20553E-005	-5.79539E-003	-6.05242E-003	2.86641E-004	3.88680E-004	-6.66173E-003	4.33861E-004
	79	79	4.99560E-002	-9.89396E-003	0.00000E+000	-4.94263E-004	-9.71440E-002	3.69855E-002	3.33582E+001	11	...........	6.16707E-002	-4.22319E-003	5.78572E-001	6.04449E-001	-2.86289E-002	-3.88194E-002	6.65078E-001	-4.33471E-002	-6.10167E-004	4.17841E-005	-5.72437E-003	-5.98039E-003	2.83253E-004	3.84078E-004	-6.58025E-003	4.28874E-004
	80	80	4.99561E-002	-9.78329E-003	0.00000E+000	-4.88735E-004	-9.60373E-002	3.70084E-002	3.36540E+001	11	...........	6.16968E-002	-4.21819E-003	5.78535E-001	6.04462E-001	-2.86389E-002	-3.88462E-002	6.65076E-001	-4.32282E-002	-6.03598E-004	4.12678E-005	-5.65998E-003	-5.91362E-003	2.80183E-004	3.80044E-004	-6.50663E-003	4.22914E-004
	81	81	4.99569E-002	-9.72548E-003	0.00000E+000	-4.85855E-004	-9.54627E-002	3.70452E-002	3.37261E+001	11	...........	6.18685E-002	-4.31181E-003	5.78468E-001	6.04406E-001	-2.86128E-002	-3.88143E-002	6.65089E-001	-4.32499E-002	-6.01700E-004	4.19344E-005	-5.62587E-003	-5.87814E-003	2.78273E-004	3.77488E-004	-6.46831E-003	4.20625E-004
	82	82	4.99564E-002	-9.51353E-003	0.00000E+000	-4.75262E-004	-9.33520E-002	3.70463E-002	3.33253E+001	11	...........	6.17319E-002	-4.26736E-003	5.78329E-001	6.04359E-001	-2.86047E-002	-3.88164E-002	6.65096E-001	-4.32765E-002	-5.87289E-004	4.05977E-005	-5.50195E-003	-5.74959E-003	2.72132E-004	3.69281E-004	-6.32741E-003	4.11713E-004
	83	83	4.99559E-002	-9.35591E-003	0.00000E+000	-4.67383E-004	-9.17833E-002	3.69159E-002	3.28056E+001	11	...........	6.15312E-002	-4.30111E-003	5.78245E-001	6.04196E-001	-2.85992E-002	-3.87850E-002	6.65061E-001	-4.32928E-002	-5.75681E-004	4.02408E-005	-5.41001E-003	-5.65281E-003	2.67571E-004	3.62869E-004	-6.22226E-003	4.05043E-004
	84	84	4.99576E-002	-9.36750E-003	0.00000E+000	-4.67978E-004	-9.18953E-002	3.71087E-002	3.36360E+001	11	...........	6.18754E-002	-4.29069E-003	5.78275E-001	6.04118E-001	-2.85687E-002	-3.87937E-002	6.65136E-001	-4.32772E-002	-5.79618E-004	4.01931E-005	-5.41699E-003	-5.65907E-003	2.67618E-004	3.63400E-004	-6.23066E-003	4.05399E-004
	85	85	4.99574E-002	-9.29239E-003	0.00000E+000	-4.64223E-004	-9.11433E-002	3.71065E-002	3.33532E+001	11	...........	6.18467E-002	-4.28333E-003	5.78142E-001	6.04132E-001	-2.85618E-002	-3.87937E-002	6.65191E-001	-4.35043E-002	-5.74703E-004	3.98024E-005	-5.37232E-003	-5.61383E-003	2.65407E-004	3.60487E-004	-6.18121E-003	4.04259E-004
	86	86	4.99540E-002	-9.11713E-003	0.00000E+000	-4.55437E-004	-8.93967E-002	3.70630E-002	3.36254E+001	11	...........	6.17733E-002	-4.28653E-003	5.78218E-001	6.04060E-001	-2.85737E-002	-3.87864E-002	6.65084E-001	-4.34394E-002	-5.63195E-004	3.90808E-005	-5.27168E-003	-5.50730E-003	2.60511E-004	3.53620E-004	-6.06366E-003	3.96043E-004
	87	87	4.99557E-002	-9.01382E-003	0.00000E+000	-4.50291E-004	-8.83820E-002	3.71322E-002	3.30590E+001	11	...........	6.19133E-002	-4.24222E-003	5.78344E-001	6.03857E-001	-2.85865E-002	-3.87792E-002	6.65080E-001	-4.33422E-002	-5.58075E-004	3.82386E-005	-5.21308E-003	-5.44306E-003	2.57674E-004	3.49548E-004	-5.99491E-003	3.90679E-004
	88	88	4.99599E-002	-8.94517E-003	0.00000E+000	-4.46900E-004	-8.77113E-002	3.71050E-002	3.35665E+001	11	...........	6.18636E-002	-4.21958E-003	5.78246E-001	6.03860E-001	-2.86167E-002	-3.87943E-002	6.64947E-001	-4.33874E-002	-5.53380E-004	3.77449E-005	-5.17251E-003	-5.40163E-003	2.55981E-004	3.47022E-004	-5.94806E-003	3.88107E-004
	89	89	4.99568E-002	-8.83316E-003	0.00000E+000	-4.41276E-004	-8.65953E-002	3.70556E-002	3.36274E+001	11	...........	6.17782E-002	-4.31417E-003	5.78203E-001	6.03845E-001	-2.86476E-002	-3.88000E-002	6.65069E-001	-4.33375E-002	-5.45697E-004	3.81077E-005	-5.10736E-003	-5.33386E-003	2.53049E-004	3.42727E-004	-5.87466E-003	3.82807E-004
	90	90	4.99568E-002	-8.74403E-003	0.00000E+000	-4.36824E-004	-8.57047E-002	3.71382E-002	3.38680E+001	11	...........	6.19214E-002	-4.20139E-003	5.78142E-001	6.03981E-001	-2.86653E-002	-3.87975E-002	6.65219E-001	-4.35583E-002	-5.41443E-004	3.67371E-005	-5.05529E-003	-5.28123E-003	2.50650E-004	3.39247E-004	-5.81669E-003	3.80875E-004
	91	91	4.99566E-002	-8.64182E-003	0.00000E+000	-4.31716E-004	-8.46887E-002	3.70937E-002	3.39086E+001	11	...........	6.18231E-002	-4.26694E-003	5.78108E-001	6.04100E-001	-2.86932E-002	-3.87986E-002	6.65183E-001	-4.33864E-002	-5.34264E-004	3.68742E-005	-4.99591E-003	-5.22053E-003	2.47961E-004	3.35291E-004	-5.74839E-003	3.74937E-004
	92	92	4.99575E-002	-8.59978E-003	0.00000E+000	-4.29624E-004	-8.42760E-002	3.71904E-002	3.37085E+001	11	...........	6.19874E-002	-4.41181E-003	5.78173E-001	6.04161E-001	-2.87012E-002	-3.88011E-002	6.65109E-001	-4.32911E-002	-5.33078E-004	3.79406E-005	-4.97216E-003	-5.19565E-003	2.46824E-004	3.33681E-004	-5.71979E-003	3.72294E-004
	93	93	4.99570E-002	-8.46653E-003	0.00000E+000	-4.22963E-004	-8.29427E-002	3.70984E-002	3.38036E+001	11	...........	6.18335E-002	-4.31528E-003	5.78212E-001	6.04109E-001	-2.87128E-002	-3.87893E-002	6.65166E-001	-4.33533E-002	-5.23515E-004	3.65354E-005	-4.89546E-003	-5.11471E-003	2.43098E-004	3.28411E-004	-5.63165E-003	3.67052E-004
	94	94	4.99556E-002	-8.34614E-003	0.00000E+000	-4.16936E-004	-8.17467E-002	3.70870E-002	3.37626E+001	11	...........	6.18358E-002	-4.32806E-003	5.78228E-001	6.04125E-001	-2.87183E-002	-3.87742E-002	6.65243E-001	-4.33549E-002	-5.16090E-004	3.61226E-005	-4.82597E-003	-5.04211E-003	2.39687E-004	3.23615E-004	-5.55221E-003	3.61846E-004
	95	95	4.99572E-002	-8.22180E-003	0.00000E+000	-4.10738E-004	-8.05093E-002	3.70396E-002	3.30007E+001	11	...........	6.17444E-002	-4.44819E-003	5.78162E-001	6.04178E-001	-2.87065E-002	-3.87521E-002	6.65292E-001	-4.33233E-002	-5.07651E-004	3.65722E-005	-4.75353E-003	-4.96743E-003	2.36019E-004	3.18612E-004	-5.46990E-003	3.56196E-004
	96	96	4.99588E-002	-8.26844E-003	0.00000E+000	-4.13081E-004	-8.09747E-002	3.72688E-002	3.39492E+001	11	...........	6.21208E-002	-4.32736E-003	5.78116E-001	6.04275E-001	-2.87006E-002	-3.87408E-002	6.65208E-001	-4.34190E-002	-5.13642E-004	3.57805E-005	-4.78012E-003	-4.99642E-003	2.37309E-004	3.20326E-004	-5.50023E-003	3.59008E-004
	97	97	4.99559E-002	-8.13205E-003	0.00000E+000	-4.06244E-004	-7.96160E-002	3.69955E-002	3.38824E+001	11	...........	6.16775E-002	-4.23597E-003	5.77987E-001	6.04398E-001	-2.86956E-002	-3.87642E-002	6.65106E-001	-4.35150E-002	-5.01565E-004	3.44471E-005	-4.70022E-003	-4.91500E-003	2.33354E-004	3.15232E-004	-5.40868E-003	3.53866E-004
	98	98	4.99572E-002	-8.04573E-003	0.00000E+000	-4.01942E-004	-7.87573E-002	3.72430E-002	3.36197E+001	11	...........	6.20792E-002	-4.40667E-003	5.78060E-001	6.04347E-001	-2.86835E-002	-3.87612E-002	6.65053E-001	-4.36340E-002	-4.99472E-004	3.54549E-005	-4.65092E-003	-4.86242E-003	2.30780E-004	3.11863E-004	-5.35084E-003	3.51068E-004
	99	99	4.99565E-002	-7.92569E-003	0.00000E+000	-3.95940E-004	-7.75580E-002	3.71252E-002	3.35151E+001	11	...........	6.19004E-002	-4.38153E-003	5.78102E-001	6.04096E-001	-2.86690E-002	-3.87794E-002	6.65131E-001	-4.34160E-002	-4.90604E-004	3.47267E-005	-4.58186E-003	-4.78788E-003	2.27222E-004	3.07354E-004	-5.27162E-003	3.44102E-004
	100	100	4.99568E-002	-7.84064E-003	0.00000E+000	-3.91694E-004	-7.67287E-002	3.71285E-002	3.40665E+001	11	...........	6.18885E-002	-4.44528E-003	5.78161E-001	6.04107E-001	-2.86649E-002	-3.87579E-002	6.65243E-001	-4.33672E-002	-4.85245E-004	3.48538E-005	-4.53315E-003	-4.73659E-003	2.24751E-004	3.03887E-004	-5.21593E-003	3.40027E-004
	101	101	4.99566E-002	-7.77245E-003	0.00000E+000	-3.88285E-004	-7.60580E-002	3.71180E-002	3.35815E+001	11	...........	6.18678E-002	-4.38528E-003	5.78200E-001	6.04016E-001	-2.86492E-002	-3.87344E-002	6.65255E-001	-4.35078E-002	-4.80864E-004	3.40844E-005	-4.49403E-003	-4.69468E-003	2.22674E-004	3.01062E-004	-5.17067E-003	3.38162E-004
	102	102	4.99576E-002	-7.68819E-003	0.00000E+000	-3.84084E-004	-7.52160E-002	3.72221E-002	3.36579E+001	11	...........	6.20294E-002	-4.29778E-003	5.78234E-001	6.04162E-001	-2.86285E-002	-3.87301E-002	6.65247E-001	-4.33867E-002	-4.76894E-004	3.30421E-005	-4.44557E-003	-4.64491E-003	2.20101E-004	2.97765E-004	-5.11455E-003	3.33565E-004
	103	103	4.99573E-002	-7.60342E-003	0.00000E+000	-3.79846E-004	-7.43680E-002	3.70867E-002	3.38072E+001	11	...........	6.18301E-002	-4.35389E-003	5.78240E-001	6.04352E-001	-2.86160E-002	-3.87283E-002	6.65176E-001	-4.34356E-002	-4.70120E-004	3.31044E-005	-4.39660E-003	-4.59515E-003	2.17579E-004	2.94468E-004	-5.05761E-003	3.30259E-004
	104	104	4.99562E-002	-7.56595E-003	0.00000E+000	-3.77966E-004	-7.39920E-002	3.72506E-002	3.40441E+001	11	...........	6.20985E-002	-4.43111E-003	5.78341E-001	6.04393E-001	-2.86168E-002	-3.87201E-002	6.65191E-001	-4.33754E-002	-4.69834E-004	3.35255E-005	-4.37570E-003	-4.57280E-003	2.16513E-004	2.92955E-004	-5.03280E-003	3.28176E-004
	105	105	4.99581E-002	-7.49134E-003	0.00000E+000	-3.74253E-004	-7.32460E-002	3.71889E-002	3.40187E+001	11	...........	6.19925E-002	-4.46417E-003	5.78332E-001	6.04501E-001	-2.86057E-002	-3.86986E-002	6.65097E-001	-4.32946E-002	-4.64407E-004	3.34426E-005	-4.33248E-003	-4.52852E-003	2.14295E-004	2.89904E-004	-4.98247E-003	3.24334E-004
	106	106	4.99564E-002	-7.35240E-003	0.00000E+000	-3.67300E-004	-7.18640E-002	3.71308E-002	3.32519E+001	11	...........	6.19049E-002	-4.38736E-003	5.78378E-001	6.04548E-001	-2.86283E-002	-3.86783E-002	6.65131E-001	-4.33821E-002	-4.55150E-004	3.22576E-005	-4.25247E-003	-4.44488E-003	2.10487E-004	2.84379E-004	-4.89031E-003	3.18963E-004
	107	107	4.99571E-002	-7.24493E-003	0.00000E+000	-3.61936E-004	-7.07913E-002	3.71580E-002	3.33683E+001	11	...........	6.19379E-002	-4.36042E-003	5.78182E-001	6.04591E-001	-2.86392E-002	-3.86825E-002	6.65184E-001	-4.33347E-002	-4.48736E-004	3.15909E-005	-4.18889E-003	-4.38023E-003	2.07489E-004	2.80252E-004	-4.81922E-003	3.13957E-004
	108	108	4.99579E-002	-7.26584E-003	0.00000E+000	-3.62987E-004	-7.10033E-002	3.72880E-002	3.36003E+001	11	...........	6.21435E-002	-4.43056E-003	5.78089E-001	6.04385E-001	-2.86264E-002	-3.86882E-002	6.65293E-001	-4.32554E-002	-4.51525E-004	3.21917E-005	-4.20030E-003	-4.39136E-003	2.07995E-004	2.81102E-004	-4.83391E-003	3.14287E-004
	109	109	4.99565E-002	-7.14205E-003	0.00000E+000	-3.56792E-004	-6.97673E-002	3.71963E-002	3.36992E+001	11	...........	6.20064E-002	-4.35944E-003	5.78096E-001	6.04371E-001	-2.86387E-002	-3.86872E-002	6.65172E-001	-4.33079E-002	-4.42852E-004	3.11354E-005	-4.12879E-003	-4.31645E-003	2.04539E-004	2.76306E-004	-4.75069E-003	3.09307E-004
	110	110	4.99567E-002	-7.04248E-003	0.00000E+000	-3.51819E-004	-6.87800E-002	3.71838E-002	3.39762E+001	11	...........	6.19903E-002	-4.34556E-003	5.78142E-001	6.04395E-001	-2.86165E-002	-3.86832E-002	6.65135E-001	-4.33956E-002	-4.36565E-004	3.06035E-005	-4.07156E-003	-4.25644E-003	2.01531E-004	2.72426E-004	-4.68420E-003	3.05612E-004
	111	111	4.99572E-002	-7.00669E-003	0.00000E+000	-3.50034E-004	-6.84200E-002	3.72305E-002	3.30470E+001	11	...........	6.20742E-002	-4.42319E-003	5.78103E-001	6.04403E-001	-2.86537E-002	-3.87142E-002	6.65234E-001	-4.34807E-002	-4.34935E-004	3.09920E-005	-4.05059E-003	-4.23487E-003	2.00768E-004	2.71258E-004	-4.66109E-003	3.04656E-004
	112	112	4.99577E-002	-6.95307E-003	0.00000E+000	-3.47359E-004	-6.78860E-002	3.73120E-002	3.36572E+001	11	...........	6.22099E-002	-4.44750E-003	5.78015E-001	6.04344E-001	-2.86281E-002	-3.87262E-002	6.65248E-001	-4.34332E-002	-4.32549E-004	3.09238E-005	-4.01897E-003	-4.20205E-003	1.99053E-004	2.69266E-004	-4.62552E-003	3.01994E-004
	113	113	4.99575E-002	-6.88965E-003	0.00000E+000	-3.44189E-004	-6.72500E-002	3.72116E-002	3.38072E+001	11	...........	6.20390E-002	-4.42903E-003	5.77858E-001	6.04329E-001	-2.86215E-002	-3.87162E-002	6.65241E-001	-4.33332E-002	-4.27427E-004	3.05144E-005	-3.98124E-003	-4.16361E-003	1.97192E-004	2.66741E-004	-4.58328E-003	2.98550E-004
	114	114	4.99567E-002	-6.79209E-003	0.00000E+000	-3.39310E-004	-6.62820E-002	3.72237E-002	3.37921E+001	11	...........	6.20528E-002	-4.28361E-003	5.77950E-001	6.04455E-001	-2.86450E-002	-3.87289E-002	6.65236E-001	-4.33931E-002	-4.21468E-004	2.90947E-005	-3.92549E-003	-4.10551E-003	1.94559E-004	2.63050E-004	-4.51834E-003	2.94729E-004
	115	115	4.99577E-002	-6.73752E-003	0.00000E+000	-3.36591E-004	-6.57367E-002	3.72821E-002	3.36204E+001	11	...........	6.21304E-002	-4.20667E-003	5.77920E-001	6.04521E-001	-2.86442E-002	-3.87576E-002	6.65304E-001	-4.34168E-002	-4.18605E-004	2.83425E-005	-3.89375E-003	-4.07297E-003	1.92991E-004	2.61130E-004	-4.48250E-003	2.92521E-004
	116	116	4.99582E-002	-6.70836E-003	0.00000E+000	-3.35137E-004	-6.54453E-002	3.73069E-002	3.37634E+001	11	...........	6.21872E-002	-4.36250E-003	5.78011E-001	6.04493E-001	-2.86342E-002	-3.87557E-002	6.65375E-001	-4.34582E-002	-4.17174E-004	2.92652E-005	-3.87751E-003	-4.05515E-003	1.92088E-004	2.59987E-004	-4.46357E-003	2.91533E-004
	117	117	4.99554E-002	-6.58287E-003	0.00000E+000	-3.28850E-004	-6.41920E-002	3.72064E-002	3.35575E+001	11	...........	6.20354E-002	-4.48986E-003	5.78022E-001	6.04435E-001	-2.86239E-002	-3.87685E-002	6.65395E-001	-4.32903E-002	-4.08371E-004	2.95562E-005	-3.80504E-003	-3.97892E-003	1.88427E-004	2.55208E-004	-4.38021E-003	2.84974E-004
	118	118	4.99580E-002	-6.51945E-003	0.00000E+000	-3.25698E-004	-6.35613E-002	3.72200E-002	3.36441E+001	11	...........	6.20654E-002	-4.44486E-003	5.77948E-001	6.04414E-001	-2.86015E-002	-3.87729E-002	6.65383E-001	-4.32924E-002	-4.04632E-004	2.89780E-005	-3.76790E-003	-3.94045E-003	1.86466E-004	2.52778E-004	-4.33793E-003	2.82242E-004
	119	119	4.99579E-002	-6.50529E-003	0.00000E+000	-3.24991E-004	-6.34220E-002	3.73337E-002	3.36524E+001	11	...........	6.22494E-002	-4.48167E-003	5.77959E-001	6.04222E-001	-2.85987E-002	-3.87772E-002	6.65335E-001	-4.32808E-002	-4.04951E-004	2.91546E-005	-3.75980E-003	-3.93065E-003	1.86043E-004	2.52257E-004	-4.32820E-003	2.81555E-004
	120	120	4.99574E-002	-6.42522E-003	0.00000E+000	-3.20987E-004	-6.26487E-002	3.72749E-002	3.40116E+001	11	...........	6.21268E-002	-4.43139E-003	5.77950E-001	6.04253E-001	-2.86014E-002	-3.87837E-002	6.65337E-001	-4.33231E-002	-3.99178E-004	2.84727E-005	-3.71346E-003	-3.88246E-003	1.83770E-004	2.49194E-004	-4.27494E-003	2.78360E-004
	121	121	4.99561E-002	-6.35740E-003	0.00000E+000	-3.17591E-004	-6.19760E-002	3.72807E-002	3.37629E+001	11	...........	6.21599E-002	-4.46472E-003	5.77889E-001	6.04164E-001	-2.85760E-002	-3.88022E-002	6.65305E-001	-4.33814E-002	-3.95175E-004	2.83840E-005	-3.67388E-003	-3.84091E-003	1.81669E-004	2.46681E-004	-4.22961E-003	2.75793E-004
	122	122	4.99577E-002	-6.27976E-003	0.00000E+000	-3.13722E-004	-6.12033E-002	3.72887E-002	3.41134E+001	11	...........	6.21585E-002	-4.36000E-003	5.77909E-001	6.04134E-001	-2.85525E-002	-3.88111E-002	6.65146E-001	-4.32871E-002	-3.90340E-004	2.73797E-005	-3.62913E-003	-3.79382E-003	1.79303E-004	2.43724E-004	-4.17695E-003	2.71832E-004
	123	123	4.99575E-002	-6.22274E-003	0.00000E+000	-3.10873E-004	-6.06313E-002	3.71974E-002	3.34131E+001	11	...........	6.20008E-002	-4.31889E-003	5.77865E-001	6.04134E-001	-2.85524E-002	-3.88047E-002	6.65098E-001	-4.31437E-002	-3.85815E-004	2.68753E-005	-3.59590E-003	-3.75937E-003	1.77674E-004	2.41472E-004	-4.13873E-003	2.68472E-004
	124	124	4.99577E-002	-6.18557E-003	0.00000E+000	-3.09017E-004	-6.02600E-002	3.73920E-002	3.37944E+001	11	...........	6.23371E-002	-4.30819E-003	5.78062E-001	6.03990E-001	-2.85512E-002	-3.88174E-002	6.65204E-001	-4.31843E-002	-3.85591E-004	2.66487E-005	-3.57564E-003	-3.73602E-003	1.76606E-004	2.40108E-004	-4.11467E-003	2.67120E-004
	125	125	4.99570E-002	-6.10606E-003	0.00000E+000	-3.05040E-004	-5.94687E-002	3.72531E-002	3.40029E+001	11	...........	6.21000E-002	-4.29528E-003	5.78159E-001	6.03732E-001	-2.85694E-002	-3.88006E-002	6.65205E-001	-4.31944E-002	-3.79186E-004	2.62272E-005	-3.53027E-003	-3.68642E-003	1.74447E-004	2.36918E-004	-4.06178E-003	2.63748E-004
	126	126	4.99572E-002	-6.05009E-003	0.00000E+000	-3.02246E-004	-5.89100E-002	3.73185E-002	3.38576E+001	11	...........	6.22054E-002	-4.23583E-003	5.78190E-001	6.03616E-001	-2.85758E-002	-3.88136E-002	6.65161E-001	-4.31787E-002	-3.76348E-004	2.56272E-005	-3.49810E-003	-3.65193E-003	1.72886E-004	2.34826E-004	-4.02429E-003	2.61235E-004
	127	127	4.99568E-002	-5.97416E-003	0.00000E+000	-2.98450E-004	-5.81560E-002	3.72375E-002	3.35993E+001	11	...........	6.20918E-002	-4.17042E-003	5.78246E-001	6.03585E-001	-2.85742E-002	-3.88110E-002	6.65139E-001	-4.31771E-002	-3.70946E-004	2.49147E-005	-3.45454E-003	-3.60591E-003	1.70707E-004	2.31863E-004	-3.97364E-003	2.57947E-004
	128	128	4.99576E-002	-5.93769E-003	0.00000E+000	-2.96632E-004	-5.77900E-002	3.73608E-002	3.37649E+001	11	...........	6.23017E-002	-4.30722E-003	5.78319E-001	6.03585E-001	-2.85758E-002	-3.88035E-002	6.65101E-001	-4.32004E-002	-3.69928E-004	2.55749E-005	-3.43388E-003	-3.58390E-003	1.69674E-004	2.30403E-004	-3.94916E-003	2.56510E-004
	129	129	4.99582E-002	-5.89866E-003	0.00000E+000	-2.94686E-004	-5.73967E-002	3.73312E-002	3.40310E+001	11	...........	6.22436E-002	-4.35625E-003	5.78225E-001	6.03556E-001	-2.85839E-002	-3.88272E-002	6.65111E-001	-4.33968E-002	-3.67154E-004	2.56960E-005	-3.41075E-003	-3.56017E-003	1.68607E-004	2.29028E-004	-3.92326E-003	2.55983E-004
	130	130	4.99566E-002	-5.83032E-003	0.00000E+000	-2.91263E-004	-5.67220E-002	3.72927E-002	3.42136E+001	11	...........	6.21706E-002	-4.31361E-003	5.78233E-001	6.03451E-001	-2.85804E-002	-3.88235E-002	6.65088E-001	-4.33176E-002	-3.62474E-004	2.51497E-005	-3.37128E-003	-3.51831E-003	1.66633E-004	2.26353E-004	-3.87768E-003	2.52556E-004
	131	131	4.99577E-002	-5.77716E-003	0.00000E+000	-2.88614E-004	-5.61980E-002	3.73398E-002	3.40877E+001	11	...........	6.22364E-002	-4.27403E-003	5.77994E-001	6.03350E-001	-2.85808E-002	-3.87858E-002	6.65101E-001	-4.33192E-002	-3.59550E-004	2.46917E-005	-3.33916E-003	-3.48565E-003	1.65116E-004	2.24072E-004	-3.84239E-003	2.50262E-004
	132	132	4.99575E-002	-5.72318E-003	0.00000E+000	-2.85915E-004	-5.56587E-002	3.72841E-002	3.38697E+001	11	...........	6.21412E-002	-4.25236E-003	5.77955E-001	6.03358E-001	-2.85874E-002	-3.87690E-002	6.65230E-001	-4.33206E-002	-3.55646E-004	2.43370E-005	-3.30774E-003	-3.45313E-003	1.63611E-004	2.21882E-004	-3.80723E-003	2.47931E-004
	133	133	4.99577E-002	-5.69117E-003	0.00000E+000	-2.84318E-004	-5.53387E-002	3.73977E-002	3.41044E+001	11	...........	6.23510E-002	-4.32389E-003	5.77893E-001	6.03506E-001	-2.85671E-002	-3.87896E-002	6.65207E-001	-4.32942E-002	-3.54850E-004	2.46080E-005	-3.28889E-003	-3.43466E-003	1.62580E-004	2.20758E-004	-3.78581E-003	2.46395E-004
	134	134	4.99570E-002	-5.62035E-003	0.00000E+000	-2.80775E-004	-5.46320E-002	3.72667E-002	3.42094E+001	11	...........	6.21231E-002	-4.36417E-003	5.77875E-001	6.03506E-001	-2.85701E-002	-3.87978E-002	6.65134E-001	-4.34286E-002	-3.49153E-004	2.45281E-005	-3.24785E-003	-3.39191E-003	1.60574E-004	2.18057E-004	-3.73828E-003	2.44084E-004
	135	135	4.99577E-002	-5.53841E-003	0.00000E+000	-2.76686E-004	-5.38160E-002	3.72752E-002	3.32867E+001	11	...........	6.21328E-002	-4.37333E-003	5.77887E-001	6.03523E-001	-2.85631E-002	-3.87899E-002	6.65122E-001	-4.33594E-002	-3.44117E-004	2.42213E-005	-3.20057E-003	-3.34256E-003	1.58194E-004	2.14834E-004	-3.68372E-003	2.40142E-004
	136	136	4.99579E-002	-5.50728E-003	0.00000E+000	-2.75132E-004	-5.35073E-002	3.73381E-002	3.39128E+001	11	...........	6.22631E-002	-4.30819E-003	5.78048E-001	6.03549E-001	-2.85621E-002	-3.87874E-002	6.65178E-001	-4.33183E-002	-3.42900E-004	2.37264E-005	-3.18347E-003	-3.32391E-003	1.57299E-004	2.13613E-004	-3.66332E-003	2.38566E-004
	137	137	4.99574E-002	-5.50615E-003	0.00000E+000	-2.75073E-004	-5.34980E-002	3.73942E-002	3.41236E+001	11	...........	6.23307E-002	-4.30750E-003	5.78101E-001	6.03576E-001	-2.85665E-002	-3.88107E-002	6.65062E-001	-4.32717E-002	-3.43202E-004	2.37177E-005	-3.18311E-003	-3.32338E-003	1.57292E-004	2.13698E-004	-3.66193E-003	2.38260E-004
	138	138	4.99567E-002	-5.42699E-003	0.00000E+000	-2.71114E-004	-5.27107E-002	3.73187E-002	3.39435E+001	11	...........	6.22228E-002	-4.14792E-003	5.78201E-001	6.03709E-001	-2.85356E-002	-3.88208E-002	6.64988E-001	-4.34503E-002	-3.37682E-004	2.25107E-005	-3.13789E-003	-3.27632E-003	1.54862E-004	2.10680E-004	-3.60888E-003	2.35804E-004
	139	139	4.99577E-002	-5.36950E-003	0.00000E+000	-2.68248E-004	-5.21367E-002	3.73707E-002	3.39870E+001	11	...........	6.22887E-002	-4.33819E-003	5.78295E-001	6.03685E-001	-2.85092E-002	-3.88300E-002	6.64975E-001	-4.33656E-002	-3.34459E-004	2.32939E-005	-3.10515E-003	-3.24149E-003	1.53080E-004	2.08498E-004	-3.57058E-003	2.32851E-004
	140	140	4.99577E-002	-5.32078E-003	0.00000E+000	-2.65814E-004	-5.16507E-002	3.72780E-002	3.41611E+001	11	...........	6.21532E-002	-4.41986E-003	5.78254E-001	6.03652E-001	-2.85000E-002	-3.88121E-002	6.65012E-001	-4.33854E-002	-3.30704E-004	2.35171E-005	-3.07676E-003	-3.21190E-003	1.51642E-004	2.06511E-004	-3.53838E-003	2.30844E-004
	141	141	4.99563E-002	-5.28782E-003	0.00000E+000	-2.64160E-004	-5.13267E-002	3.73795E-002	3.39058E+001	11	...........	6.23229E-002	-4.35139E-003	5.78334E-001	6.03736E-001	-2.85179E-002	-3.88110E-002	6.65138E-001	-4.34472E-002	-3.29552E-004	2.30094E-005	-3.05813E-003	-3.19244E-003	1.50798E-004	2.05225E-004	-3.51713E-003	2.29741E-004
	142	142	4.99585E-002	-5.24397E-003	0.00000E+000	-2.61981E-004	-5.08973E-002	3.73362E-002	3.45188E+001	11	...........	6.22599E-002	-4.31319E-003	5.78258E-001	6.03808E-001	-2.85099E-002	-3.88075E-002	6.64972E-001	-4.34004E-002	-3.26489E-004	2.26183E-005	-3.03236E-003	-3.16635E-003	1.49505E-004	2.03505E-004	-3.48709E-003	2.27590E-004
	143	143	4.99561E-002	-5.19439E-003	0.00000E+000	-2.59491E-004	-5.04120E-002	3.73824E-002	3.42516E+001	11	...........	6.23364E-002	-4.33861E-003	5.78354E-001	6.03572E-001	-2.85076E-002	-3.88187E-002	6.64924E-001	-4.33643E-002	-3.23800E-004	2.25365E-005	-3.00420E-003	-3.13519E-003	1.48080E-004	2.01640E-004	-3.45388E-003	2.25251E-004
	144	144	4.99583E-002	-5.11423E-003	0.00000E+000	-2.55498E-004	-4.96133E-002	3.72873E-002	3.32635E+001	11	...........	6.21686E-002	-4.37083E-003	5.78489E-001	6.03460E-001	-2.85246E-002	-3.88243E-002	6.64891E-001	-4.32312E-002	-3.17944E-004	2.23534E-005	-2.95853E-003	-3.08623E-003	1.45881E-004	1.98556E-004	-3.40040E-003	2.21094E-004
	145	145	4.99579E-002	-5.11434E-003	0.00000E+000	-2.55502E-004	-4.96140E-002	3.74577E-002	3.40795E+001	11	...........	6.24399E-002	-4.32903E-003	5.78535E-001	6.03545E-001	-2.85172E-002	-3.88212E-002	6.64913E-001	-4.32514E-002	-3.19339E-004	2.21401E-005	-2.95883E-003	-3.08673E-003	1.45847E-004	1.98545E-004	-3.40059E-003	2.21202E-004
	146	146	4.99580E-002	-5.06697E-003	0.00000E+000	-2.53135E-004	-4.91400E-002	3.73417E-002	3.48471E+001	11	...........	6.22331E-002	-4.25278E-003	5.78526E-001	6.03643E-001	-2.85089E-002	-3.88339E-002	6.64937E-001	-4.33450E-002	-3.15333E-004	2.15487E-005	-2.93137E-003	-3.05864E-003	1.44454E-004	1.96770E-004	-3.36921E-003	2.19628E-004
	147	146.548	4.99573E-002	-5.05050E-003	0.00000E+000	-2.52309E-004	-4.89787E-002	3.74278E-002	3.38373E+001	11	...........	6.23880E-002	-4.14159E-003	5.78440E-001	6.03546E-001	-2.85281E-002	-3.88404E-002	6.64940E-001	-4.34460E-002	-3.15091E-004	2.09171E-005	-2.92141E-003	-3.04821E-003	1.44081E-004	1.96163E-004	-3.35828E-003	2.19424E-004
STARTTIMEOFFSET	QUANT	780247.1	Start Time Offset (s)
