EXPLAIN
TAG	PWR800_DISCHARGE
TITLE	LABEL	PWR Discharge	Test Identifier
DATE	LABEL	10/16/2022	Date
TIME	LABEL	23:00:09	Time
NOTES	NOTES	1	Notes...
	
PSTAT	PSTAT	REF3000-21114	Potentiostat
CAPACITY	QUANT	5.30000E-002	Capacity (A-hr)
CELLTYPE	SELECTOR	1	Cell Type
WORKINGCONNECTION	SELECTOR	0	Working Connection
MAXDISCHARGETIME	VARIABLEANDUNITS	7.20000E+003	s	2.00000E+000	hour(s)	Max Discharge Time
DISCHARGEMODE	MULTIPARAM	0	1.00000E-001	Discharge Mode	Constant Current	Amp(s)
VOLTAGEFINISH	TWOPARAM	T	5.00000E-003	7.20000E+003	Voltage Finish	I (A) <	Max Time(s)
SAMPLETIME	QUANT	1.00000E+000	Sample Period (s)
DISCHARGESTOPAT1	MULTIPARAM	1	5.00000E-002	Stop At 1	|Voltage| < Limit	V
DISCHARGESTOPAT2	MULTIPARAM	0	0.00000E+000	Stop At 2	None	N/A
AESELECTOR	AESELECTOR	0x1	T	Set Limits	AE Channels
AESBHCSELECTOR	TOGGLE	F	Save Both Half Cells
IRCOMP	TOGGLE	F	IR Measure
EOC	QUANT	0.5276937	Open Circuit (V)
SEQUENCER	TOGGLE	TRUE	Run as Sequence
PSTATMODEL	IQUANT	5	Pstat Model
PSTATSECTION	LABEL	REF3000-21114	Pstat Section
PSTATSERIALNO	LABEL	21114	Pstat Serial Number
CTRLMODE	IQUANT	0	Control Mode
ELECTROMETER	IQUANT	0	RE=0 or CS=1
IESTAB	IQUANT	0	I/E Stability
CASPEED	IQUANT	4	Control Amp Speed
CONVENTION	IQUANT	1	Current Convention
ICHRANGE	IQUANT	2	Ich Range
ICHRANGEMODE	TOGGLE	T	Ich Auto Range
ICHOFFSETENABLE	TOGGLE	F	Ich Offset Enable
ICHOFFSET	QUANT	0	Ich Offset (V)
ICHFILTER	IQUANT	1	Ich Filter
VCHRANGE	IQUANT	3	Vch Range
VCHRANGEMODE	TOGGLE	T	Vch Auto Range
VCHOFFSETENABLE	TOGGLE	F	Vch Offset Enable
VCHOFFSET	QUANT	0	Vch Offset (V)
VCHFILTER	IQUANT	1	Vch Filter
ACHRANGE	IQUANT	2	Ach Range
ACHOFFSETENABLE	TOGGLE	F	Ach Offset Enable
ACHOFFSET	QUANT	0	Ach Offset (V)
ACHFILTER	IQUANT	1	Ach Filter
IERANGELOWERLIMIT	IQUANT	9	I/E Range Lower Limit
IERANGEMODE	TOGGLE	F	I/E AutoRange
IERANGE	IQUANT	9	I/E Range
POSFEEDENABLE	TOGGLE	F	Positive Feedback IR Comp
POSFEEDRESISTANCE	QUANT	0	Positive Feedback Resistance (ohm)
ACHSELECT	IQUANT	1	Ach Select
SENSECABLEID	IQUANT	13	Sense Cable ID
PWRCABLEID	IQUANT	13	Power Cable ID
DCCALDATE	LABEL		DC Calibration Date
ACCALDATE	LABEL		AC Calibration Date
THERMOSELECT	IQUANT	1	Thermo Select
FRAMEWORKVERSION	LABEL	7.8.6	Framework Version
INSTRUMENTVERSION	LABEL	4.50	Instrument Version
COMPLIANCEVOLTAGE	IQUANT	0	Compliance Voltage
CURVE	TABLE	65
	Pt	T	Vf	Im	Vu	Pwr	Sig	Ach	Temp	IERange	Over	Vf1	Vf2	Vf3	Vf4	Vf5	Vf6	Vf7	Vf8	Pwr1	Pwr2	Pwr3	Pwr4	Pwr5	Pwr6	Pwr7	Pwr8
	#	s	V	A	V	W	V	V	deg C	#	bits	V	V	V	V	V	V	V	V	W	W	W	W	W	W	W	W
	0	1	2.84723E-001	-1.00094E-001	0.00000E+000	-2.84991E-002	-9.94000E-001	3.52103E-002	2.85282E+001	11	...........	5.83867E-002	-4.55167E-003	5.87578E-001	5.79221E-001	-2.83840E-002	-3.88301E-002	6.80945E-001	-4.34268E-002	-5.84415E-003	4.55594E-004	-5.88130E-002	-5.79765E-002	2.84107E-003	3.88666E-003	-6.81585E-002	4.34676E-003
	1	2	1.87552E-001	-1.00094E-001	0.00000E+000	-1.87729E-002	-9.94000E-001	3.53811E-002	2.83677E+001	11	...........	5.86828E-002	-4.65181E-003	5.87462E-001	5.79075E-001	-2.84010E-002	-3.88494E-002	6.81067E-001	-4.34090E-002	-5.87380E-003	4.65618E-004	-5.88014E-002	-5.79620E-002	2.84277E-003	3.88860E-003	-6.81707E-002	4.34498E-003
	2	3	1.01238E-001	-1.00094E-001	0.00000E+000	-1.01333E-002	-9.94000E-001	3.52122E-002	2.72524E+001	11	...........	5.83958E-002	-4.67458E-003	5.87385E-001	5.79074E-001	-2.84814E-002	-3.88343E-002	6.81049E-001	-4.33803E-002	-5.84509E-003	4.67899E-004	-5.87938E-002	-5.79620E-002	2.85082E-003	3.88709E-003	-6.81690E-002	4.34212E-003
	3	3.13167	5.47832E-002	-1.00095E-001	0.00000E+000	-5.48351E-003	-9.94000E-001	3.50316E-002	2.67123E+001	11	...........	5.80992E-002	-4.61920E-003	5.87563E-001	5.78985E-001	-2.84578E-002	-3.88059E-002	6.80939E-001	-4.32384E-002	-5.81541E-003	4.62357E-004	-5.88119E-002	-5.79533E-002	2.84847E-003	3.88426E-003	-6.81583E-002	4.32793E-003
	4	4	4.93920E-002	-7.95396E-002	0.00000E+000	-3.92862E-003	-7.89621E-001	3.54321E-002	2.73700E+001	11	...........	5.87844E-002	-4.64667E-003	5.87437E-001	5.79048E-001	-2.84059E-002	-3.88680E-002	6.80970E-001	-4.32772E-002	-4.67569E-003	3.69594E-004	-4.67245E-002	-4.60572E-002	2.25940E-003	3.09155E-003	-5.41641E-002	3.44225E-003
	5	5	4.96905E-002	-5.33858E-002	0.00000E+000	-2.65277E-003	-5.29619E-001	3.55335E-002	2.84677E+001	11	...........	5.90021E-002	-4.73639E-003	5.87430E-001	5.79107E-001	-2.84997E-002	-3.88925E-002	6.80954E-001	-4.33226E-002	-3.14987E-003	2.52856E-004	-3.13604E-002	-3.09161E-002	1.52148E-003	2.07631E-003	-3.63533E-002	2.31281E-003
	6	6	4.97991E-002	-3.85708E-002	0.00000E+000	-1.92079E-003	-3.82335E-001	3.55567E-002	2.93474E+001	11	...........	5.90507E-002	-4.66556E-003	5.87436E-001	5.79226E-001	-2.84881E-002	-3.89014E-002	6.80784E-001	-4.33619E-002	-2.27763E-003	1.79954E-004	-2.26579E-002	-2.23412E-002	1.09881E-003	1.50046E-003	-2.62584E-002	1.67251E-003
	7	7	4.98627E-002	-2.97567E-002	0.00000E+000	-1.48375E-003	-2.94714E-001	3.55744E-002	3.03565E+001	11	...........	5.90656E-002	-4.69556E-003	5.87601E-001	5.79271E-001	-2.84700E-002	-3.89115E-002	6.80835E-001	-4.33932E-002	-1.75759E-003	1.39724E-004	-1.74850E-002	-1.72372E-002	8.47172E-004	1.15788E-003	-2.02594E-002	1.29124E-003
	8	8	4.98910E-002	-2.43706E-002	0.00000E+000	-1.21587E-003	-2.41153E-001	3.56515E-002	3.11905E+001	11	...........	5.91767E-002	-4.77028E-003	5.87678E-001	5.79357E-001	-2.84968E-002	-3.88851E-002	6.80937E-001	-4.33596E-002	-1.44217E-003	1.16254E-004	-1.43221E-002	-1.41193E-002	6.94484E-004	9.47653E-004	-1.65948E-002	1.05670E-003
	9	9	4.99110E-002	-2.06836E-002	0.00000E+000	-1.03234E-003	-2.04496E-001	3.56420E-002	3.11050E+001	11	...........	5.91578E-002	-4.70764E-003	5.87654E-001	5.79382E-001	-2.84651E-002	-3.88901E-002	6.81040E-001	-4.35043E-002	-1.22359E-003	9.73708E-005	-1.21548E-002	-1.19837E-002	5.88761E-004	8.04387E-004	-1.40863E-002	8.99824E-004
	10	10	4.99226E-002	-1.79693E-002	0.00000E+000	-8.97072E-004	-1.77511E-001	3.56455E-002	3.14573E+001	11	...........	5.91625E-002	-4.72389E-003	5.87638E-001	5.79201E-001	-2.85046E-002	-3.88974E-002	6.81132E-001	-4.35283E-002	-1.06311E-003	8.48848E-005	-1.05594E-002	-1.04078E-002	5.12206E-004	6.98957E-004	-1.22394E-002	7.82172E-004
	11	11	4.99278E-002	-1.59441E-002	0.00000E+000	-7.96054E-004	-1.57356E-001	3.56681E-002	3.02506E+001	11	...........	5.92078E-002	-4.75528E-003	5.87560E-001	5.79223E-001	-2.84894E-002	-3.88971E-002	6.81118E-001	-4.34647E-002	-9.44014E-004	7.58186E-005	-9.36811E-003	-9.23517E-003	4.54238E-004	6.20178E-004	-1.08598E-002	6.93005E-004
	12	12	4.99387E-002	-1.45969E-002	0.00000E+000	-7.28949E-004	-1.43964E-001	3.57044E-002	3.10552E+001	11	...........	5.92501E-002	-4.77000E-003	5.87459E-001	5.79302E-001	-2.85119E-002	-3.89215E-002	6.81158E-001	-4.34197E-002	-8.64866E-004	6.96270E-005	-8.57505E-003	-8.45599E-003	4.16185E-004	5.68132E-004	-9.94277E-003	6.33791E-004
	13	13	4.99405E-002	-1.36002E-002	0.00000E+000	-6.79201E-004	-1.34038E-001	3.57625E-002	3.16363E+001	11	...........	5.93403E-002	-4.82042E-003	5.87682E-001	5.79295E-001	-2.85454E-002	-3.89071E-002	6.81195E-001	-4.34218E-002	-8.07039E-004	6.55586E-005	-7.99259E-003	-7.87853E-003	3.88223E-004	5.29144E-004	-9.26439E-003	5.90545E-004
	14	14	4.99426E-002	-1.26808E-002	0.00000E+000	-6.33312E-004	-1.24924E-001	3.57016E-002	3.10169E+001	11	...........	5.92506E-002	-4.77250E-003	5.87817E-001	5.79243E-001	-2.85528E-002	-3.89147E-002	6.81068E-001	-4.34637E-002	-7.51344E-004	6.05191E-005	-7.45399E-003	-7.34526E-003	3.62072E-004	4.93469E-004	-8.63648E-003	5.51155E-004
	15	15	4.99460E-002	-1.20202E-002	0.00000E+000	-6.00361E-004	-1.18343E-001	3.58779E-002	3.14317E+001	11	...........	5.95074E-002	-4.77014E-003	5.87767E-001	5.79196E-001	-2.85829E-002	-3.89056E-002	6.81041E-001	-4.33579E-002	-7.15290E-004	5.73380E-005	-7.06507E-003	-6.96204E-003	3.43572E-004	4.67652E-004	-8.18624E-003	5.21170E-004
	16	16	4.99445E-002	-1.14424E-002	0.00000E+000	-5.71486E-004	-1.12582E-001	3.56803E-002	3.10581E+001	11	...........	5.91918E-002	-4.86347E-003	5.87653E-001	5.79260E-001	-2.85250E-002	-3.88922E-002	6.80957E-001	-4.33244E-002	-6.77297E-004	5.56498E-005	-6.72416E-003	-6.62813E-003	3.26395E-004	4.45021E-004	-7.79178E-003	4.95736E-004
	17	17	4.99477E-002	-1.09902E-002	0.00000E+000	-5.48938E-004	-1.08078E-001	3.58709E-002	3.15301E+001	11	...........	5.95054E-002	-4.86986E-003	5.87542E-001	5.79320E-001	-2.85358E-002	-3.88753E-002	6.80935E-001	-4.33239E-002	-6.53979E-004	5.35210E-005	-6.45723E-003	-6.36687E-003	3.13616E-004	4.27249E-004	-7.48364E-003	4.76140E-004
	18	18	4.99470E-002	-1.05998E-002	0.00000E+000	-5.29428E-004	-1.04214E-001	3.58615E-002	3.15387E+001	11	...........	5.94801E-002	-4.75681E-003	5.87483E-001	5.79309E-001	-2.84881E-002	-3.88590E-002	6.80835E-001	-4.34322E-002	-6.30478E-004	5.04212E-005	-6.22721E-003	-6.14057E-003	3.01968E-004	4.11898E-004	-7.21672E-003	4.60373E-004
	19	19	4.99499E-002	-1.02505E-002	0.00000E+000	-5.12012E-004	-1.00777E-001	3.58532E-002	3.15727E+001	11	...........	5.94687E-002	-4.63875E-003	5.87517E-001	5.79457E-001	-2.85160E-002	-3.88665E-002	6.80912E-001	-4.34833E-002	-6.09585E-004	4.75496E-005	-6.02235E-003	-5.93973E-003	2.92303E-004	3.98402E-004	-6.97969E-003	4.45726E-004
	20	20	4.99478E-002	-9.93245E-003	0.00000E+000	-4.96104E-004	-9.76087E-002	3.57479E-002	3.15746E+001	11	...........	5.94483E-002	-4.72347E-003	5.87713E-001	5.79506E-001	-2.85890E-002	-3.88585E-002	6.81096E-001	-4.35726E-002	-5.90468E-004	4.69157E-005	-5.83743E-003	-5.75591E-003	2.83959E-004	3.85960E-004	-6.76495E-003	4.32783E-004
	21	21	4.99514E-002	-9.66919E-003	0.00000E+000	-4.82990E-004	-9.49900E-002	3.57001E-002	3.19814E+001	11	...........	5.94854E-002	-4.85361E-003	5.87814E-001	5.79498E-001	-2.85604E-002	-3.88374E-002	6.81008E-001	-4.36360E-002	-5.75176E-004	4.69305E-005	-5.68369E-003	-5.60328E-003	2.76156E-004	3.75526E-004	-6.58480E-003	4.21925E-004
	22	22	4.99500E-002	-9.43067E-003	0.00000E+000	-4.71062E-004	-9.26097E-002	3.56685E-002	3.20990E+001	11	...........	5.94119E-002	-4.81819E-003	5.87839E-001	5.79432E-001	-2.85231E-002	-3.88132E-002	6.81170E-001	-4.35803E-002	-5.60294E-004	4.54388E-005	-5.54372E-003	-5.46443E-003	2.68991E-004	3.66034E-004	-6.42388E-003	4.10991E-004
	23	23	4.99495E-002	-9.23425E-003	0.00000E+000	-4.61246E-004	-9.06440E-002	3.57387E-002	3.22210E+001	11	...........	5.95743E-002	-4.83556E-003	5.87872E-001	5.79330E-001	-2.85414E-002	-3.88244E-002	6.81031E-001	-4.36126E-002	-5.50124E-004	4.46527E-005	-5.42855E-003	-5.34967E-003	2.63558E-004	3.58514E-004	-6.28881E-003	4.02730E-004
	24	24	4.99514E-002	-9.04455E-003	0.00000E+000	-4.51788E-004	-8.87470E-002	3.58116E-002	3.20835E+001	11	...........	5.96487E-002	-4.74153E-003	5.87908E-001	5.79466E-001	-2.85857E-002	-3.88460E-002	6.81148E-001	-4.35621E-002	-5.39496E-004	4.28850E-005	-5.31736E-003	-5.24101E-003	2.58545E-004	3.51344E-004	-6.16067E-003	3.93999E-004
	25	25	4.99499E-002	-8.76551E-003	0.00000E+000	-4.37836E-004	-8.59757E-002	3.56411E-002	3.17697E+001	11	...........	5.93722E-002	-4.72097E-003	5.87826E-001	5.79511E-001	-2.85479E-002	-3.88685E-002	6.81118E-001	-4.35056E-002	-5.20428E-004	4.13817E-005	-5.15260E-003	-5.07971E-003	2.50237E-004	3.40702E-004	-5.97034E-003	3.81348E-004
	26	26	4.99506E-002	-8.59485E-003	0.00000E+000	-4.29318E-004	-8.42860E-002	3.57497E-002	3.23191E+001	11	...........	5.95707E-002	-4.80389E-003	5.87669E-001	5.79551E-001	-2.85192E-002	-3.88819E-002	6.81127E-001	-4.34387E-002	-5.12001E-004	4.12887E-005	-5.05093E-003	-4.98115E-003	2.45118E-004	3.34184E-004	-5.85419E-003	3.73349E-004
	27	27	4.99493E-002	-8.48990E-003	0.00000E+000	-4.24065E-004	-8.32387E-002	3.58849E-002	3.23021E+001	11	...........	5.98144E-002	-4.93306E-003	5.87659E-001	5.79386E-001	-2.85437E-002	-3.88819E-002	6.81054E-001	-4.35006E-002	-5.07819E-004	4.18811E-005	-4.98917E-003	-4.91893E-003	2.42334E-004	3.30104E-004	-5.78208E-003	3.69315E-004
	28	28	4.99517E-002	-8.25820E-003	0.00000E+000	-4.12511E-004	-8.09340E-002	3.57345E-002	3.21636E+001	11	...........	5.95586E-002	-4.78722E-003	5.87654E-001	5.79397E-001	-2.85146E-002	-3.88903E-002	6.81023E-001	-4.33158E-002	-4.91847E-004	3.95338E-005	-4.85296E-003	-4.78477E-003	2.35479E-004	3.21164E-004	-5.62402E-003	3.57711E-004
	29	29	4.99507E-002	-8.10015E-003	0.00000E+000	-4.04608E-004	-7.93580E-002	3.57563E-002	3.21833E+001	11	...........	5.95643E-002	-4.77986E-003	5.87443E-001	5.79414E-001	-2.85000E-002	-3.89285E-002	6.80880E-001	-4.33276E-002	-4.82480E-004	3.87176E-005	-4.75837E-003	-4.69334E-003	2.30854E-004	3.15326E-004	-5.51522E-003	3.50960E-004
	30	30	4.99520E-002	-7.95686E-003	0.00000E+000	-3.97461E-004	-7.79400E-002	3.57899E-002	3.20221E+001	11	...........	5.96464E-002	-4.77681E-003	5.87463E-001	5.79510E-001	-2.84833E-002	-3.89160E-002	6.80907E-001	-4.34069E-002	-4.74598E-004	3.80084E-005	-4.67436E-003	-4.61108E-003	2.26638E-004	3.09649E-004	-5.41789E-003	3.45383E-004
	31	31	4.99502E-002	-7.83423E-003	0.00000E+000	-3.91321E-004	-7.67343E-002	3.58429E-002	3.20861E+001	11	...........	5.97422E-002	-4.74833E-003	5.87415E-001	5.79488E-001	-2.84829E-002	-3.89107E-002	6.80868E-001	-4.33961E-002	-4.68034E-004	3.71995E-005	-4.60195E-003	-4.53984E-003	2.23142E-004	3.04835E-004	-5.33408E-003	3.39975E-004
	32	32	4.99519E-002	-7.70072E-003	0.00000E+000	-3.84666E-004	-7.54150E-002	3.58014E-002	3.21596E+001	11	...........	5.96585E-002	-4.65722E-003	5.87320E-001	5.79498E-001	-2.84546E-002	-3.88875E-002	6.80895E-001	-4.34071E-002	-4.59413E-004	3.58640E-005	-4.52279E-003	-4.46256E-003	2.19121E-004	2.99462E-004	-5.24338E-003	3.34266E-004
	33	33	4.99516E-002	-7.56596E-003	0.00000E+000	-3.77932E-004	-7.40710E-002	3.58965E-002	3.24208E+001	11	...........	5.98279E-002	-4.66361E-003	5.87265E-001	5.79551E-001	-2.84575E-002	-3.88958E-002	6.80983E-001	-4.34128E-002	-4.52656E-004	3.52847E-005	-4.44323E-003	-4.38486E-003	2.15308E-004	2.94284E-004	-5.15229E-003	3.28459E-004
	34	34	4.99507E-002	-7.45953E-003	0.00000E+000	-3.72608E-004	-7.30040E-002	3.58190E-002	3.23324E+001	11	...........	5.97047E-002	-4.76389E-003	5.87062E-001	5.79387E-001	-2.84957E-002	-3.89026E-002	6.81019E-001	-4.35085E-002	-4.45369E-004	3.55364E-005	-4.37921E-003	-4.32195E-003	2.12564E-004	2.90195E-004	-5.08008E-003	3.24553E-004
	35	35	4.99520E-002	-7.32805E-003	0.00000E+000	-3.66051E-004	-7.16970E-002	3.58482E-002	3.23467E+001	11	...........	5.97553E-002	-4.90958E-003	5.86894E-001	5.79244E-001	-2.84801E-002	-3.88897E-002	6.81118E-001	-4.34814E-002	-4.37890E-004	3.59777E-005	-4.30079E-003	-4.24473E-003	2.08704E-004	2.84986E-004	-4.99127E-003	3.18634E-004
	36	36	4.99519E-002	-7.23287E-003	0.00000E+000	-3.61295E-004	-7.07583E-002	3.58569E-002	3.23128E+001	11	...........	5.97646E-002	-4.96958E-003	5.86787E-001	5.79271E-001	-2.84783E-002	-3.88660E-002	6.80989E-001	-4.34410E-002	-4.32269E-004	3.59443E-005	-4.24416E-003	-4.18979E-003	2.05980E-004	2.81112E-004	-4.92551E-003	3.14203E-004
	37	37	4.99515E-002	-7.07913E-003	0.00000E+000	-3.53613E-004	-6.92297E-002	3.58485E-002	3.22679E+001	11	...........	5.97456E-002	-4.88792E-003	5.86828E-001	5.79229E-001	-2.85043E-002	-3.88901E-002	6.80906E-001	-4.35275E-002	-4.22947E-004	3.46022E-005	-4.15423E-003	-4.10044E-003	2.01786E-004	2.75308E-004	-4.82022E-003	3.08137E-004
	38	38	4.99525E-002	-7.01423E-003	0.00000E+000	-3.50378E-004	-6.85820E-002	3.59051E-002	3.26669E+001	11	...........	5.98617E-002	-4.87347E-003	5.86829E-001	5.79298E-001	-2.84790E-002	-3.89025E-002	6.81091E-001	-4.34790E-002	-4.19883E-004	3.41836E-005	-4.11615E-003	-4.06333E-003	1.99758E-004	2.72871E-004	-4.77732E-003	3.04972E-004
	39	39	4.99512E-002	-6.91335E-003	0.00000E+000	-3.45330E-004	-6.75810E-002	3.58733E-002	3.23575E+001	11	...........	5.98024E-002	-4.83417E-003	5.86910E-001	5.79296E-001	-2.85336E-002	-3.88953E-002	6.81198E-001	-4.34728E-002	-4.13435E-004	3.34203E-005	-4.05752E-003	-4.00488E-003	1.97263E-004	2.68897E-004	-4.70936E-003	3.00543E-004
	40	40	4.99512E-002	-6.80223E-003	0.00000E+000	-3.39780E-004	-6.64793E-002	3.59148E-002	3.24123E+001	11	...........	5.98726E-002	-4.78069E-003	5.87003E-001	5.79373E-001	-2.85507E-002	-3.88929E-002	6.81288E-001	-4.34293E-002	-4.07267E-004	3.25194E-005	-3.99293E-003	-3.94103E-003	1.94208E-004	2.64559E-004	-4.63428E-003	2.95416E-004
	41	41	4.99525E-002	-6.70440E-003	0.00000E+000	-3.34902E-004	-6.54923E-002	3.59422E-002	3.30046E+001	11	...........	5.99001E-002	-4.80153E-003	5.87259E-001	5.79328E-001	-2.84654E-002	-3.89107E-002	6.81266E-001	-4.35962E-002	-4.01595E-004	3.21914E-005	-3.93722E-003	-3.88405E-003	1.90844E-004	2.60873E-004	-4.56748E-003	2.92287E-004
	42	42	4.99517E-002	-6.57160E-003	0.00000E+000	-3.28263E-004	-6.41433E-002	3.58940E-002	3.20060E+001	11	...........	5.98150E-002	-4.70708E-003	5.87408E-001	5.79560E-001	-2.84981E-002	-3.89028E-002	6.81114E-001	-4.35781E-002	-3.93080E-004	3.09331E-005	-3.86021E-003	-3.80864E-003	1.87278E-004	2.55654E-004	-4.47601E-003	2.86378E-004
	43	43	4.99525E-002	-6.49096E-003	0.00000E+000	-3.24240E-004	-6.33563E-002	3.58978E-002	3.24886E+001	11	...........	5.98256E-002	-4.62958E-003	5.87355E-001	5.79643E-001	-2.85100E-002	-3.89203E-002	6.81101E-001	-4.35175E-002	-3.88325E-004	3.00504E-005	-3.81250E-003	-3.76244E-003	1.85057E-004	2.52630E-004	-4.42100E-003	2.82470E-004
	44	44	4.99518E-002	-6.44593E-003	0.00000E+000	-3.21986E-004	-6.29137E-002	3.59922E-002	3.30415E+001	11	...........	5.99944E-002	-4.76083E-003	5.87433E-001	5.79685E-001	-2.84743E-002	-3.89547E-002	6.81115E-001	-4.34736E-002	-3.86720E-004	3.06880E-005	-3.78655E-003	-3.73661E-003	1.83543E-004	2.51099E-004	-4.39042E-003	2.80228E-004
	45	45	4.99517E-002	-6.34820E-003	0.00000E+000	-3.17103E-004	-6.19387E-002	3.59281E-002	3.26148E+001	11	...........	5.99392E-002	-4.73125E-003	5.87511E-001	5.79663E-001	-2.84767E-002	-3.89608E-002	6.81103E-001	-4.35540E-002	-3.80506E-004	3.00349E-005	-3.72964E-003	-3.67982E-003	1.80776E-004	2.47331E-004	-4.32378E-003	2.76490E-004
	46	46	4.99510E-002	-6.24598E-003	0.00000E+000	-3.11993E-004	-6.09237E-002	3.59762E-002	3.31201E+001	11	...........	6.00039E-002	-4.74917E-003	5.87577E-001	5.79723E-001	-2.85365E-002	-3.89358E-002	6.81214E-001	-4.35531E-002	-3.74783E-004	2.96632E-005	-3.66999E-003	-3.62094E-003	1.78239E-004	2.43192E-004	-4.25485E-003	2.72032E-004
	47	47	4.99520E-002	-6.14373E-003	0.00000E+000	-3.06892E-004	-5.99013E-002	3.59388E-002	3.18552E+001	11	...........	5.99167E-002	-4.77944E-003	5.87752E-001	5.79780E-001	-2.85636E-002	-3.89515E-002	6.81195E-001	-4.35456E-002	-3.68112E-004	2.93636E-005	-3.61099E-003	-3.56201E-003	1.75487E-004	2.39308E-004	-4.18508E-003	2.67532E-004
	48	48	4.99531E-002	-6.06204E-003	0.00000E+000	-3.02818E-004	-5.90903E-002	3.59356E-002	3.24178E+001	11	...........	5.99097E-002	-4.78292E-003	5.87728E-001	5.79811E-001	-2.85492E-002	-3.89775E-002	6.81121E-001	-4.35635E-002	-3.63175E-004	2.89942E-005	-3.56283E-003	-3.51484E-003	1.73066E-004	2.36283E-004	-4.12898E-003	2.64084E-004
	49	49	4.99522E-002	-6.03505E-003	0.00000E+000	-3.01464E-004	-5.88273E-002	3.60583E-002	3.24664E+001	11	...........	6.01126E-002	-4.84931E-003	5.87797E-001	5.79798E-001	-2.84956E-002	-3.89862E-002	6.81221E-001	-4.35268E-002	-3.62783E-004	2.92658E-005	-3.54738E-003	-3.49911E-003	1.71972E-004	2.35284E-004	-4.11120E-003	2.62686E-004
	50	50	4.99521E-002	-5.92099E-003	0.00000E+000	-2.95766E-004	-5.76827E-002	3.59362E-002	3.25551E+001	11	...........	5.98964E-002	-4.84542E-003	5.87715E-001	5.79834E-001	-2.85169E-002	-3.90008E-002	6.81175E-001	-4.35531E-002	-3.54646E-004	2.86897E-005	-3.47986E-003	-3.43320E-003	1.68849E-004	2.30924E-004	-4.03323E-003	2.57877E-004
	51	51	4.99526E-002	-5.86868E-003	0.00000E+000	-2.93156E-004	-5.71710E-002	3.60127E-002	3.23912E+001	11	...........	6.00456E-002	-4.88139E-003	5.87828E-001	5.79823E-001	-2.85326E-002	-3.89779E-002	6.80976E-001	-4.34449E-002	-3.52388E-004	2.86473E-005	-3.44978E-003	-3.40280E-003	1.67449E-004	2.28749E-004	-3.99643E-003	2.54964E-004
	52	52	4.99515E-002	-5.81396E-003	0.00000E+000	-2.90416E-004	-5.66287E-002	3.60564E-002	3.29726E+001	11	...........	6.01183E-002	-4.87306E-003	5.88027E-001	5.79872E-001	-2.84871E-002	-3.89515E-002	6.80798E-001	-4.34176E-002	-3.49525E-004	2.83317E-005	-3.41876E-003	-3.37135E-003	1.65623E-004	2.26463E-004	-3.95813E-003	2.52428E-004
	53	53	4.99527E-002	-5.74016E-003	0.00000E+000	-2.86736E-004	-5.58977E-002	3.60282E-002	3.24472E+001	11	...........	6.00860E-002	-4.88986E-003	5.87949E-001	5.79824E-001	-2.84785E-002	-3.89511E-002	6.80902E-001	-4.34690E-002	-3.44903E-004	2.80686E-005	-3.37492E-003	-3.32828E-003	1.63471E-004	2.23585E-004	-3.90848E-003	2.49519E-004
	54	54	4.99521E-002	-5.67351E-003	0.00000E+000	-2.83404E-004	-5.52350E-002	3.60044E-002	3.28673E+001	11	...........	6.00437E-002	-4.91903E-003	5.87906E-001	5.79751E-001	-2.85208E-002	-3.89375E-002	6.80983E-001	-4.35735E-002	-3.40659E-004	2.79081E-005	-3.33549E-003	-3.28923E-003	1.61813E-004	2.20912E-004	-3.86357E-003	2.47214E-004
	55	55	4.99525E-002	-5.62704E-003	0.00000E+000	-2.81085E-004	-5.47703E-002	3.60246E-002	3.29119E+001	11	...........	6.00649E-002	-4.92458E-003	5.87972E-001	5.79738E-001	-2.84896E-002	-3.89489E-002	6.80938E-001	-4.35108E-002	-3.37987E-004	2.77108E-005	-3.30854E-003	-3.26221E-003	1.60312E-004	2.19167E-004	-3.83166E-003	2.44837E-004
	56	56	4.99518E-002	-5.53960E-003	0.00000E+000	-2.76713E-004	-5.38990E-002	3.60526E-002	3.28764E+001	11	...........	6.00949E-002	-4.74250E-003	5.87941E-001	5.79694E-001	-2.84719E-002	-3.89536E-002	6.81030E-001	-4.35568E-002	-3.32902E-004	2.62716E-005	-3.25696E-003	-3.21128E-003	1.57723E-004	2.15788E-004	-3.77264E-003	2.41287E-004
	57	57	4.99528E-002	-5.48807E-003	0.00000E+000	-2.74144E-004	-5.33903E-002	3.60300E-002	3.30462E+001	11	...........	6.00942E-002	-4.77486E-003	5.87985E-001	5.79711E-001	-2.85089E-002	-3.89481E-002	6.81052E-001	-4.34599E-002	-3.29801E-004	2.62048E-005	-3.22690E-003	-3.18149E-003	1.56459E-004	2.13750E-004	-3.73766E-003	2.38511E-004
	58	58	4.99518E-002	-5.35013E-003	0.00000E+000	-2.67249E-004	-5.20270E-002	3.59288E-002	3.19174E+001	11	...........	5.98953E-002	-4.81944E-003	5.87941E-001	5.79923E-001	-2.85078E-002	-3.89360E-002	6.81116E-001	-4.34751E-002	-3.20448E-004	2.57847E-005	-3.14556E-003	-3.10267E-003	1.52520E-004	2.08313E-004	-3.64406E-003	2.32598E-004
	59	59	4.99517E-002	-5.28820E-003	0.00000E+000	-2.64154E-004	-5.14157E-002	3.59797E-002	3.17971E+001	11	...........	5.99928E-002	-4.78750E-003	5.87957E-001	5.80015E-001	-2.85581E-002	-3.89162E-002	6.81008E-001	-4.35251E-002	-3.17254E-004	2.53172E-005	-3.10923E-003	-3.06723E-003	1.51021E-004	2.05797E-004	-3.60130E-003	2.30170E-004
	60	60	4.99532E-002	-5.29129E-003	0.00000E+000	-2.64317E-004	-5.14447E-002	3.61746E-002	3.26502E+001	11	...........	6.03115E-002	-4.79181E-003	5.88122E-001	5.80127E-001	-2.85221E-002	-3.89131E-002	6.81082E-001	-4.35318E-002	-3.19126E-004	2.53548E-005	-3.11192E-003	-3.06962E-003	1.50919E-004	2.05900E-004	-3.60380E-003	2.30339E-004
	61	61	4.99520E-002	-5.22253E-003	0.00000E+000	-2.60876E-004	-5.07727E-002	3.60964E-002	3.25306E+001	11	...........	6.01786E-002	-4.75125E-003	5.88242E-001	5.80071E-001	-2.85082E-002	-3.89018E-002	6.81065E-001	-4.35271E-002	-3.14285E-004	2.48136E-005	-3.07211E-003	-3.02944E-003	1.48885E-004	2.03166E-004	-3.55689E-003	2.27322E-004
	62	62	4.99527E-002	-5.17200E-003	0.00000E+000	-2.58355E-004	-5.02737E-002	3.61222E-002	3.26549E+001	11	...........	6.02364E-002	-4.72167E-003	5.88351E-001	5.80010E-001	-2.85185E-002	-3.89618E-002	6.80989E-001	-4.35385E-002	-3.11542E-004	2.44204E-005	-3.04295E-003	-2.99981E-003	1.47497E-004	2.01510E-004	-3.52207E-003	2.25181E-004
	63	63	4.99525E-002	-5.12455E-003	0.00000E+000	-2.55984E-004	-4.97990E-002	3.60919E-002	3.29330E+001	11	...........	6.01908E-002	-4.80722E-003	5.88312E-001	5.79899E-001	-2.84950E-002	-3.89856E-002	6.80861E-001	-4.35910E-002	-3.08451E-004	2.46348E-005	-3.01483E-003	-2.97172E-003	1.46024E-004	1.99783E-004	-3.48911E-003	2.23384E-004
	64	63.68	4.99511E-002	-5.09308E-003	0.00000E+000	-2.54405E-004	-4.94804E-002	3.62083E-002	3.26888E+001	11	...........	6.03450E-002	-4.82945E-003	5.88371E-001	5.79858E-001	-2.85280E-002	-3.89894E-002	6.80931E-001	-4.35233E-002	-3.07342E-004	2.45968E-005	-2.99662E-003	-2.95326E-003	1.45295E-004	1.98576E-004	-3.46804E-003	2.21668E-004
STARTTIMEOFFSET	QUANT	874125.1	Start Time Offset (s)
