EXPLAIN
TAG	PWR800_DISCHARGE
TITLE	LABEL	PWR Discharge	Test Identifier
DATE	LABEL	10/12/2022	Date
TIME	LABEL	3:03:10	Time
NOTES	NOTES	1	Notes...
	
PSTAT	PSTAT	REF3000-21114	Potentiostat
CAPACITY	QUANT	5.30000E-002	Capacity (A-hr)
CELLTYPE	SELECTOR	1	Cell Type
WORKINGCONNECTION	SELECTOR	0	Working Connection
MAXDISCHARGETIME	VARIABLEANDUNITS	7.20000E+003	s	2.00000E+000	hour(s)	Max Discharge Time
DISCHARGEMODE	MULTIPARAM	0	1.00000E-001	Discharge Mode	Constant Current	Amp(s)
VOLTAGEFINISH	TWOPARAM	T	5.00000E-003	7.20000E+003	Voltage Finish	I (A) <	Max Time(s)
SAMPLETIME	QUANT	1.00000E+000	Sample Period (s)
DISCHARGESTOPAT1	MULTIPARAM	1	5.00000E-002	Stop At 1	|Voltage| < Limit	V
DISCHARGESTOPAT2	MULTIPARAM	0	0.00000E+000	Stop At 2	None	N/A
AESELECTOR	AESELECTOR	0x1	T	Set Limits	AE Channels
AESBHCSELECTOR	TOGGLE	F	Save Both Half Cells
IRCOMP	TOGGLE	F	IR Measure
EOC	QUANT	0.5546159	Open Circuit (V)
SEQUENCER	TOGGLE	TRUE	Run as Sequence
PSTATMODEL	IQUANT	5	Pstat Model
PSTATSECTION	LABEL	REF3000-21114	Pstat Section
PSTATSERIALNO	LABEL	21114	Pstat Serial Number
CTRLMODE	IQUANT	0	Control Mode
ELECTROMETER	IQUANT	0	RE=0 or CS=1
IESTAB	IQUANT	0	I/E Stability
CASPEED	IQUANT	4	Control Amp Speed
CONVENTION	IQUANT	1	Current Convention
ICHRANGE	IQUANT	2	Ich Range
ICHRANGEMODE	TOGGLE	T	Ich Auto Range
ICHOFFSETENABLE	TOGGLE	F	Ich Offset Enable
ICHOFFSET	QUANT	0	Ich Offset (V)
ICHFILTER	IQUANT	1	Ich Filter
VCHRANGE	IQUANT	3	Vch Range
VCHRANGEMODE	TOGGLE	T	Vch Auto Range
VCHOFFSETENABLE	TOGGLE	F	Vch Offset Enable
VCHOFFSET	QUANT	0	Vch Offset (V)
VCHFILTER	IQUANT	1	Vch Filter
ACHRANGE	IQUANT	2	Ach Range
ACHOFFSETENABLE	TOGGLE	F	Ach Offset Enable
ACHOFFSET	QUANT	0	Ach Offset (V)
ACHFILTER	IQUANT	1	Ach Filter
IERANGELOWERLIMIT	IQUANT	9	I/E Range Lower Limit
IERANGEMODE	TOGGLE	F	I/E AutoRange
IERANGE	IQUANT	9	I/E Range
POSFEEDENABLE	TOGGLE	F	Positive Feedback IR Comp
POSFEEDRESISTANCE	QUANT	0	Positive Feedback Resistance (ohm)
ACHSELECT	IQUANT	1	Ach Select
SENSECABLEID	IQUANT	13	Sense Cable ID
PWRCABLEID	IQUANT	13	Power Cable ID
DCCALDATE	LABEL		DC Calibration Date
ACCALDATE	LABEL		AC Calibration Date
THERMOSELECT	IQUANT	1	Thermo Select
FRAMEWORKVERSION	LABEL	7.8.6	Framework Version
INSTRUMENTVERSION	LABEL	4.50	Instrument Version
COMPLIANCEVOLTAGE	IQUANT	0	Compliance Voltage
CURVE	TABLE	141
	Pt	T	Vf	Im	Vu	Pwr	Sig	Ach	Temp	IERange	Over	Vf1	Vf2	Vf3	Vf4	Vf5	Vf6	Vf7	Vf8	Pwr1	Pwr2	Pwr3	Pwr4	Pwr5	Pwr6	Pwr7	Pwr8
	#	s	V	A	V	W	V	V	deg C	#	bits	V	V	V	V	V	V	V	V	W	W	W	W	W	W	W	W
	0	1	3.38366E-001	-1.00084E-001	0.00000E+000	-3.38651E-002	-9.94000E-001	3.28937E-002	2.69030E+001	11	...........	5.45489E-002	-3.88708E-003	5.62022E-001	6.51712E-001	-2.99899E-002	-3.94635E-002	6.49783E-001	-4.29799E-002	-5.45948E-003	3.89036E-004	-5.62495E-002	-6.52260E-002	3.00151E-003	3.94967E-003	-6.50330E-002	4.30160E-003
	1	2	2.42820E-001	-1.00085E-001	0.00000E+000	-2.43025E-002	-9.94000E-001	3.30114E-002	2.64084E+001	11	...........	5.47587E-002	-3.99931E-003	5.61790E-001	6.51846E-001	-2.99737E-002	-3.94729E-002	6.49935E-001	-4.29575E-002	-5.48051E-003	4.00269E-004	-5.62265E-002	-6.52397E-002	2.99991E-003	3.95063E-003	-6.50484E-002	4.29938E-003
	2	3	1.64717E-001	-1.00085E-001	0.00000E+000	-1.64857E-002	-9.94000E-001	3.29087E-002	2.58663E+001	11	...........	5.45676E-002	-3.98986E-003	5.61747E-001	6.51914E-001	-2.99447E-002	-3.94908E-002	6.49968E-001	-4.29963E-002	-5.46140E-003	3.99325E-004	-5.62224E-002	-6.52468E-002	2.99702E-003	3.95244E-003	-6.50520E-002	4.30328E-003
	3	4	9.46641E-002	-1.00085E-001	0.00000E+000	-9.47450E-003	-9.94000E-001	3.28792E-002	2.55970E+001	11	...........	5.45376E-002	-4.00750E-003	5.61740E-001	6.51983E-001	-2.99571E-002	-3.94765E-002	6.50053E-001	-4.31004E-002	-5.45842E-003	4.01092E-004	-5.62220E-002	-6.52540E-002	2.99827E-003	3.95103E-003	-6.50609E-002	4.31372E-003
	4	4.20167	5.59274E-002	-1.00085E-001	0.00000E+000	-5.59748E-003	-9.94000E-001	3.28835E-002	2.55748E+001	11	...........	5.45220E-002	-3.82920E-003	5.61865E-001	6.52080E-001	-2.99428E-002	-3.94587E-002	6.49972E-001	-4.30517E-002	-5.45683E-003	3.83245E-004	-5.62342E-002	-6.52633E-002	2.99682E-003	3.94922E-003	-6.50523E-002	4.30882E-003
	5	5	4.95057E-002	-8.29369E-002	0.00000E+000	-4.10585E-003	-8.23493E-001	3.30052E-002	2.58815E+001	11	...........	5.47550E-002	-3.82707E-003	5.61785E-001	6.52109E-001	-2.99736E-002	-3.94442E-002	6.49806E-001	-4.31989E-002	-4.54121E-003	3.17405E-004	-4.65927E-002	-5.40839E-002	2.48591E-003	3.27137E-003	-5.38929E-002	3.58278E-003
	6	6	4.97322E-002	-6.04552E-002	0.00000E+000	-3.00657E-003	-5.99985E-001	3.31835E-002	2.63058E+001	11	...........	5.50401E-002	-3.93292E-003	5.61903E-001	6.52076E-001	-2.99619E-002	-3.94542E-002	6.49746E-001	-4.31989E-002	-3.32746E-003	2.37765E-004	-3.39700E-002	-3.94214E-002	1.81136E-003	2.38521E-003	-3.92805E-002	2.61160E-003
	7	7	4.98582E-002	-4.79643E-002	0.00000E+000	-2.39141E-003	-4.75804E-001	3.32268E-002	2.66944E+001	11	...........	5.51007E-002	-4.03819E-003	5.62103E-001	6.51796E-001	-2.99374E-002	-3.94415E-002	6.49975E-001	-4.32253E-002	-2.64287E-003	1.93689E-004	-2.69609E-002	-3.12629E-002	1.43592E-003	1.89178E-003	-3.11756E-002	2.07327E-003
	8	8	4.98978E-002	-4.05806E-002	0.00000E+000	-2.02488E-003	-4.02393E-001	3.31837E-002	2.72617E+001	11	...........	5.50239E-002	-4.02569E-003	5.61959E-001	6.51732E-001	-2.99828E-002	-3.94387E-002	6.49922E-001	-4.30390E-002	-2.23290E-003	1.63365E-004	-2.28047E-002	-2.64477E-002	1.21672E-003	1.60045E-003	-2.63742E-002	1.74655E-003
	9	9	4.99282E-002	-3.62008E-002	0.00000E+000	-1.80744E-003	-3.58844E-001	3.33748E-002	2.73920E+001	11	...........	5.53601E-002	-4.00056E-003	5.61910E-001	6.51689E-001	-2.99846E-002	-3.94053E-002	6.49880E-001	-4.28911E-002	-2.00408E-003	1.44823E-004	-2.03416E-002	-2.35917E-002	1.08547E-003	1.42650E-003	-2.35262E-002	1.55269E-003
	10	10	4.99216E-002	-3.27221E-002	0.00000E+000	-1.63354E-003	-3.24253E-001	3.32391E-002	2.72595E+001	11	...........	5.51276E-002	-3.96417E-003	5.61777E-001	6.51761E-001	-2.99517E-002	-3.94087E-002	6.49983E-001	-4.29583E-002	-1.80389E-003	1.29716E-004	-1.83825E-002	-2.13270E-002	9.80082E-004	1.28954E-003	-2.12688E-002	1.40569E-003
	11	11	4.99502E-002	-3.07074E-002	0.00000E+000	-1.53384E-003	-3.04224E-001	3.34352E-002	2.74792E+001	11	...........	5.54418E-002	-3.95806E-003	5.61822E-001	6.51739E-001	-2.99836E-002	-3.94029E-002	6.49852E-001	-4.30147E-002	-1.70247E-003	1.21542E-004	-1.72521E-002	-2.00132E-002	9.20719E-004	1.20996E-003	-1.99553E-002	1.32087E-003
	12	12	4.99512E-002	-2.90226E-002	0.00000E+000	-1.44971E-003	-2.87497E-001	3.34408E-002	2.76879E+001	11	...........	5.54535E-002	-4.00028E-003	5.61821E-001	6.51789E-001	-2.99890E-002	-3.93867E-002	6.49781E-001	-4.29451E-002	-1.60940E-003	1.16099E-004	-1.63055E-002	-1.89166E-002	8.70360E-004	1.14310E-003	-1.88584E-002	1.24638E-003
	13	13	4.99562E-002	-2.74696E-002	0.00000E+000	-1.37228E-003	-2.72041E-001	3.34262E-002	2.75842E+001	11	...........	5.54218E-002	-4.04917E-003	5.61942E-001	6.51790E-001	-3.00060E-002	-3.93983E-002	6.49859E-001	-4.29394E-002	-1.52241E-003	1.11229E-004	-1.54363E-002	-1.79044E-002	8.24251E-004	1.08225E-003	-1.78514E-002	1.17953E-003
	14	14	4.99584E-002	-2.67785E-002	0.00000E+000	-1.33781E-003	-2.65173E-001	3.34177E-002	2.80223E+001	11	...........	5.54276E-002	-3.95181E-003	5.62235E-001	6.51778E-001	-3.00019E-002	-3.94033E-002	6.49786E-001	-4.29469E-002	-1.48427E-003	1.05824E-004	-1.50558E-002	-1.74537E-002	8.03408E-004	1.05516E-003	-1.74003E-002	1.15006E-003
	15	15	4.99652E-002	-2.58436E-002	0.00000E+000	-1.29128E-003	-2.55874E-001	3.35311E-002	2.78644E+001	11	...........	5.56317E-002	-3.93708E-003	5.62249E-001	6.51938E-001	-3.00087E-002	-3.93676E-002	6.49788E-001	-4.28481E-002	-1.43772E-003	1.01748E-004	-1.45305E-002	-1.68484E-002	7.75533E-004	1.01740E-003	-1.67928E-002	1.10735E-003
	16	16	4.99572E-002	-2.51792E-002	0.00000E+000	-1.25789E-003	-2.49263E-001	3.34190E-002	2.79173E+001	11	...........	5.54189E-002	-3.99611E-003	5.62241E-001	6.51998E-001	-2.99896E-002	-3.93446E-002	6.49772E-001	-4.29336E-002	-1.39540E-003	1.00619E-004	-1.41568E-002	-1.64168E-002	7.55115E-004	9.90666E-004	-1.63608E-002	1.08104E-003
	17	17	4.99605E-002	-2.48451E-002	0.00000E+000	-1.24127E-003	-2.45935E-001	3.36644E-002	2.78384E+001	11	...........	5.58367E-002	-3.99000E-003	5.62143E-001	6.52029E-001	-2.99549E-002	-3.93265E-002	6.49812E-001	-4.29293E-002	-1.38727E-003	9.91320E-005	-1.39665E-002	-1.61997E-002	7.44232E-004	9.77072E-004	-1.61447E-002	1.06658E-003
	18	18	4.99518E-002	-2.35594E-002	0.00000E+000	-1.17683E-003	-2.33161E-001	3.34251E-002	2.82069E+001	11	...........	5.54206E-002	-3.89264E-003	5.62129E-001	6.52000E-001	-2.99578E-002	-3.93294E-002	6.49799E-001	-4.30426E-002	-1.30568E-003	9.17083E-005	-1.32434E-002	-1.53607E-002	7.05788E-004	9.26579E-004	-1.53089E-002	1.01406E-003
	19	19	4.99710E-002	-2.35031E-002	0.00000E+000	-1.17447E-003	-2.32601E-001	3.37398E-002	2.81718E+001	11	...........	5.59297E-002	-3.88125E-003	5.62184E-001	6.51905E-001	-2.99778E-002	-3.93128E-002	6.49796E-001	-4.30108E-002	-1.31452E-003	9.12213E-005	-1.32130E-002	-1.53218E-002	7.04570E-004	9.23971E-004	-1.52722E-002	1.01089E-003
	20	20	4.99580E-002	-2.29451E-002	0.00000E+000	-1.14629E-003	-2.27052E-001	3.34132E-002	2.81269E+001	11	...........	5.55765E-002	-3.87625E-003	5.62209E-001	6.51972E-001	-3.00003E-002	-3.92857E-002	6.50032E-001	-4.30612E-002	-1.27521E-003	8.89408E-005	-1.28999E-002	-1.49595E-002	6.88358E-004	9.01413E-004	-1.49150E-002	9.88043E-004
	21	21	4.99562E-002	-2.22378E-002	0.00000E+000	-1.11092E-003	-2.20008E-001	3.34505E-002	2.80731E+001	11	...........	5.57768E-002	-3.95333E-003	5.62167E-001	6.52055E-001	-2.99962E-002	-3.92764E-002	6.50103E-001	-4.31612E-002	-1.24035E-003	8.79135E-005	-1.25014E-002	-1.45003E-002	6.67051E-004	8.73421E-004	-1.44569E-002	9.59812E-004
	22	22	4.99675E-002	-2.16469E-002	0.00000E+000	-1.08164E-003	-2.14136E-001	3.33181E-002	2.80224E+001	11	...........	5.55707E-002	-3.89597E-003	5.62136E-001	6.51907E-001	-3.00210E-002	-3.92904E-002	6.49978E-001	-4.31147E-002	-1.20293E-003	8.43356E-005	-1.21685E-002	-1.41118E-002	6.49860E-004	8.50515E-004	-1.40700E-002	9.33299E-004
	23	23	4.99603E-002	-2.14881E-002	0.00000E+000	-1.07355E-003	-2.12555E-001	3.35396E-002	2.81055E+001	11	...........	5.59314E-002	-4.09403E-003	5.62193E-001	6.51876E-001	-3.00421E-002	-3.92982E-002	6.49883E-001	-4.31178E-002	-1.20186E-003	8.79729E-005	-1.20805E-002	-1.40076E-002	6.45548E-004	8.44444E-004	-1.39648E-002	9.26520E-004
	24	24	4.99710E-002	-2.02342E-002	0.00000E+000	-1.01112E-003	-2.00093E-001	3.35020E-002	2.77841E+001	11	...........	5.58679E-002	-4.12792E-003	5.62206E-001	6.52035E-001	-3.00399E-002	-3.93285E-002	6.49794E-001	-4.31333E-002	-1.13044E-003	8.35249E-005	-1.13758E-002	-1.31934E-002	6.07831E-004	7.95778E-004	-1.31480E-002	8.72766E-004
	25	25	4.99566E-002	-2.00213E-002	0.00000E+000	-1.00020E-003	-1.97977E-001	3.31986E-002	2.82958E+001	11	...........	5.53726E-002	-4.07778E-003	5.62238E-001	6.52049E-001	-3.00433E-002	-3.93331E-002	6.50005E-001	-4.30581E-002	-1.10863E-003	8.16424E-005	-1.12567E-002	-1.30549E-002	6.01507E-004	7.87499E-004	-1.30140E-002	8.62078E-004
	26	26	4.99753E-002	-1.99231E-002	0.00000E+000	-9.95661E-004	-1.97004E-001	3.37176E-002	2.78892E+001	11	...........	5.62187E-002	-4.01653E-003	5.62436E-001	6.52247E-001	-3.00918E-002	-3.93443E-002	6.50087E-001	-4.31168E-002	-1.12005E-003	8.00216E-005	-1.12055E-002	-1.29948E-002	5.99522E-004	7.83860E-004	-1.29517E-002	8.59020E-004
	27	27	4.99623E-002	-1.95033E-002	0.00000E+000	-9.74431E-004	-1.92825E-001	3.34412E-002	2.84540E+001	11	...........	5.57714E-002	-4.02597E-003	5.62313E-001	6.52177E-001	-3.00546E-002	-3.93575E-002	6.50023E-001	-4.32060E-002	-1.08773E-003	7.85198E-005	-1.09670E-002	-1.27196E-002	5.86164E-004	7.67601E-004	-1.26776E-002	8.42659E-004
	28	28	4.99644E-002	-1.94344E-002	0.00000E+000	-9.71029E-004	-1.92141E-001	3.35380E-002	2.84317E+001	11	...........	5.59376E-002	-3.95556E-003	5.62365E-001	6.51907E-001	-3.00503E-002	-3.93743E-002	6.50122E-001	-4.31426E-002	-1.08711E-003	7.68739E-005	-1.09292E-002	-1.26694E-002	5.84009E-004	7.65216E-004	-1.26347E-002	8.38451E-004
	29	29	4.99600E-002	-1.90641E-002	0.00000E+000	-9.52443E-004	-1.88465E-001	3.35759E-002	2.86403E+001	11	...........	5.59978E-002	-4.03319E-003	5.62363E-001	6.51940E-001	-3.00354E-002	-3.93651E-002	6.50021E-001	-4.31290E-002	-1.06755E-003	7.68892E-005	-1.07209E-002	-1.24286E-002	5.72598E-004	7.50461E-004	-1.23921E-002	8.22216E-004
	30	30	4.99651E-002	-1.82281E-002	0.00000E+000	-9.10771E-004	-1.80149E-001	3.36022E-002	2.83489E+001	11	...........	5.60249E-002	-4.02639E-003	5.62421E-001	6.52043E-001	-3.00700E-002	-3.93765E-002	6.50018E-001	-4.31417E-002	-1.02123E-003	7.33935E-005	-1.02519E-002	-1.18855E-002	5.48120E-004	7.17760E-004	-1.18486E-002	7.86392E-004
	31	31	4.99656E-002	-1.86174E-002	0.00000E+000	-9.30232E-004	-1.84021E-001	3.35316E-002	2.87302E+001	11	...........	5.59235E-002	-4.04292E-003	5.62374E-001	6.52031E-001	-3.00374E-002	-3.93699E-002	6.49917E-001	-4.32104E-002	-1.04115E-003	7.52688E-005	-1.04700E-002	-1.21391E-002	5.59219E-004	7.32966E-004	-1.20998E-002	8.04467E-004
	32	32	4.99670E-002	-1.82220E-002	0.00000E+000	-9.10501E-004	-1.80095E-001	3.36252E-002	2.86723E+001	11	...........	5.60629E-002	-3.93653E-003	5.62411E-001	6.51842E-001	-3.00435E-002	-3.93626E-002	6.50003E-001	-4.32099E-002	-1.02158E-003	7.17316E-005	-1.02483E-002	-1.18779E-002	5.47453E-004	7.17268E-004	-1.18444E-002	7.87372E-004
	33	33	4.99561E-002	-1.75516E-002	0.00000E+000	-8.76808E-004	-1.73422E-001	3.34220E-002	2.81964E+001	11	...........	5.57286E-002	-3.88889E-003	5.62402E-001	6.51835E-001	-3.00935E-002	-3.93787E-002	6.50025E-001	-4.31383E-002	-9.78125E-004	6.82561E-005	-9.87105E-003	-1.14407E-002	5.28188E-004	6.91159E-004	-1.14090E-002	7.57146E-004
	34	34	4.99709E-002	-1.75478E-002	0.00000E+000	-8.76879E-004	-1.73385E-001	3.37519E-002	2.85827E+001	11	...........	5.62582E-002	-3.93681E-003	5.62233E-001	6.51735E-001	-3.01003E-002	-3.93882E-002	6.50159E-001	-4.30386E-002	-9.87207E-004	6.90823E-005	-9.86595E-003	-1.14365E-002	5.28194E-004	6.91176E-004	-1.14089E-002	7.55233E-004
	35	35	4.99654E-002	-1.74357E-002	0.00000E+000	-8.71181E-004	-1.72269E-001	3.35430E-002	2.86992E+001	11	...........	5.59472E-002	-4.01625E-003	5.62308E-001	6.51627E-001	-3.00406E-002	-3.94083E-002	6.50223E-001	-4.31490E-002	-9.75478E-004	7.00261E-005	-9.80422E-003	-1.13616E-002	5.23778E-004	6.87111E-004	-1.13371E-002	7.52333E-004
	36	36	4.99685E-002	-1.69934E-002	0.00000E+000	-8.49134E-004	-1.67862E-001	3.37320E-002	2.83912E+001	11	...........	5.62544E-002	-3.89667E-003	5.62179E-001	6.51512E-001	-3.00744E-002	-3.93871E-002	6.50202E-001	-4.32717E-002	-9.55953E-004	6.62176E-005	-9.55332E-003	-1.10714E-002	5.11067E-004	6.69320E-004	-1.10491E-002	7.35332E-004
	37	37	4.99692E-002	-1.67584E-002	0.00000E+000	-8.37404E-004	-1.65534E-001	3.35943E-002	2.87352E+001	11	...........	5.59946E-002	-3.81292E-003	5.62087E-001	6.51376E-001	-3.00712E-002	-3.93736E-002	6.50136E-001	-4.30618E-002	-9.38380E-004	6.38984E-005	-9.41968E-003	-1.09160E-002	5.03946E-004	6.59839E-004	-1.08953E-002	7.21648E-004
	38	38	4.99506E-002	-1.63418E-002	0.00000E+000	-8.16282E-004	-1.61390E-001	3.36379E-002	2.89037E+001	11	...........	5.60875E-002	-3.76750E-003	5.62140E-001	6.51408E-001	-3.00683E-002	-3.93932E-002	6.50113E-001	-4.30499E-002	-9.16569E-004	6.15676E-005	-9.18637E-003	-1.06452E-002	4.91370E-004	6.43755E-004	-1.06240E-002	7.03511E-004
	39	39	4.99628E-002	-1.57629E-002	0.00000E+000	-7.87561E-004	-1.55629E-001	3.37337E-002	2.76481E+001	11	...........	5.62482E-002	-3.86903E-003	5.62158E-001	6.51176E-001	-3.00599E-002	-3.93914E-002	6.50179E-001	-4.31136E-002	-8.86637E-004	6.09873E-005	-8.86126E-003	-1.02644E-002	4.73832E-004	6.20924E-004	-1.02487E-002	6.79597E-004
	40	40	4.99703E-002	-1.54015E-002	0.00000E+000	-7.69615E-004	-1.52036E-001	3.33107E-002	2.84028E+001	11	...........	5.57021E-002	-3.87611E-003	5.62136E-001	6.51118E-001	-3.00479E-002	-3.94050E-002	6.50078E-001	-4.30432E-002	-8.57893E-004	5.96978E-005	-8.65772E-003	-1.00282E-002	4.62782E-004	6.06895E-004	-1.00122E-002	6.62928E-004
	41	41	4.99677E-002	-1.55174E-002	0.00000E+000	-7.75366E-004	-1.53187E-001	3.40983E-002	2.80743E+001	11	...........	5.68476E-002	-3.97042E-003	5.62437E-001	6.51002E-001	-3.00093E-002	-3.94190E-002	6.50194E-001	-4.29628E-002	-8.82125E-004	6.16103E-005	-8.72753E-003	-1.01018E-002	4.65665E-004	6.11679E-004	-1.00893E-002	6.66668E-004
	42	42	4.99629E-002	-1.48671E-002	0.00000E+000	-7.42805E-004	-1.46719E-001	3.34069E-002	2.81645E+001	11	...........	5.57157E-002	-3.90389E-003	5.62547E-001	6.50921E-001	-3.00121E-002	-3.94281E-002	6.50285E-001	-4.31317E-002	-8.28333E-004	5.80396E-005	-8.36346E-003	-9.67732E-003	4.46194E-004	5.86182E-004	-9.66787E-003	6.41244E-004
	43	43	4.99778E-002	-1.45265E-002	0.00000E+000	-7.26001E-004	-1.43324E-001	3.37964E-002	2.79225E+001	11	...........	5.63533E-002	-3.94306E-003	5.62561E-001	6.51102E-001	-3.00281E-002	-3.94161E-002	6.50263E-001	-4.31204E-002	-8.18615E-004	5.72787E-005	-8.17202E-003	-9.45821E-003	4.36202E-004	5.72577E-004	-9.44602E-003	6.26387E-004
	44	44	4.99619E-002	-1.50730E-002	0.00000E+000	-7.53076E-004	-1.48765E-001	3.36451E-002	2.88082E+001	11	...........	5.61139E-002	-3.94375E-003	5.62431E-001	6.51168E-001	-3.00254E-002	-3.94112E-002	6.50178E-001	-4.31850E-002	-8.45804E-004	5.94441E-005	-8.47752E-003	-9.81506E-003	4.52573E-004	5.94046E-004	-9.80013E-003	6.50927E-004
	45	45	4.99670E-002	-1.47366E-002	0.00000E+000	-7.36345E-004	-1.45420E-001	3.38325E-002	2.85174E+001	11	...........	5.64108E-002	-4.01556E-003	5.62399E-001	6.51107E-001	-3.00417E-002	-3.94146E-002	6.50138E-001	-4.31918E-002	-8.31306E-004	5.91758E-005	-8.28786E-003	-9.59513E-003	4.42713E-004	5.80838E-004	-9.58085E-003	6.36502E-004
	46	46	4.99670E-002	-1.46291E-002	0.00000E+000	-7.30972E-004	-1.44347E-001	3.36645E-002	2.88939E+001	11	...........	5.61312E-002	-4.07347E-003	5.62481E-001	6.51071E-001	-3.00485E-002	-3.94028E-002	6.49984E-001	-4.31619E-002	-8.21149E-004	5.95912E-005	-8.22859E-003	-9.52458E-003	4.39582E-004	5.76427E-004	-9.50867E-003	6.31420E-004
	47	47	4.99641E-002	-1.44011E-002	0.00000E+000	-7.19537E-004	-1.42071E-001	3.37672E-002	2.85040E+001	11	...........	5.63117E-002	-4.04889E-003	5.62544E-001	6.50938E-001	-3.00493E-002	-3.94267E-002	6.50008E-001	-4.30269E-002	-8.10949E-004	5.83084E-005	-8.10124E-003	-9.37421E-003	4.32742E-004	5.67787E-004	-9.36081E-003	6.19634E-004
	48	48	4.99682E-002	-1.40798E-002	0.00000E+000	-7.03542E-004	-1.38886E-001	3.37197E-002	2.79986E+001	11	...........	5.62185E-002	-4.05333E-003	5.62360E-001	6.50936E-001	-3.00661E-002	-3.94397E-002	6.50096E-001	-4.30289E-002	-7.91544E-004	5.70701E-005	-7.91792E-003	-9.16505E-003	4.23324E-004	5.55303E-004	-9.15321E-003	6.05838E-004
	49	49	4.99603E-002	-1.37567E-002	0.00000E+000	-6.87289E-004	-1.35677E-001	3.35788E-002	2.86391E+001	11	...........	5.60021E-002	-4.06222E-003	5.62481E-001	6.51124E-001	-3.00793E-002	-3.94458E-002	6.50087E-001	-4.31231E-002	-7.70403E-004	5.58827E-005	-7.73787E-003	-8.95731E-003	4.13792E-004	5.42644E-004	-8.94305E-003	5.93231E-004
	50	50	4.99682E-002	-1.38976E-002	0.00000E+000	-6.94438E-004	-1.37075E-001	3.39561E-002	2.87210E+001	11	...........	5.66381E-002	-4.02778E-003	5.62596E-001	6.51108E-001	-3.00667E-002	-3.94387E-002	6.50055E-001	-4.31001E-002	-7.87132E-004	5.59764E-005	-7.81872E-003	-9.04883E-003	4.17854E-004	5.48103E-004	-9.03419E-003	5.98988E-004
	51	51	4.99676E-002	-1.32777E-002	0.00000E+000	-6.63455E-004	-1.30910E-001	3.37348E-002	2.85749E+001	11	...........	5.62543E-002	-3.91889E-003	5.62678E-001	6.51206E-001	-3.00432E-002	-3.94560E-002	6.50033E-001	-4.30426E-002	-7.46929E-004	5.20339E-005	-7.47108E-003	-8.64653E-003	3.98905E-004	5.23885E-004	-8.63095E-003	5.71508E-004
	52	52	4.99620E-002	-1.32502E-002	0.00000E+000	-6.62007E-004	-1.30635E-001	3.37198E-002	2.88501E+001	11	...........	5.62221E-002	-3.90222E-003	5.62621E-001	6.51401E-001	-3.00653E-002	-3.94387E-002	6.49980E-001	-4.30307E-002	-7.44955E-004	5.17053E-005	-7.45485E-003	-8.63120E-003	3.98371E-004	5.22572E-004	-8.61238E-003	5.70166E-004
	53	53	4.99675E-002	-1.30101E-002	0.00000E+000	-6.50084E-004	-1.28257E-001	3.38690E-002	2.84604E+001	11	...........	5.64824E-002	-4.00597E-003	5.62456E-001	6.51481E-001	-3.00854E-002	-3.94054E-002	6.50047E-001	-4.30618E-002	-7.34843E-004	5.21182E-005	-7.31762E-003	-8.47586E-003	3.91415E-004	5.12670E-004	-8.45720E-003	5.60240E-004
	54	54	4.99685E-002	-1.30005E-002	0.00000E+000	-6.49616E-004	-1.28158E-001	3.38328E-002	2.88298E+001	11	...........	5.64067E-002	-4.15014E-003	5.62576E-001	6.51453E-001	-3.00672E-002	-3.93890E-002	6.50027E-001	-4.31546E-002	-7.33316E-004	5.39540E-005	-7.31378E-003	-8.46923E-003	3.90889E-004	5.12078E-004	-8.45069E-003	5.61032E-004
	55	55	4.99700E-002	-1.27687E-002	0.00000E+000	-6.38051E-004	-1.25858E-001	3.38983E-002	2.83552E+001	11	...........	5.65158E-002	-3.99375E-003	5.62575E-001	6.51414E-001	-3.00550E-002	-3.93803E-002	6.49840E-001	-4.31518E-002	-7.21633E-004	5.09949E-005	-7.18334E-003	-8.31770E-003	3.83763E-004	5.02834E-004	-8.29760E-003	5.50992E-004
	56	56	4.99635E-002	-1.24406E-002	0.00000E+000	-6.21577E-004	-1.22589E-001	3.36288E-002	2.86052E+001	11	...........	5.60774E-002	-4.04333E-003	5.62424E-001	6.51316E-001	-3.01072E-002	-3.93807E-002	6.49740E-001	-4.31553E-002	-6.97637E-004	5.03016E-005	-6.99691E-003	-8.10277E-003	3.74552E-004	4.89920E-004	-8.08316E-003	5.36878E-004
	57	57	4.99641E-002	-1.24619E-002	0.00000E+000	-6.22646E-004	-1.22802E-001	3.39290E-002	2.85748E+001	11	...........	5.65706E-002	-4.03333E-003	5.62445E-001	6.51400E-001	-3.01087E-002	-3.94090E-002	6.49727E-001	-4.30821E-002	-7.04974E-004	5.02628E-005	-7.00910E-003	-8.11765E-003	3.75211E-004	4.91110E-004	-8.09681E-003	5.36883E-004
	58	58	4.99673E-002	-1.22078E-002	0.00000E+000	-6.09993E-004	-1.20271E-001	3.38502E-002	2.86407E+001	11	...........	5.64415E-002	-3.92528E-003	5.62403E-001	6.51386E-001	-3.01056E-002	-3.93871E-002	6.49840E-001	-4.31272E-002	-6.89029E-004	4.79191E-005	-6.86572E-003	-7.95201E-003	3.67524E-004	4.80831E-004	-7.93314E-003	5.26490E-004
	59	59	4.99701E-002	-1.21044E-002	0.00000E+000	-6.04856E-004	-1.19242E-001	3.38912E-002	2.87097E+001	11	...........	5.65253E-002	-3.96042E-003	5.62360E-001	6.51519E-001	-3.01175E-002	-3.93797E-002	6.49880E-001	-4.29983E-002	-6.84202E-004	4.79383E-005	-6.80700E-003	-7.88621E-003	3.64553E-004	4.76666E-004	-7.86638E-003	5.20467E-004
	60	60	4.99639E-002	-1.19421E-002	0.00000E+000	-5.96675E-004	-1.17627E-001	3.38857E-002	2.87152E+001	11	...........	5.65044E-002	-3.93389E-003	5.62379E-001	6.51479E-001	-3.01369E-002	-3.93876E-002	6.49864E-001	-4.30885E-002	-6.74783E-004	4.69790E-005	-6.71601E-003	-7.78005E-003	3.59899E-004	4.70372E-004	-7.76076E-003	5.14568E-004
	61	61	4.99698E-002	-1.15635E-002	0.00000E+000	-5.77827E-004	-1.13865E-001	3.38935E-002	2.88006E+001	11	...........	5.65243E-002	-3.87917E-003	5.62291E-001	6.51590E-001	-3.01472E-002	-3.93851E-002	6.49872E-001	-4.31947E-002	-6.53621E-004	4.48569E-005	-6.50206E-003	-7.53468E-003	3.48608E-004	4.55431E-004	-7.51482E-003	4.99483E-004
	62	62	4.99672E-002	-1.14899E-002	0.00000E+000	-5.74121E-004	-1.13139E-001	3.38040E-002	2.91625E+001	11	...........	5.63747E-002	-3.98736E-003	5.62386E-001	6.51564E-001	-3.01510E-002	-3.93917E-002	6.49833E-001	-4.31858E-002	-6.47743E-004	4.58146E-005	-6.46179E-003	-7.48644E-003	3.46433E-004	4.52608E-004	-7.46655E-003	4.96203E-004
	63	63	4.99605E-002	-1.13310E-002	0.00000E+000	-5.66103E-004	-1.11551E-001	3.38727E-002	2.86842E+001	11	...........	5.64928E-002	-3.94875E-003	5.62400E-001	6.51690E-001	-3.01614E-002	-3.94043E-002	6.49837E-001	-4.31319E-002	-6.40120E-004	4.47433E-005	-6.37256E-003	-7.38431E-003	3.41759E-004	4.46491E-004	-7.36331E-003	4.88728E-004
	64	64	4.99713E-002	-1.12708E-002	0.00000E+000	-5.63218E-004	-1.10956E-001	3.40539E-002	2.89161E+001	11	...........	5.67793E-002	-4.03361E-003	5.62477E-001	6.51658E-001	-3.01706E-002	-3.94137E-002	6.49896E-001	-4.31481E-002	-6.39949E-004	4.54621E-005	-6.33958E-003	-7.34472E-003	3.40047E-004	4.44225E-004	-7.32486E-003	4.86314E-004
	65	65	4.99623E-002	-1.11731E-002	0.00000E+000	-5.58232E-004	-1.09984E-001	3.37641E-002	2.90715E+001	11	...........	5.63128E-002	-4.11806E-003	5.62467E-001	6.51667E-001	-3.01543E-002	-3.94094E-002	6.49846E-001	-4.31036E-002	-6.29187E-004	4.60114E-005	-6.28449E-003	-7.28112E-003	3.36916E-004	4.40325E-004	-7.26078E-003	4.81600E-004
	66	66	4.99709E-002	-1.09799E-002	0.00000E+000	-5.48674E-004	-1.08059E-001	3.40124E-002	2.88673E+001	11	...........	5.67061E-002	-4.00139E-003	5.62520E-001	6.51575E-001	-3.01606E-002	-3.94212E-002	6.49915E-001	-4.31490E-002	-6.22626E-004	4.39347E-005	-6.17639E-003	-7.15421E-003	3.31159E-004	4.32840E-004	-7.13598E-003	4.73771E-004
	67	67	4.99696E-002	-1.09899E-002	0.00000E+000	-5.49161E-004	-1.08155E-001	3.38640E-002	2.93472E+001	11	...........	5.64747E-002	-3.86444E-003	5.62572E-001	6.51441E-001	-3.01489E-002	-3.94107E-002	6.50114E-001	-4.32603E-002	-6.20652E-004	4.24699E-005	-6.18261E-003	-7.15927E-003	3.31333E-004	4.33120E-004	-7.14469E-003	4.75426E-004
	68	68	4.99631E-002	-1.06063E-002	0.00000E+000	-5.29924E-004	-1.04340E-001	3.40022E-002	2.86721E+001	11	...........	5.66793E-002	-3.97528E-003	5.62475E-001	6.51477E-001	-3.01808E-002	-3.93915E-002	6.50153E-001	-4.32101E-002	-6.01158E-004	4.21630E-005	-5.96578E-003	-6.90977E-003	3.20107E-004	4.17799E-004	-6.89573E-003	4.58300E-004
	69	69	4.99693E-002	-1.05609E-002	0.00000E+000	-5.27723E-004	-1.03891E-001	3.37861E-002	2.87793E+001	11	...........	5.63322E-002	-3.97417E-003	5.62450E-001	6.51530E-001	-3.01785E-002	-3.94008E-002	6.50133E-001	-4.32774E-002	-5.94921E-004	4.19709E-005	-5.94000E-003	-6.88076E-003	3.18713E-004	4.16110E-004	-6.86602E-003	4.57049E-004
	70	70	4.99670E-002	-1.04056E-002	0.00000E+000	-5.19936E-004	-1.02366E-001	3.40285E-002	2.88102E+001	11	...........	5.67597E-002	-3.94417E-003	5.62302E-001	6.51664E-001	-3.02103E-002	-3.94094E-002	6.50189E-001	-4.32836E-002	-5.90618E-004	4.10414E-005	-5.85108E-003	-6.78095E-003	3.14356E-004	4.10078E-004	-6.76560E-003	4.50391E-004
	71	71	4.99653E-002	-1.02772E-002	0.00000E+000	-5.13505E-004	-1.01101E-001	3.39146E-002	2.86506E+001	11	...........	5.65653E-002	-4.00931E-003	5.62183E-001	6.51650E-001	-3.01987E-002	-3.94368E-002	6.50165E-001	-4.32244E-002	-5.81335E-004	4.12046E-005	-5.77769E-003	-6.69716E-003	3.10360E-004	4.05301E-004	-6.68191E-003	4.44228E-004
	72	72	4.99652E-002	-1.00509E-002	0.00000E+000	-5.02193E-004	-9.88527E-002	3.39155E-002	2.87937E+001	11	...........	5.65489E-002	-4.08375E-003	5.62311E-001	6.51648E-001	-3.01635E-002	-3.94328E-002	6.50131E-001	-4.31629E-002	-5.68365E-004	4.10452E-005	-5.65171E-003	-6.54962E-003	3.03169E-004	3.96333E-004	-6.53438E-003	4.33824E-004
	73	73	4.99652E-002	-9.98516E-003	0.00000E+000	-4.98910E-004	-9.81990E-002	3.40274E-002	2.87863E+001	11	...........	5.67475E-002	-4.06833E-003	5.62266E-001	6.51623E-001	-3.01158E-002	-3.94647E-002	6.50041E-001	-4.31010E-002	-5.66633E-004	4.06230E-005	-5.61432E-003	-6.50656E-003	3.00711E-004	3.94062E-004	-6.49077E-003	4.30370E-004
	74	74	4.99723E-002	-9.61264E-003	0.00000E+000	-4.80366E-004	-9.44913E-002	3.39308E-002	2.83425E+001	11	...........	5.65815E-002	-4.02486E-003	5.62244E-001	6.51544E-001	-3.01074E-002	-3.94906E-002	6.50133E-001	-4.30422E-002	-5.43898E-004	3.86896E-005	-5.40465E-003	-6.26306E-003	2.89411E-004	3.79609E-004	-6.24949E-003	4.13750E-004
	75	75	4.99653E-002	-9.58236E-003	0.00000E+000	-4.78785E-004	-9.41897E-002	3.39068E-002	2.89060E+001	11	...........	5.65565E-002	-3.99403E-003	5.62230E-001	6.51574E-001	-3.00981E-002	-3.95233E-002	6.49974E-001	-4.31076E-002	-5.41945E-004	3.82722E-005	-5.38749E-003	-6.24361E-003	2.88410E-004	3.78727E-004	-6.22828E-003	4.13073E-004
	76	76	4.99674E-002	-9.67122E-003	0.00000E+000	-4.83245E-004	-9.50770E-002	3.41717E-002	2.87788E+001	11	...........	5.69826E-002	-3.99806E-003	5.62291E-001	6.51644E-001	-3.01129E-002	-3.95139E-002	6.49948E-001	-4.30949E-002	-5.51092E-004	3.86661E-005	-5.43804E-003	-6.30219E-003	2.91229E-004	3.82147E-004	-6.28579E-003	4.16780E-004
	77	77	4.99667E-002	-9.48139E-003	0.00000E+000	-4.73753E-004	-9.31810E-002	3.39742E-002	2.88271E+001	11	...........	5.66511E-002	-3.94556E-003	5.62293E-001	6.51702E-001	-3.01478E-002	-3.94785E-002	6.49997E-001	-4.31067E-002	-5.37131E-004	3.74093E-005	-5.33132E-003	-6.17904E-003	2.85843E-004	3.74311E-004	-6.16287E-003	4.08711E-004
	78	78	4.99685E-002	-9.46679E-003	0.00000E+000	-4.73041E-004	-9.30393E-002	3.40215E-002	2.90968E+001	11	...........	5.67214E-002	-3.89403E-003	5.62222E-001	6.51591E-001	-3.01412E-002	-3.94757E-002	6.49971E-001	-4.31912E-002	-5.36970E-004	3.68640E-005	-5.32244E-003	-6.16848E-003	2.85341E-004	3.73708E-004	-6.15314E-003	4.08883E-004
	79	79	4.99675E-002	-9.27390E-003	0.00000E+000	-4.63394E-004	-9.11167E-002	3.41530E-002	2.84722E+001	11	...........	5.69337E-002	-3.95083E-003	5.62219E-001	6.51660E-001	-3.01385E-002	-3.94528E-002	6.49938E-001	-4.31568E-002	-5.27998E-004	3.66396E-005	-5.21397E-003	-6.04343E-003	2.79501E-004	3.65881E-004	-6.02746E-003	4.00232E-004
	80	80	4.99672E-002	-9.23334E-003	0.00000E+000	-4.61364E-004	-9.07093E-002	3.38266E-002	2.90467E+001	11	...........	5.64082E-002	-3.92694E-003	5.62169E-001	6.51832E-001	-3.01249E-002	-3.94662E-002	6.49980E-001	-4.31178E-002	-5.20836E-004	3.62588E-005	-5.19070E-003	-6.01859E-003	2.78153E-004	3.64405E-004	-6.00149E-003	3.98121E-004
	81	81	4.99706E-002	-9.11235E-003	0.00000E+000	-4.55349E-004	-8.95117E-002	3.41614E-002	2.90211E+001	11	...........	5.69710E-002	-3.98903E-003	5.62231E-001	6.51908E-001	-3.01225E-002	-3.94585E-002	6.50098E-001	-4.31554E-002	-5.19140E-004	3.63494E-005	-5.12325E-003	-5.94042E-003	2.74487E-004	3.59559E-004	-5.92393E-003	3.93247E-004
	82	82	4.99643E-002	-9.03461E-003	0.00000E+000	-4.51408E-004	-8.87393E-002	3.40187E-002	2.86357E+001	11	...........	5.67157E-002	-4.03194E-003	5.62215E-001	6.51779E-001	-3.01167E-002	-3.94557E-002	6.50024E-001	-4.32276E-002	-5.12404E-004	3.64270E-005	-5.07940E-003	-5.88857E-003	2.72092E-004	3.56467E-004	-5.87271E-003	3.90545E-004
	83	83	4.99697E-002	-8.90451E-003	0.00000E+000	-4.44956E-004	-8.74580E-002	3.40055E-002	2.92073E+001	11	...........	5.67112E-002	-3.98319E-003	5.62357E-001	6.51861E-001	-3.01062E-002	-3.94707E-002	6.50107E-001	-4.32674E-002	-5.04986E-004	3.54684E-005	-5.00751E-003	-5.80450E-003	2.68081E-004	3.51467E-004	-5.78888E-003	3.85275E-004
	84	84	4.99672E-002	-8.93952E-003	0.00000E+000	-4.46683E-004	-8.78003E-002	3.40729E-002	2.90019E+001	11	...........	5.68003E-002	-3.99861E-003	5.62364E-001	6.52004E-001	-3.01217E-002	-3.94662E-002	6.50110E-001	-4.33671E-002	-5.07767E-004	3.57457E-005	-5.02726E-003	-5.82861E-003	2.69273E-004	3.52809E-004	-5.81168E-003	3.87681E-004
	85	85	4.99642E-002	-8.65988E-003	0.00000E+000	-4.32684E-004	-8.50200E-002	3.39783E-002	2.93189E+001	11	...........	5.66485E-002	-3.90833E-003	5.62353E-001	6.52097E-001	-3.01068E-002	-3.94560E-002	6.50176E-001	-4.31882E-002	-4.90569E-004	3.38457E-005	-4.86991E-003	-5.64708E-003	2.60721E-004	3.41684E-004	-5.63044E-003	3.74005E-004
	86	86	4.99700E-002	-8.37820E-003	0.00000E+000	-4.18659E-004	-8.22183E-002	3.41313E-002	2.87066E+001	11	...........	5.69183E-002	-3.93319E-003	5.62278E-001	6.52060E-001	-3.01175E-002	-3.94426E-002	6.50090E-001	-4.30996E-002	-4.76873E-004	3.29531E-005	-4.71088E-003	-5.46309E-003	2.52331E-004	3.30458E-004	-5.44659E-003	3.61097E-004
	87	87	4.99708E-002	-8.46503E-003	0.00000E+000	-4.23004E-004	-8.30767E-002	3.38148E-002	2.87845E+001	11	...........	5.63739E-002	-3.92653E-003	5.62264E-001	6.52122E-001	-3.01068E-002	-3.94296E-002	6.50101E-001	-4.30287E-002	-4.77207E-004	3.32382E-005	-4.75958E-003	-5.52023E-003	2.54855E-004	3.33773E-004	-5.50312E-003	3.64240E-004
	88	88	4.99631E-002	-8.49172E-003	0.00000E+000	-4.24273E-004	-8.33460E-002	3.42513E-002	2.89988E+001	11	...........	5.70950E-002	-3.99819E-003	5.62374E-001	6.52250E-001	-3.00683E-002	-3.94304E-002	6.50100E-001	-4.30708E-002	-4.84835E-004	3.39515E-005	-4.77552E-003	-5.53873E-003	2.55332E-004	3.34832E-004	-5.52047E-003	3.65745E-004
	89	89	4.99696E-002	-8.22150E-003	0.00000E+000	-4.10825E-004	-8.06557E-002	3.41674E-002	2.87770E+001	11	...........	5.69792E-002	-3.96931E-003	5.62247E-001	6.52333E-001	-3.00722E-002	-3.94131E-002	6.50018E-001	-4.31517E-002	-4.68454E-004	3.26336E-005	-4.62251E-003	-5.36315E-003	2.47239E-004	3.24034E-004	-5.34412E-003	3.54771E-004
	90	90	4.99679E-002	-8.28652E-003	0.00000E+000	-4.14060E-004	-8.13067E-002	3.39711E-002	2.98544E+001	11	...........	5.66489E-002	-4.05028E-003	5.62204E-001	6.52157E-001	-3.00967E-002	-3.93993E-002	6.50122E-001	-4.32460E-002	-4.69422E-004	3.35627E-005	-4.65871E-003	-5.40412E-003	2.49397E-004	3.26483E-004	-5.38725E-003	3.58359E-004
	91	91	4.99645E-002	-8.28271E-003	0.00000E+000	-4.13842E-004	-8.12640E-002	3.42591E-002	2.89663E+001	11	...........	5.71301E-002	-4.10139E-003	5.62425E-001	6.51896E-001	-3.00815E-002	-3.94128E-002	6.50086E-001	-4.31233E-002	-4.73192E-004	3.39706E-005	-4.65840E-003	-5.39946E-003	2.49157E-004	3.26445E-004	-5.38448E-003	3.57178E-004
	92	92	4.99723E-002	-8.12285E-003	0.00000E+000	-4.05918E-004	-7.96690E-002	3.39807E-002	2.93904E+001	11	...........	5.66758E-002	-4.01389E-003	5.62381E-001	6.51911E-001	-3.00810E-002	-3.93692E-002	6.50034E-001	-4.30233E-002	-4.60369E-004	3.26042E-005	-4.56813E-003	-5.29538E-003	2.44343E-004	3.19790E-004	-5.28013E-003	3.49472E-004
	93	93	4.99649E-002	-8.06957E-003	0.00000E+000	-4.03195E-004	-7.91400E-002	3.41571E-002	2.95806E+001	11	...........	5.69654E-002	-4.04139E-003	5.62364E-001	6.51826E-001	-3.00836E-002	-3.93714E-002	6.50154E-001	-4.31246E-002	-4.59686E-004	3.26122E-005	-4.53803E-003	-5.25995E-003	2.42762E-004	3.17710E-004	-5.24646E-003	3.47997E-004
	94	94	4.99666E-002	-7.91022E-003	0.00000E+000	-3.95246E-004	-7.75580E-002	3.41507E-002	2.86521E+001	11	...........	5.69514E-002	-4.08611E-003	5.62460E-001	6.51578E-001	-3.00654E-002	-3.93871E-002	6.50307E-001	-4.31435E-002	-4.50498E-004	3.23220E-005	-4.44918E-003	-5.15413E-003	2.37824E-004	3.11561E-004	-5.14407E-003	3.41274E-004
	95	95	4.99687E-002	-7.67197E-003	0.00000E+000	-3.83359E-004	-7.52030E-002	3.39717E-002	2.87558E+001	11	...........	5.66286E-002	-4.07736E-003	5.62425E-001	6.51489E-001	-3.00782E-002	-3.93869E-002	6.50207E-001	-4.30900E-002	-4.34453E-004	3.12814E-005	-4.31491E-003	-4.99820E-003	2.30759E-004	3.02175E-004	-4.98837E-003	3.30585E-004
	96	96	4.99666E-002	-7.76083E-003	0.00000E+000	-3.87782E-004	-7.60883E-002	3.43094E-002	2.91710E+001	11	...........	5.71962E-002	-4.09597E-003	5.62374E-001	6.51312E-001	-3.00757E-002	-3.93965E-002	6.50168E-001	-4.31796E-002	-4.43890E-004	3.17881E-005	-4.36449E-003	-5.05472E-003	2.33412E-004	3.05750E-004	-5.04584E-003	3.35109E-004
	97	97	4.99652E-002	-7.51021E-003	0.00000E+000	-3.75249E-004	-7.35947E-002	3.40454E-002	2.85713E+001	11	...........	5.67765E-002	-3.94444E-003	5.62186E-001	6.51261E-001	-3.00693E-002	-3.94000E-002	6.50167E-001	-4.31742E-002	-4.26404E-004	2.96236E-005	-4.22213E-003	-4.89111E-003	2.25827E-004	2.95902E-004	-4.88290E-003	3.24247E-004
	98	98	4.99693E-002	-7.45139E-003	0.00000E+000	-3.72341E-004	-7.30033E-002	3.41823E-002	2.89574E+001	11	...........	5.69994E-002	-3.95625E-003	5.62355E-001	6.51258E-001	-3.00642E-002	-3.94187E-002	6.50018E-001	-4.32164E-002	-4.24725E-004	2.94796E-005	-4.19032E-003	-4.85278E-003	2.24020E-004	2.93724E-004	-4.84353E-003	3.22022E-004
	99	99	4.99703E-002	-7.40887E-003	0.00000E+000	-3.70223E-004	-7.25780E-002	3.42009E-002	2.89116E+001	11	...........	5.70250E-002	-3.95194E-003	5.62611E-001	6.51210E-001	-3.00511E-002	-3.94397E-002	6.49901E-001	-4.32229E-002	-4.22491E-004	2.92794E-005	-4.16831E-003	-4.82473E-003	2.22645E-004	2.92204E-004	-4.81503E-003	3.20233E-004
	100	100	4.99686E-002	-7.41334E-003	0.00000E+000	-3.70435E-004	-7.26230E-002	3.41369E-002	2.95502E+001	11	...........	5.69222E-002	-4.01333E-003	5.62655E-001	6.51166E-001	-3.00632E-002	-3.94671E-002	6.49891E-001	-4.31724E-002	-4.21984E-004	2.97522E-005	-4.17116E-003	-4.82732E-003	2.22869E-004	2.92583E-004	-4.81787E-003	3.20051E-004
	101	101	4.99661E-002	-7.19147E-003	0.00000E+000	-3.59329E-004	-7.04100E-002	3.40855E-002	2.89878E+001	11	...........	5.68421E-002	-3.90681E-003	5.62611E-001	6.51050E-001	-3.00382E-002	-3.94835E-002	6.49788E-001	-4.30833E-002	-4.08778E-004	2.80957E-005	-4.04600E-003	-4.68200E-003	2.16019E-004	2.83944E-004	-4.67293E-003	3.09832E-004
	102	102	4.99675E-002	-7.06099E-003	0.00000E+000	-3.52820E-004	-6.91140E-002	3.40633E-002	2.86120E+001	11	...........	5.67904E-002	-3.84431E-003	5.62565E-001	6.50836E-001	-3.00175E-002	-3.95029E-002	6.49785E-001	-4.31853E-002	-4.00997E-004	2.71446E-005	-3.97227E-003	-4.59555E-003	2.11953E-004	2.78930E-004	-4.58813E-003	3.04931E-004
	103	103	4.99687E-002	-7.06701E-003	0.00000E+000	-3.53130E-004	-6.91740E-002	3.42316E-002	2.96637E+001	11	...........	5.70760E-002	-3.87556E-003	5.62583E-001	6.50731E-001	-3.00267E-002	-3.95065E-002	6.49832E-001	-4.32062E-002	-4.03357E-004	2.73886E-005	-3.97578E-003	-4.59872E-003	2.12199E-004	2.79193E-004	-4.59237E-003	3.05339E-004
	104	104	4.99641E-002	-6.88804E-003	0.00000E+000	-3.44155E-004	-6.73870E-002	3.43027E-002	2.92168E+001	11	...........	5.72060E-002	-3.86722E-003	5.62658E-001	6.50845E-001	-3.00162E-002	-3.95311E-002	6.49811E-001	-4.32132E-002	-3.94037E-004	2.66376E-005	-3.87561E-003	-4.48305E-003	2.06753E-004	2.72292E-004	-4.47593E-003	2.97654E-004
	105	105	4.99710E-002	-6.94587E-003	0.00000E+000	-3.47092E-004	-6.79723E-002	3.42452E-002	2.94194E+001	11	...........	5.71075E-002	-3.93486E-003	5.62765E-001	6.50759E-001	-2.99743E-002	-3.95356E-002	6.49816E-001	-4.31168E-002	-3.96661E-004	2.73310E-005	-3.90889E-003	-4.52009E-003	2.08198E-004	2.74609E-004	-4.51354E-003	2.99484E-004
	106	106	4.99672E-002	-6.93882E-003	0.00000E+000	-3.46714E-004	-6.79027E-002	3.42090E-002	2.96500E+001	11	...........	5.70482E-002	-3.86361E-003	5.62707E-001	6.50753E-001	-2.99756E-002	-3.95171E-002	6.49887E-001	-4.30510E-002	-3.95847E-004	2.68089E-005	-3.90453E-003	-4.51546E-003	2.07995E-004	2.74202E-004	-4.50945E-003	2.98723E-004
	107	107	4.99698E-002	-6.87673E-003	0.00000E+000	-3.43629E-004	-6.72793E-002	3.41223E-002	2.96625E+001	11	...........	5.68986E-002	-3.88847E-003	5.62444E-001	6.50786E-001	-3.00046E-002	-3.95392E-002	6.49901E-001	-4.30843E-002	-3.91276E-004	2.67400E-005	-3.86777E-003	-4.47528E-003	2.06333E-004	2.71900E-004	-4.46919E-003	2.96279E-004
	108	108	4.99634E-002	-6.61931E-003	0.00000E+000	-3.30723E-004	-6.47143E-002	3.41823E-002	2.90669E+001	11	...........	5.70149E-002	-3.92694E-003	5.62570E-001	6.50576E-001	-2.99800E-002	-3.95160E-002	6.50011E-001	-4.31040E-002	-3.77399E-004	2.59937E-005	-3.72382E-003	-4.30636E-003	1.98447E-004	2.61569E-004	-4.30263E-003	2.85319E-004
	109	109	4.99701E-002	-6.65719E-003	0.00000E+000	-3.32660E-004	-6.50877E-002	3.42584E-002	2.88483E+001	11	...........	5.71207E-002	-3.97583E-003	5.62596E-001	6.50660E-001	-3.00146E-002	-3.94996E-002	6.50009E-001	-4.30657E-002	-3.80263E-004	2.64679E-005	-3.74530E-003	-4.33157E-003	1.99813E-004	2.62956E-004	-4.32723E-003	2.86696E-004
	110	110	4.99673E-002	-6.66154E-003	0.00000E+000	-3.32859E-004	-6.51313E-002	3.40999E-002	2.92071E+001	11	...........	5.68722E-002	-3.93639E-003	5.62551E-001	6.50670E-001	-2.99844E-002	-3.94965E-002	6.49997E-001	-4.31822E-002	-3.78857E-004	2.62224E-005	-3.74745E-003	-4.33446E-003	1.99743E-004	2.63108E-004	-4.32998E-003	2.87660E-004
	111	111	4.99691E-002	-6.56321E-003	0.00000E+000	-3.27958E-004	-6.41550E-002	3.43426E-002	2.93652E+001	11	...........	5.72676E-002	-3.98653E-003	5.62406E-001	6.50729E-001	-2.99837E-002	-3.94904E-002	6.50022E-001	-4.34231E-002	-3.75860E-004	2.61644E-005	-3.69119E-003	-4.27087E-003	1.96790E-004	2.59184E-004	-4.26623E-003	2.84995E-004
	112	112	4.99693E-002	-6.46545E-003	0.00000E+000	-3.23074E-004	-6.31930E-002	3.39988E-002	2.94575E+001	11	...........	5.66775E-002	-3.93292E-003	5.62338E-001	6.50664E-001	-2.99811E-002	-3.94900E-002	6.49996E-001	-4.33986E-002	-3.66446E-004	2.54281E-005	-3.63577E-003	-4.20684E-003	1.93841E-004	2.55321E-004	-4.20252E-003	2.80592E-004
	113	113	4.99664E-002	-6.54211E-003	0.00000E+000	-3.26885E-004	-6.39473E-002	3.44489E-002	2.91242E+001	11	...........	5.74537E-002	-3.96375E-003	5.62242E-001	6.50723E-001	-2.99858E-002	-3.94828E-002	6.50068E-001	-4.33362E-002	-3.75869E-004	2.59313E-005	-3.67825E-003	-4.25710E-003	1.96171E-004	2.58301E-004	-4.25281E-003	2.83510E-004
	114	114	4.99693E-002	-6.43340E-003	0.00000E+000	-3.21472E-004	-6.28767E-002	3.40814E-002	2.91764E+001	11	...........	5.68249E-002	-3.97861E-003	5.62095E-001	6.50743E-001	-3.00164E-002	-3.94815E-002	6.49979E-001	-4.32507E-002	-3.65577E-004	2.55960E-005	-3.61618E-003	-4.18649E-003	1.93107E-004	2.54000E-004	-4.18158E-003	2.78249E-004
	115	115	4.99687E-002	-6.42707E-003	0.00000E+000	-3.21153E-004	-6.28173E-002	3.43134E-002	2.92789E+001	11	...........	5.72114E-002	-3.87569E-003	5.62148E-001	6.50684E-001	-3.00311E-002	-3.94772E-002	6.49933E-001	-4.32372E-002	-3.67702E-004	2.49094E-005	-3.61297E-003	-4.18199E-003	1.93012E-004	2.53723E-004	-4.17717E-003	2.77889E-004
	116	116	4.99683E-002	-6.34862E-003	0.00000E+000	-3.17230E-004	-6.20377E-002	3.42292E-002	2.97000E+001	11	...........	5.70839E-002	-3.79375E-003	5.62076E-001	6.50621E-001	-3.00310E-002	-3.94793E-002	6.49994E-001	-4.33633E-002	-3.62404E-004	2.40851E-005	-3.56841E-003	-4.13055E-003	1.90655E-004	2.50639E-004	-4.12657E-003	2.75297E-004
	117	117	4.99664E-002	-6.19112E-003	0.00000E+000	-3.09348E-004	-6.04670E-002	3.42222E-002	2.90514E+001	11	...........	5.70718E-002	-3.88972E-003	5.62095E-001	6.50623E-001	-3.00419E-002	-3.94717E-002	6.50024E-001	-4.33079E-002	-3.53339E-004	2.40817E-005	-3.48000E-003	-4.02808E-003	1.85993E-004	2.44374E-004	-4.02438E-003	2.68125E-004
	118	118	4.99659E-002	-6.13673E-003	0.00000E+000	-3.06627E-004	-5.99247E-002	3.40842E-002	2.84395E+001	11	...........	5.68414E-002	-3.82069E-003	5.61991E-001	6.50745E-001	-3.00169E-002	-3.94694E-002	6.49992E-001	-4.32181E-002	-3.48820E-004	2.34466E-005	-3.44878E-003	-3.99345E-003	1.84206E-004	2.42213E-004	-3.98883E-003	2.65217E-004
	119	119	4.99706E-002	-6.14970E-003	0.00000E+000	-3.07304E-004	-6.00550E-002	3.45277E-002	2.94996E+001	11	...........	5.75833E-002	-3.73486E-003	5.62222E-001	6.50695E-001	-3.00174E-002	-3.94717E-002	6.49946E-001	-4.31553E-002	-3.54120E-004	2.29683E-005	-3.45750E-003	-4.00158E-003	1.84598E-004	2.42739E-004	-3.99697E-003	2.65392E-004
	120	120	4.99672E-002	-6.04866E-003	0.00000E+000	-3.02235E-004	-5.90480E-002	3.40998E-002	2.94136E+001	11	...........	5.68778E-002	-3.86569E-003	5.62291E-001	6.50742E-001	-3.00103E-002	-3.94690E-002	6.49988E-001	-4.31879E-002	-3.44034E-004	2.33823E-005	-3.40110E-003	-3.93612E-003	1.81522E-004	2.38735E-004	-3.93155E-003	2.61229E-004
	121	121	4.99681E-002	-5.96697E-003	0.00000E+000	-2.98158E-004	-5.82360E-002	3.42769E-002	2.91283E+001	11	...........	5.71550E-002	-3.90167E-003	5.62418E-001	6.50664E-001	-3.00185E-002	-3.94442E-002	6.49915E-001	-4.32535E-002	-3.41042E-004	2.32811E-005	-3.35594E-003	-3.88250E-003	1.79119E-004	2.35362E-004	-3.87803E-003	2.58092E-004
	122	122	4.99658E-002	-5.95095E-003	0.00000E+000	-2.97344E-004	-5.80730E-002	3.42268E-002	2.92033E+001	11	...........	5.72876E-002	-3.94417E-003	5.62487E-001	6.50802E-001	-3.00035E-002	-3.94335E-002	6.49915E-001	-4.30790E-002	-3.40916E-004	2.34715E-005	-3.34734E-003	-3.87289E-003	1.78549E-004	2.34667E-004	-3.86761E-003	2.56361E-004
	123	123	4.99724E-002	-5.87037E-003	0.00000E+000	-2.93356E-004	-5.72710E-002	3.43558E-002	2.95394E+001	11	...........	5.72832E-002	-3.98986E-003	5.62505E-001	6.50960E-001	-3.00204E-002	-3.94207E-002	6.49987E-001	-4.30510E-002	-3.36273E-004	2.34219E-005	-3.30211E-003	-3.82138E-003	1.76231E-004	2.31414E-004	-3.81566E-003	2.52725E-004
	124	124	4.99644E-002	-5.81210E-003	0.00000E+000	-2.90398E-004	-5.66913E-002	3.41870E-002	2.92807E+001	11	...........	5.70104E-002	-3.98153E-003	5.62553E-001	6.50950E-001	-3.00618E-002	-3.94006E-002	6.49918E-001	-4.31376E-002	-3.31350E-004	2.31410E-005	-3.26962E-003	-3.78339E-003	1.74722E-004	2.29000E-004	-3.77739E-003	2.50720E-004
	125	125	4.99687E-002	-5.75818E-003	0.00000E+000	-2.87728E-004	-5.61570E-002	3.43997E-002	2.80885E+001	11	...........	5.73536E-002	-3.93819E-003	5.62514E-001	6.50973E-001	-3.00749E-002	-3.94110E-002	6.50090E-001	-4.31360E-002	-3.30252E-004	2.26768E-005	-3.23906E-003	-3.74842E-003	1.73176E-004	2.26935E-004	-3.74333E-003	2.48385E-004
	126	126	4.99706E-002	-5.72568E-003	0.00000E+000	-2.86115E-004	-5.58330E-002	3.41603E-002	2.95593E+001	11	...........	5.69606E-002	-3.91222E-003	5.62385E-001	6.51042E-001	-3.00536E-002	-3.94036E-002	6.50012E-001	-4.31265E-002	-3.26138E-004	2.24001E-005	-3.22004E-003	-3.72766E-003	1.72077E-004	2.25613E-004	-3.72176E-003	2.46929E-004
	127	127	4.99674E-002	-5.63707E-003	0.00000E+000	-2.81670E-004	-5.49500E-002	3.44620E-002	2.91332E+001	11	...........	5.74622E-002	-3.87375E-003	5.62409E-001	6.51130E-001	-3.00365E-002	-3.94074E-002	6.50042E-001	-4.32369E-002	-3.23918E-004	2.18366E-005	-3.17034E-003	-3.67047E-003	1.69318E-004	2.22142E-004	-3.66433E-003	2.43730E-004
	128	128	4.99688E-002	-5.59201E-003	0.00000E+000	-2.79426E-004	-5.45010E-002	3.42208E-002	2.93720E+001	11	...........	5.70678E-002	-3.84319E-003	5.62213E-001	6.51236E-001	-3.00504E-002	-3.93860E-002	6.49925E-001	-4.32290E-002	-3.19123E-004	2.14912E-005	-3.14390E-003	-3.64172E-003	1.68042E-004	2.20247E-004	-3.63438E-003	2.41737E-004
	129	129	4.99656E-002	-5.62440E-003	0.00000E+000	-2.81026E-004	-5.48220E-002	3.42965E-002	3.00112E+001	11	...........	5.71949E-002	-4.00375E-003	5.62083E-001	6.51331E-001	-3.00410E-002	-3.93840E-002	6.49843E-001	-4.32733E-002	-3.21687E-004	2.25187E-005	-3.16138E-003	-3.66334E-003	1.68962E-004	2.21511E-004	-3.65497E-003	2.43386E-004
	130	130	4.99681E-002	-5.50867E-003	0.00000E+000	-2.75258E-004	-5.36690E-002	3.44110E-002	2.88176E+001	11	...........	5.73617E-002	-3.97472E-003	5.62152E-001	6.51440E-001	-3.00454E-002	-3.93668E-002	6.49907E-001	-4.32979E-002	-3.15987E-004	2.18954E-005	-3.09671E-003	-3.58857E-003	1.65510E-004	2.16859E-004	-3.58013E-003	2.38514E-004
	131	131	4.99699E-002	-5.48919E-003	0.00000E+000	-2.74295E-004	-5.34760E-002	3.42282E-002	2.88748E+001	11	...........	5.70760E-002	-3.91764E-003	5.62082E-001	6.51430E-001	-3.00607E-002	-3.93507E-002	6.49889E-001	-4.33174E-002	-3.13301E-004	2.15047E-005	-3.08538E-003	-3.57582E-003	1.65009E-004	2.16003E-004	-3.56736E-003	2.37777E-004
	132	132	4.99682E-002	-5.44181E-003	0.00000E+000	-2.71918E-004	-5.30107E-002	3.43996E-002	2.91361E+001	11	...........	5.73564E-002	-3.86681E-003	5.62106E-001	6.51479E-001	-3.00672E-002	-3.93371E-002	6.49912E-001	-4.31924E-002	-3.12123E-004	2.10424E-005	-3.05888E-003	-3.54523E-003	1.63620E-004	2.14065E-004	-3.53670E-003	2.35045E-004
	133	133	4.99685E-002	-5.39594E-003	0.00000E+000	-2.69627E-004	-5.25507E-002	3.42933E-002	2.91880E+001	11	...........	5.71814E-002	-3.96389E-003	5.62208E-001	6.51485E-001	-3.00372E-002	-3.93614E-002	6.49945E-001	-4.31562E-002	-3.08547E-004	2.13889E-005	-3.03364E-003	-3.51537E-003	1.62079E-004	2.12392E-004	-3.50706E-003	2.32868E-004
	134	134	4.99689E-002	-5.36500E-003	0.00000E+000	-2.68083E-004	-5.22443E-002	3.44373E-002	2.93956E+001	11	...........	5.74368E-002	-3.99694E-003	5.62199E-001	6.51453E-001	-3.00144E-002	-3.93632E-002	6.49938E-001	-4.32886E-002	-3.08148E-004	2.14436E-005	-3.01620E-003	-3.49505E-003	1.61027E-004	2.11183E-004	-3.48692E-003	2.32243E-004
	135	135	4.99676E-002	-5.31841E-003	0.00000E+000	-2.65748E-004	-5.17780E-002	3.42144E-002	2.94500E+001	11	...........	5.70381E-002	-4.03389E-003	5.62305E-001	6.51427E-001	-3.00385E-002	-3.93400E-002	6.49964E-001	-4.32483E-002	-3.03352E-004	2.14539E-005	-2.99057E-003	-3.46455E-003	1.59757E-004	2.09226E-004	-3.45677E-003	2.30012E-004
	136	136	4.99663E-002	-5.25651E-003	0.00000E+000	-2.62649E-004	-5.11707E-002	3.44568E-002	2.93050E+001	11	...........	5.74642E-002	-3.83431E-003	5.62410E-001	6.51405E-001	-3.00235E-002	-3.93521E-002	6.49987E-001	-4.32117E-002	-3.02061E-004	2.01551E-005	-2.95631E-003	-3.42412E-003	1.57819E-004	2.06855E-004	-3.41666E-003	2.27143E-004
	137	137	4.99688E-002	-5.16318E-003	0.00000E+000	-2.57998E-004	-5.02497E-002	3.42629E-002	2.88699E+001	11	...........	5.71228E-002	-3.93667E-003	5.62367E-001	6.51337E-001	-3.00171E-002	-3.93737E-002	6.50016E-001	-4.32068E-002	-2.94935E-004	2.03257E-005	-2.90360E-003	-3.36297E-003	1.54983E-004	2.03294E-004	-3.35615E-003	2.23084E-004
	138	138	4.99700E-002	-5.21206E-003	0.00000E+000	-2.60446E-004	-5.07340E-002	3.43900E-002	2.97741E+001	11	...........	5.73418E-002	-3.97069E-003	5.62232E-001	6.51192E-001	-3.00233E-002	-3.93819E-002	6.49948E-001	-4.30604E-002	-2.98869E-004	2.06955E-005	-2.93039E-003	-3.39405E-003	1.56483E-004	2.05261E-004	-3.38756E-003	2.24433E-004
	139	139	4.99679E-002	-5.21647E-003	0.00000E+000	-2.60656E-004	-5.07737E-002	3.44374E-002	3.00097E+001	11	...........	5.74365E-002	-4.08444E-003	5.62223E-001	6.51052E-001	-2.99942E-002	-3.93979E-002	6.50040E-001	-4.31533E-002	-2.99616E-004	2.13064E-005	-2.93282E-003	-3.39619E-003	1.56464E-004	2.05518E-004	-3.39091E-003	2.25108E-004
	140	139.727	4.99659E-002	-5.15318E-003	0.00000E+000	-2.57483E-004	-5.01537E-002	3.44047E-002	2.96288E+001	11	...........	5.73500E-002	-4.02485E-003	5.62287E-001	6.51124E-001	-2.99874E-002	-3.94073E-002	6.50033E-001	-4.32034E-002	-2.95534E-004	2.07407E-005	-2.89757E-003	-3.35536E-003	1.54530E-004	2.03073E-004	-3.34973E-003	2.22635E-004
STARTTIMEOFFSET	QUANT	456815.2	Start Time Offset (s)
