EXPLAIN
TAG	PWR800_DISCHARGE
TITLE	LABEL	PWR Discharge	Test Identifier
DATE	LABEL	10/11/2022	Date
TIME	LABEL	17:15:45	Time
NOTES	NOTES	1	Notes...
	
PSTAT	PSTAT	REF3000-21114	Potentiostat
CAPACITY	QUANT	5.30000E-002	Capacity (A-hr)
CELLTYPE	SELECTOR	1	Cell Type
WORKINGCONNECTION	SELECTOR	0	Working Connection
MAXDISCHARGETIME	VARIABLEANDUNITS	7.20000E+003	s	2.00000E+000	hour(s)	Max Discharge Time
DISCHARGEMODE	MULTIPARAM	0	1.00000E-001	Discharge Mode	Constant Current	Amp(s)
VOLTAGEFINISH	TWOPARAM	T	5.00000E-003	7.20000E+003	Voltage Finish	I (A) <	Max Time(s)
SAMPLETIME	QUANT	1.00000E+000	Sample Period (s)
DISCHARGESTOPAT1	MULTIPARAM	1	5.00000E-002	Stop At 1	|Voltage| < Limit	V
DISCHARGESTOPAT2	MULTIPARAM	0	0.00000E+000	Stop At 2	None	N/A
AESELECTOR	AESELECTOR	0x1	T	Set Limits	AE Channels
AESBHCSELECTOR	TOGGLE	F	Save Both Half Cells
IRCOMP	TOGGLE	F	IR Measure
EOC	QUANT	0.5778719	Open Circuit (V)
SEQUENCER	TOGGLE	TRUE	Run as Sequence
PSTATMODEL	IQUANT	5	Pstat Model
PSTATSECTION	LABEL	REF3000-21114	Pstat Section
PSTATSERIALNO	LABEL	21114	Pstat Serial Number
CTRLMODE	IQUANT	0	Control Mode
ELECTROMETER	IQUANT	0	RE=0 or CS=1
IESTAB	IQUANT	0	I/E Stability
CASPEED	IQUANT	4	Control Amp Speed
CONVENTION	IQUANT	1	Current Convention
ICHRANGE	IQUANT	2	Ich Range
ICHRANGEMODE	TOGGLE	T	Ich Auto Range
ICHOFFSETENABLE	TOGGLE	F	Ich Offset Enable
ICHOFFSET	QUANT	0	Ich Offset (V)
ICHFILTER	IQUANT	1	Ich Filter
VCHRANGE	IQUANT	3	Vch Range
VCHRANGEMODE	TOGGLE	T	Vch Auto Range
VCHOFFSETENABLE	TOGGLE	F	Vch Offset Enable
VCHOFFSET	QUANT	0	Vch Offset (V)
VCHFILTER	IQUANT	1	Vch Filter
ACHRANGE	IQUANT	2	Ach Range
ACHOFFSETENABLE	TOGGLE	F	Ach Offset Enable
ACHOFFSET	QUANT	0	Ach Offset (V)
ACHFILTER	IQUANT	1	Ach Filter
IERANGELOWERLIMIT	IQUANT	9	I/E Range Lower Limit
IERANGEMODE	TOGGLE	F	I/E AutoRange
IERANGE	IQUANT	9	I/E Range
POSFEEDENABLE	TOGGLE	F	Positive Feedback IR Comp
POSFEEDRESISTANCE	QUANT	0	Positive Feedback Resistance (ohm)
ACHSELECT	IQUANT	1	Ach Select
SENSECABLEID	IQUANT	13	Sense Cable ID
PWRCABLEID	IQUANT	13	Power Cable ID
DCCALDATE	LABEL		DC Calibration Date
ACCALDATE	LABEL		AC Calibration Date
THERMOSELECT	IQUANT	1	Thermo Select
FRAMEWORKVERSION	LABEL	7.8.6	Framework Version
INSTRUMENTVERSION	LABEL	4.50	Instrument Version
COMPLIANCEVOLTAGE	IQUANT	0	Compliance Voltage
CURVE	TABLE	226
	Pt	T	Vf	Im	Vu	Pwr	Sig	Ach	Temp	IERange	Over	Vf1	Vf2	Vf3	Vf4	Vf5	Vf6	Vf7	Vf8	Pwr1	Pwr2	Pwr3	Pwr4	Pwr5	Pwr6	Pwr7	Pwr8
	#	s	V	A	V	W	V	V	deg C	#	bits	V	V	V	V	V	V	V	V	W	W	W	W	W	W	W	W
	0	1	3.66583E-001	-1.00081E-001	0.00000E+000	-3.66881E-002	-9.94000E-001	3.20439E-002	2.85357E+001	11	...........	5.32118E-002	-3.28097E-003	5.50457E-001	7.00192E-001	-3.05879E-002	-3.93210E-002	6.12960E-001	-4.28407E-002	-5.32551E-003	3.28364E-004	-5.50905E-002	-7.00762E-002	3.06128E-003	3.93530E-003	-6.13458E-002	4.28755E-003
	1	2	2.75810E-001	-1.00081E-001	0.00000E+000	-2.76034E-002	-9.94000E-001	3.20636E-002	2.79936E+001	11	...........	5.32449E-002	-3.35972E-003	5.50494E-001	7.00165E-001	-3.05762E-002	-3.93235E-002	6.12940E-001	-4.28087E-002	-5.32881E-003	3.36245E-004	-5.50941E-002	-7.00734E-002	3.06011E-003	3.93554E-003	-6.13437E-002	4.28435E-003
	2	3	2.07096E-001	-1.00082E-001	0.00000E+000	-2.07266E-002	-9.94000E-001	3.20310E-002	2.75558E+001	11	...........	5.31717E-002	-3.39194E-003	5.50530E-001	7.00055E-001	-3.05378E-002	-3.93187E-002	6.13034E-001	-4.27185E-002	-5.32154E-003	3.39474E-004	-5.50984E-002	-7.00631E-002	3.05629E-003	3.93511E-003	-6.13539E-002	4.27536E-003
	3	4	1.49632E-001	-1.00082E-001	0.00000E+000	-1.49755E-002	-9.94000E-001	3.20158E-002	2.68805E+001	11	...........	5.31514E-002	-3.37528E-003	5.50617E-001	6.99949E-001	-3.05572E-002	-3.93289E-002	6.13146E-001	-4.26401E-002	-5.31950E-003	3.37805E-004	-5.51069E-002	-7.00524E-002	3.05823E-003	3.93612E-003	-6.13650E-002	4.26751E-003
	4	5	1.02645E-001	-1.00082E-001	0.00000E+000	-1.02729E-002	-9.94000E-001	3.19370E-002	2.68963E+001	11	...........	5.30269E-002	-3.33653E-003	5.50593E-001	7.00050E-001	-3.05479E-002	-3.93056E-002	6.13223E-001	-4.27088E-002	-5.30705E-003	3.33927E-004	-5.51046E-002	-7.00626E-002	3.05730E-003	3.93379E-003	-6.13727E-002	4.27439E-003
	5	5.88167	6.66765E-002	-1.00082E-001	0.00000E+000	-6.67314E-003	-9.94000E-001	3.19826E-002	2.63679E+001	11	...........	5.31103E-002	-3.31506E-003	5.50451E-001	7.00124E-001	-3.05558E-002	-3.93258E-002	6.13301E-001	-4.27331E-002	-5.31540E-003	3.31779E-004	-5.50904E-002	-7.00700E-002	3.05809E-003	3.93581E-003	-6.13806E-002	4.27683E-003
	6	6	4.96079E-002	-9.80413E-002	0.00000E+000	-4.86362E-003	-9.73696E-001	3.19063E-002	2.66649E+001	11	...........	5.29413E-002	-3.34272E-003	5.50376E-001	7.00104E-001	-3.05763E-002	-3.93239E-002	6.13259E-001	-4.27570E-002	-5.19043E-003	3.27725E-004	-5.39595E-002	-6.86391E-002	2.99774E-003	3.85537E-003	-6.01247E-002	4.19195E-003
	7	7	4.97840E-002	-8.78230E-002	0.00000E+000	-4.37218E-003	-8.72094E-001	3.21937E-002	2.66860E+001	11	...........	5.34597E-002	-3.30236E-003	5.50472E-001	7.00023E-001	-3.05583E-002	-3.93183E-002	6.13172E-001	-4.26389E-002	-4.69499E-003	2.90023E-004	-4.83442E-002	-6.14781E-002	2.68372E-003	3.45305E-003	-5.38506E-002	3.74468E-003
	8	8	4.98988E-002	-7.58443E-002	0.00000E+000	-3.78454E-003	-7.52992E-001	3.22675E-002	2.71412E+001	11	...........	5.35975E-002	-3.28708E-003	5.50378E-001	6.99957E-001	-3.05869E-002	-3.93156E-002	6.13105E-001	-4.25832E-002	-4.06506E-003	2.49306E-004	-4.17430E-002	-5.30877E-002	2.31984E-003	2.98186E-003	-4.65005E-002	3.22969E-003
	9	9	4.99023E-002	-6.91214E-002	0.00000E+000	-3.44932E-003	-6.86165E-001	3.23929E-002	2.74821E+001	11	...........	5.38060E-002	-3.30639E-003	5.50473E-001	6.99995E-001	-3.05754E-002	-3.93108E-002	6.13110E-001	-4.27212E-002	-3.71915E-003	2.28542E-004	-3.80495E-002	-4.83847E-002	2.11342E-003	2.71722E-003	-4.23791E-002	2.95295E-003
	10	10	4.99587E-002	-6.49972E-002	0.00000E+000	-3.24717E-003	-6.45150E-001	3.24740E-002	2.71956E+001	11	...........	5.39194E-002	-3.36833E-003	5.50516E-001	6.99966E-001	-3.05785E-002	-3.93078E-002	6.13172E-001	-4.27415E-002	-3.50461E-003	2.18932E-004	-3.57820E-002	-4.54958E-002	1.98751E-003	2.55489E-003	-3.98544E-002	2.77808E-003
	11	11	4.99649E-002	-6.24985E-002	0.00000E+000	-3.12273E-003	-6.20302E-001	3.23900E-002	2.79566E+001	11	...........	5.37808E-002	-3.40292E-003	5.50565E-001	6.99962E-001	-3.05786E-002	-3.92956E-002	6.13069E-001	-4.27085E-002	-3.36122E-003	2.12677E-004	-3.44095E-002	-4.37466E-002	1.91112E-003	2.45591E-003	-3.83159E-002	2.66922E-003
	12	12	4.99336E-002	-6.03998E-002	0.00000E+000	-3.01598E-003	-5.99437E-001	3.25313E-002	2.78402E+001	11	...........	5.40324E-002	-3.35681E-003	5.50782E-001	7.00066E-001	-3.06068E-002	-3.92889E-002	6.13171E-001	-4.27174E-002	-3.26354E-003	2.02750E-004	-3.32671E-002	-4.22838E-002	1.84864E-003	2.37304E-003	-3.70354E-002	2.58012E-003
	13	13	4.99878E-002	-5.91326E-002	0.00000E+000	-2.95591E-003	-5.86840E-001	3.26941E-002	2.75468E+001	11	...........	5.43075E-002	-3.29444E-003	5.50694E-001	7.00036E-001	-3.06268E-002	-3.92729E-002	6.13141E-001	-4.27365E-002	-3.21134E-003	1.94809E-004	-3.25639E-002	-4.13949E-002	1.81104E-003	2.32231E-003	-3.62566E-002	2.52712E-003
	14	14	5.00068E-002	-5.77467E-002	0.00000E+000	-2.88773E-003	-5.73055E-001	3.25692E-002	2.80810E+001	11	...........	5.40857E-002	-3.34889E-003	5.50708E-001	7.00142E-001	-3.06174E-002	-3.92506E-002	6.13388E-001	-4.27876E-002	-3.12327E-003	1.93387E-004	-3.18016E-002	-4.04309E-002	1.76805E-003	2.26659E-003	-3.54211E-002	2.47084E-003
	15	15	4.99671E-002	-5.66323E-002	0.00000E+000	-2.82975E-003	-5.61974E-001	3.27063E-002	2.80711E+001	11	...........	5.43162E-002	-3.29847E-003	5.50779E-001	7.00140E-001	-3.05996E-002	-3.92444E-002	6.13495E-001	-4.27760E-002	-3.07605E-003	1.86800E-004	-3.11919E-002	-3.96505E-002	1.73292E-003	2.22250E-003	-3.47436E-002	2.42250E-003
	16	16	4.99661E-002	-5.55120E-002	0.00000E+000	-2.77372E-003	-5.50833E-001	3.27292E-002	2.80546E+001	11	...........	5.43815E-002	-3.29125E-003	5.50909E-001	7.00091E-001	-3.06214E-002	-3.92562E-002	6.13468E-001	-4.26986E-002	-3.01883E-003	1.82704E-004	-3.05821E-002	-3.88634E-002	1.69985E-003	2.17919E-003	-3.40548E-002	2.37028E-003
	17	17	4.99658E-002	-5.40819E-002	0.00000E+000	-2.70224E-003	-5.36613E-001	3.27809E-002	2.82862E+001	11	...........	5.44560E-002	-3.37264E-003	5.51079E-001	6.99918E-001	-3.06301E-002	-3.92560E-002	6.13416E-001	-4.26861E-002	-2.94508E-003	1.82399E-004	-2.98034E-002	-3.78529E-002	1.65654E-003	2.12304E-003	-3.31747E-002	2.30855E-003
	18	18	4.99965E-002	-5.41357E-002	0.00000E+000	-2.70659E-003	-5.37143E-001	3.28882E-002	2.83550E+001	11	...........	5.46312E-002	-3.37208E-003	5.51059E-001	6.99852E-001	-3.06324E-002	-3.92257E-002	6.13284E-001	-4.26629E-002	-2.95750E-003	1.82550E-004	-2.98320E-002	-3.78869E-002	1.65830E-003	2.12351E-003	-3.32005E-002	2.30959E-003
	19	19	4.99648E-002	-5.24338E-002	0.00000E+000	-2.61985E-003	-5.20227E-001	3.27506E-002	2.82556E+001	11	...........	5.44099E-002	-3.30792E-003	5.50978E-001	6.99745E-001	-3.06182E-002	-3.92329E-002	6.13288E-001	-4.27149E-002	-2.85292E-003	1.73447E-004	-2.88899E-002	-3.66903E-002	1.60543E-003	2.05713E-003	-3.21570E-002	2.23970E-003
	20	20	4.99862E-002	-5.14487E-002	0.00000E+000	-2.57173E-003	-5.10431E-001	3.27238E-002	2.81961E+001	11	...........	5.44943E-002	-3.33347E-003	5.50947E-001	6.99649E-001	-3.06467E-002	-3.92275E-002	6.13364E-001	-4.28281E-002	-2.80366E-003	1.71503E-004	-2.83455E-002	-3.59960E-002	1.57673E-003	2.01821E-003	-3.15568E-002	2.20345E-003
	21	21	4.99884E-002	-5.08413E-002	0.00000E+000	-2.54148E-003	-5.04409E-001	3.28991E-002	2.86411E+001	11	...........	5.48719E-002	-3.27167E-003	5.51049E-001	6.99761E-001	-3.06679E-002	-3.92267E-002	6.13365E-001	-4.28501E-002	-2.78976E-003	1.66336E-004	-2.80160E-002	-3.55768E-002	1.55920E-003	1.99434E-003	-3.11843E-002	2.17856E-003
	22	22	4.99795E-002	-5.04284E-002	0.00000E+000	-2.52039E-003	-5.00302E-001	3.27424E-002	2.84701E+001	11	...........	5.46450E-002	-3.33958E-003	5.51132E-001	6.99850E-001	-3.06797E-002	-3.92411E-002	6.13436E-001	-4.28746E-002	-2.75566E-003	1.68410E-004	-2.77927E-002	-3.52923E-002	1.54713E-003	1.97887E-003	-3.09346E-002	2.16210E-003
	23	23	4.99723E-002	-4.97208E-002	0.00000E+000	-2.48466E-003	-4.93268E-001	3.28803E-002	2.83167E+001	11	...........	5.48550E-002	-3.33069E-003	5.51165E-001	6.99713E-001	-3.06849E-002	-3.92453E-002	6.13280E-001	-4.27287E-002	-2.72743E-003	1.65605E-004	-2.74044E-002	-3.47903E-002	1.52567E-003	1.95131E-003	-3.04928E-002	2.12451E-003
	24	24	4.99913E-002	-4.81754E-002	0.00000E+000	-2.40835E-003	-4.77899E-001	3.28172E-002	2.84614E+001	11	...........	5.47625E-002	-3.34806E-003	5.51044E-001	6.99736E-001	-3.06694E-002	-3.92546E-002	6.13374E-001	-4.26619E-002	-2.63821E-003	1.61294E-004	-2.65468E-002	-3.37101E-002	1.47751E-003	1.89111E-003	-2.95496E-002	2.05526E-003
	25	25	4.99863E-002	-4.86526E-002	0.00000E+000	-2.43196E-003	-4.82654E-001	3.29730E-002	2.90771E+001	11	...........	5.50339E-002	-3.47389E-003	5.51099E-001	6.99765E-001	-3.06704E-002	-3.92618E-002	6.13367E-001	-4.26700E-002	-2.67754E-003	1.69014E-004	-2.68124E-002	-3.40453E-002	1.49219E-003	1.91019E-003	-2.98419E-002	2.07601E-003
	26	26	4.99455E-002	-4.75692E-002	0.00000E+000	-2.37587E-003	-4.71866E-001	3.28922E-002	2.85493E+001	11	...........	5.48865E-002	-3.46389E-003	5.51204E-001	6.99716E-001	-3.06293E-002	-3.92739E-002	6.13395E-001	-4.28496E-002	-2.61091E-003	1.64774E-004	-2.62203E-002	-3.32849E-002	1.45701E-003	1.86823E-003	-2.91787E-002	2.03832E-003
	27	27	5.00015E-002	-4.68336E-002	0.00000E+000	-2.34175E-003	-4.64552E-001	3.29606E-002	2.83667E+001	11	...........	5.49919E-002	-3.42014E-003	5.51094E-001	6.99977E-001	-3.06221E-002	-3.93035E-002	6.13549E-001	-4.29344E-002	-2.57547E-003	1.60178E-004	-2.58097E-002	-3.27825E-002	1.43414E-003	1.84072E-003	-2.87348E-002	2.01078E-003
	28	28	4.99901E-002	-4.66764E-002	0.00000E+000	-2.33336E-003	-4.62985E-001	3.29994E-002	2.91571E+001	11	...........	5.50525E-002	-3.40486E-003	5.50887E-001	7.00007E-001	-3.06418E-002	-3.92944E-002	6.13421E-001	-4.28639E-002	-2.56965E-003	1.58927E-004	-2.57134E-002	-3.26738E-002	1.43025E-003	1.83412E-003	-2.86323E-002	2.00073E-003
	29	29	4.99720E-002	-4.59221E-002	0.00000E+000	-2.29482E-003	-4.55488E-001	3.29904E-002	2.89751E+001	11	...........	5.50307E-002	-3.40306E-003	5.50822E-001	7.00041E-001	-3.06583E-002	-3.92915E-002	6.13404E-001	-4.29239E-002	-2.52713E-003	1.56276E-004	-2.52949E-002	-3.21474E-002	1.40790E-003	1.80435E-003	-2.81688E-002	1.97116E-003
	30	30	4.99936E-002	-4.54377E-002	0.00000E+000	-2.27159E-003	-4.50666E-001	3.30590E-002	2.86485E+001	11	...........	5.51356E-002	-3.38708E-003	5.50648E-001	7.00229E-001	-3.06521E-002	-3.93012E-002	6.13455E-001	-4.28569E-002	-2.50523E-003	1.53901E-004	-2.50202E-002	-3.18168E-002	1.39276E-003	1.78576E-003	-2.78740E-002	1.94732E-003
	31	31	4.99885E-002	-4.50749E-002	0.00000E+000	-2.25323E-003	-4.47059E-001	3.30215E-002	2.87627E+001	11	...........	5.50993E-002	-3.33986E-003	5.50435E-001	7.00238E-001	-3.06600E-002	-3.93231E-002	6.13451E-001	-4.28258E-002	-2.48360E-003	1.50544E-004	-2.48108E-002	-3.15631E-002	1.38200E-003	1.77248E-003	-2.76513E-002	1.93037E-003
	32	32	4.99615E-002	-4.41525E-002	0.00000E+000	-2.20593E-003	-4.37893E-001	3.30910E-002	2.92846E+001	11	...........	5.51951E-002	-3.28514E-003	5.50341E-001	7.00064E-001	-3.06531E-002	-3.93112E-002	6.13419E-001	-4.27879E-002	-2.43701E-003	1.45047E-004	-2.42990E-002	-3.09096E-002	1.35341E-003	1.73569E-003	-2.70840E-002	1.88919E-003
	33	33	4.99788E-002	-4.32455E-002	0.00000E+000	-2.16136E-003	-4.28872E-001	3.30412E-002	2.89091E+001	11	...........	5.51243E-002	-3.28958E-003	5.50424E-001	7.00049E-001	-3.06486E-002	-3.93108E-002	6.13277E-001	-4.28379E-002	-2.38388E-003	1.42260E-004	-2.38034E-002	-3.02739E-002	1.32541E-003	1.70001E-003	-2.65215E-002	1.85255E-003
	34	34	4.99868E-002	-4.33642E-002	0.00000E+000	-2.16764E-003	-4.30050E-001	3.32622E-002	2.89339E+001	11	...........	5.55044E-002	-3.28208E-003	5.50576E-001	7.00003E-001	-3.06489E-002	-3.93225E-002	6.13346E-001	-4.29422E-002	-2.40691E-003	1.42325E-004	-2.38753E-002	-3.03551E-002	1.32906E-003	1.70519E-003	-2.65973E-002	1.86216E-003
	35	35	4.99769E-002	-4.05853E-002	0.00000E+000	-2.02833E-003	-4.02433E-001	3.30474E-002	2.87074E+001	11	...........	5.51368E-002	-3.29931E-003	5.50589E-001	7.00134E-001	-3.06983E-002	-3.93272E-002	6.13389E-001	-4.30058E-002	-2.23774E-003	1.33903E-004	-2.23458E-002	-2.84152E-002	1.24590E-003	1.59611E-003	-2.48946E-002	1.74540E-003
	36	36	4.99758E-002	-4.09191E-002	0.00000E+000	-2.04496E-003	-4.05749E-001	3.30337E-002	2.89416E+001	11	...........	5.51000E-002	-3.31778E-003	5.50494E-001	7.00319E-001	-3.06865E-002	-3.92924E-002	6.13443E-001	-4.29153E-002	-2.25464E-003	1.35760E-004	-2.25257E-002	-2.86564E-002	1.25566E-003	1.60781E-003	-2.51016E-002	1.75605E-003
	37	37	4.99890E-002	-4.16412E-002	0.00000E+000	-2.08160E-003	-4.12926E-001	3.34770E-002	2.91845E+001	11	...........	5.58494E-002	-3.30403E-003	5.50574E-001	7.00431E-001	-3.06683E-002	-3.92997E-002	6.13404E-001	-4.28375E-002	-2.32564E-003	1.37584E-004	-2.29266E-002	-2.91668E-002	1.27707E-003	1.63649E-003	-2.55429E-002	1.78381E-003
	38	38	4.99878E-002	-3.97766E-002	0.00000E+000	-1.98835E-003	-3.94403E-001	3.31029E-002	2.86639E+001	11	...........	5.52237E-002	-3.35000E-003	5.50642E-001	7.00471E-001	-3.06681E-002	-3.93029E-002	6.13299E-001	-4.26775E-002	-2.19661E-003	1.33252E-004	-2.19027E-002	-2.78624E-002	1.21987E-003	1.56334E-003	-2.43950E-002	1.69757E-003
	39	39	4.99853E-002	-3.91531E-002	0.00000E+000	-1.95708E-003	-3.88202E-001	3.32311E-002	2.85937E+001	11	...........	5.54364E-002	-3.36069E-003	5.50592E-001	7.00434E-001	-3.07031E-002	-3.93156E-002	6.13325E-001	-4.26425E-002	-2.17051E-003	1.31582E-004	-2.15574E-002	-2.74242E-002	1.20212E-003	1.53933E-003	-2.40136E-002	1.66959E-003
	40	40	4.99879E-002	-3.93475E-002	0.00000E+000	-1.96690E-003	-3.90141E-001	3.32445E-002	2.92391E+001	11	...........	5.54781E-002	-3.38417E-003	5.50678E-001	7.00361E-001	-3.07103E-002	-3.93410E-002	6.13408E-001	-4.26878E-002	-2.18292E-003	1.33158E-004	-2.16678E-002	-2.75574E-002	1.20837E-003	1.54797E-003	-2.41361E-002	1.67966E-003
	41	41	4.99617E-002	-3.87926E-002	0.00000E+000	-1.93814E-003	-3.84618E-001	3.33787E-002	2.91774E+001	11	...........	5.56919E-002	-3.45653E-003	5.50639E-001	7.00406E-001	-3.06531E-002	-3.93356E-002	6.13366E-001	-4.27039E-002	-2.16043E-003	1.34088E-004	-2.13607E-002	-2.71706E-002	1.18911E-003	1.52593E-003	-2.37941E-002	1.65659E-003
	42	42	4.99734E-002	-3.77535E-002	0.00000E+000	-1.88667E-003	-3.74282E-001	3.32849E-002	2.88522E+001	11	...........	5.55232E-002	-3.46125E-003	5.50645E-001	7.00389E-001	-3.06487E-002	-3.93418E-002	6.13320E-001	-4.26203E-002	-2.09619E-003	1.30674E-004	-2.07887E-002	-2.64421E-002	1.15710E-003	1.48529E-003	-2.31549E-002	1.60906E-003
	43	43	5.00102E-002	-3.71356E-002	0.00000E+000	-1.85716E-003	-3.68135E-001	3.32276E-002	2.89189E+001	11	...........	5.54372E-002	-3.41306E-003	5.50641E-001	7.00431E-001	-3.06571E-002	-3.93328E-002	6.13184E-001	-4.26850E-002	-2.05869E-003	1.26746E-004	-2.04484E-002	-2.60109E-002	1.13847E-003	1.46065E-003	-2.27710E-002	1.58513E-003
	44	44	4.99762E-002	-3.72435E-002	0.00000E+000	-1.86129E-003	-3.69207E-001	3.33841E-002	2.91212E+001	11	...........	5.57064E-002	-3.50556E-003	5.50593E-001	7.00510E-001	-3.06487E-002	-3.93262E-002	6.13118E-001	-4.27847E-002	-2.07470E-003	1.30559E-004	-2.05060E-002	-2.60894E-002	1.14147E-003	1.46465E-003	-2.28346E-002	1.59345E-003
	45	45	4.99802E-002	-3.69052E-002	0.00000E+000	-1.84453E-003	-3.65847E-001	3.33359E-002	2.92808E+001	11	...........	5.56342E-002	-3.43986E-003	5.50575E-001	7.00409E-001	-3.06324E-002	-3.93526E-002	6.13218E-001	-4.29656E-002	-2.05319E-003	1.26949E-004	-2.03191E-002	-2.58487E-002	1.13049E-003	1.45232E-003	-2.26309E-002	1.58565E-003
	46	46	4.99922E-002	-3.62887E-002	0.00000E+000	-1.81415E-003	-3.59715E-001	3.33191E-002	2.86797E+001	11	...........	5.55893E-002	-3.35472E-003	5.50632E-001	7.00367E-001	-3.06401E-002	-3.93610E-002	6.13096E-001	-4.28294E-002	-2.01726E-003	1.21738E-004	-1.99817E-002	-2.54154E-002	1.11189E-003	1.42836E-003	-2.22484E-002	1.55422E-003
	47	47	4.99826E-002	-3.54162E-002	0.00000E+000	-1.77020E-003	-3.51036E-001	3.33379E-002	2.92224E+001	11	...........	5.56300E-002	-3.37292E-003	5.50540E-001	7.00334E-001	-3.06828E-002	-3.93742E-002	6.13162E-001	-4.27843E-002	-1.97021E-003	1.19456E-004	-1.94981E-002	-2.48032E-002	1.08667E-003	1.39449E-003	-2.17159E-002	1.51526E-003
	48	48	4.99695E-002	-3.54301E-002	0.00000E+000	-1.77043E-003	-3.51177E-001	3.34861E-002	2.93365E+001	11	...........	5.58653E-002	-3.43319E-003	5.50359E-001	7.00296E-001	-3.06837E-002	-3.93796E-002	6.13274E-001	-4.29183E-002	-1.97931E-003	1.21639E-004	-1.94993E-002	-2.48116E-002	1.08713E-003	1.39522E-003	-2.17284E-002	1.52060E-003
	49	49	4.99904E-002	-3.47814E-002	0.00000E+000	-1.73874E-003	-3.44723E-001	3.34857E-002	2.90365E+001	11	...........	5.58761E-002	-3.38653E-003	5.50351E-001	7.00288E-001	-3.06674E-002	-3.93837E-002	6.13266E-001	-4.29861E-002	-1.94345E-003	1.17788E-004	-1.91419E-002	-2.43570E-002	1.06665E-003	1.36982E-003	-2.13302E-002	1.49512E-003
	50	50	4.99994E-002	-3.47817E-002	0.00000E+000	-1.73907E-003	-3.44721E-001	3.34945E-002	2.98551E+001	11	...........	5.58901E-002	-3.35403E-003	5.50364E-001	7.00204E-001	-3.06792E-002	-3.93668E-002	6.13284E-001	-4.29528E-002	-1.94396E-003	1.16659E-004	-1.91426E-002	-2.43543E-002	1.06707E-003	1.36925E-003	-2.13311E-002	1.49397E-003
	51	51	4.99644E-002	-3.38112E-002	0.00000E+000	-1.68936E-003	-3.35073E-001	3.34603E-002	2.90689E+001	11	...........	5.58343E-002	-3.37861E-003	5.50391E-001	7.00205E-001	-3.06728E-002	-3.93599E-002	6.13164E-001	-4.28176E-002	-1.88783E-003	1.14235E-004	-1.86094E-002	-2.36748E-002	1.03708E-003	1.33081E-003	-2.07318E-002	1.44772E-003
	52	52	5.00009E-002	-3.32916E-002	0.00000E+000	-1.66461E-003	-3.29907E-001	3.34845E-002	2.90635E+001	11	...........	5.58783E-002	-3.39389E-003	5.50434E-001	7.00351E-001	-3.06672E-002	-3.93640E-002	6.13351E-001	-4.26661E-002	-1.86028E-003	1.12988E-004	-1.83248E-002	-2.33158E-002	1.02096E-003	1.31049E-003	-2.04194E-002	1.42042E-003
	53	53	4.99794E-002	-3.29888E-002	0.00000E+000	-1.64876E-003	-3.26898E-001	3.35055E-002	2.92337E+001	11	...........	5.59122E-002	-3.50250E-003	5.50449E-001	7.00355E-001	-3.06675E-002	-3.93622E-002	6.13585E-001	-4.26643E-002	-1.84448E-003	1.15543E-004	-1.81587E-002	-2.31039E-002	1.01168E-003	1.29851E-003	-2.02414E-002	1.40745E-003
	54	54	4.99834E-002	-3.27547E-002	0.00000E+000	-1.63719E-003	-3.24566E-001	3.35378E-002	2.95770E+001	11	...........	5.59407E-002	-3.46917E-003	5.50263E-001	7.00365E-001	-3.06682E-002	-3.93651E-002	6.13597E-001	-4.26325E-002	-1.83232E-003	1.13632E-004	-1.80237E-002	-2.29403E-002	1.00453E-003	1.28939E-003	-2.00982E-002	1.39642E-003
	55	55	4.99802E-002	-3.21697E-002	0.00000E+000	-1.60785E-003	-3.18749E-001	3.36574E-002	2.93336E+001	11	...........	5.61582E-002	-3.40375E-003	5.50247E-001	7.00386E-001	-3.06339E-002	-3.93443E-002	6.13573E-001	-4.25689E-002	-1.80659E-003	1.09498E-004	-1.77013E-002	-2.25312E-002	9.85484E-004	1.26570E-003	-1.97385E-002	1.36943E-003
	56	56	4.99780E-002	-3.12857E-002	0.00000E+000	-1.56360E-003	-3.09969E-001	3.33192E-002	2.93387E+001	11	...........	5.55872E-002	-3.38319E-003	5.50291E-001	7.00283E-001	-3.06482E-002	-3.93721E-002	6.13552E-001	-4.26922E-002	-1.73909E-003	1.05846E-004	-1.72163E-002	-2.19088E-002	9.58850E-004	1.23178E-003	-1.91954E-002	1.33566E-003
	57	57	4.99821E-002	-3.14533E-002	0.00000E+000	-1.57210E-003	-3.11634E-001	3.37877E-002	2.95753E+001	11	...........	5.63853E-002	-3.34819E-003	5.50443E-001	7.00164E-001	-3.06583E-002	-3.93742E-002	6.13415E-001	-4.27147E-002	-1.77350E-003	1.05312E-004	-1.73132E-002	-2.20224E-002	9.64305E-004	1.23845E-003	-1.92939E-002	1.34352E-003
	58	58	4.99914E-002	-3.08442E-002	0.00000E+000	-1.54194E-003	-3.05596E-001	3.35354E-002	2.96112E+001	11	...........	5.59678E-002	-3.36917E-003	5.50511E-001	7.00283E-001	-3.06576E-002	-3.93765E-002	6.13261E-001	-4.26563E-002	-1.72628E-003	1.03919E-004	-1.69801E-002	-2.15997E-002	9.45610E-004	1.21454E-003	-1.89156E-002	1.31570E-003
	59	59	4.99805E-002	-3.06881E-002	0.00000E+000	-1.53381E-003	-3.04043E-001	3.36362E-002	2.99641E+001	11	...........	5.61467E-002	-3.34028E-003	5.50369E-001	7.00448E-001	-3.06340E-002	-3.93904E-002	6.13326E-001	-4.26997E-002	-1.72304E-003	1.02507E-004	-1.68898E-002	-2.14955E-002	9.40102E-004	1.20882E-003	-1.88218E-002	1.31038E-003
	60	60	4.99774E-002	-3.03843E-002	0.00000E+000	-1.51853E-003	-3.01029E-001	3.37326E-002	2.96271E+001	11	...........	5.62642E-002	-3.36583E-003	5.50315E-001	7.00474E-001	-3.06343E-002	-3.93950E-002	6.13328E-001	-4.28306E-002	-1.70955E-003	1.02268E-004	-1.67209E-002	-2.12834E-002	9.30801E-004	1.19699E-003	-1.86355E-002	1.30138E-003
	61	61	4.99992E-002	-2.88027E-002	0.00000E+000	-1.44011E-003	-2.85294E-001	3.36099E-002	2.88293E+001	11	...........	5.60536E-002	-3.35528E-003	5.50346E-001	7.00540E-001	-3.06440E-002	-3.93737E-002	6.13211E-001	-4.28181E-002	-1.61450E-003	9.66411E-005	-1.58515E-002	-2.01774E-002	8.82631E-004	1.13407E-003	-1.76622E-002	1.23328E-003
	62	62	4.99844E-002	-2.87623E-002	0.00000E+000	-1.43767E-003	-2.84897E-001	3.34377E-002	2.95208E+001	11	...........	5.57886E-002	-3.35486E-003	5.50256E-001	7.00568E-001	-3.06253E-002	-3.93654E-002	6.13124E-001	-4.27093E-002	-1.60461E-003	9.64936E-005	-1.58266E-002	-2.01499E-002	8.80854E-004	1.13224E-003	-1.76349E-002	1.22842E-003
	63	63	4.99727E-002	-2.89065E-002	0.00000E+000	-1.44454E-003	-2.86330E-001	3.38404E-002	2.97336E+001	11	...........	5.64611E-002	-3.31958E-003	5.50374E-001	7.00488E-001	-3.06383E-002	-3.93846E-002	6.13191E-001	-4.26204E-002	-1.63210E-003	9.59577E-005	-1.59094E-002	-2.02487E-002	8.85648E-004	1.13847E-003	-1.77252E-002	1.23201E-003
	64	64	4.99934E-002	-2.85696E-002	0.00000E+000	-1.42829E-003	-2.82980E-001	3.37407E-002	2.98016E+001	11	...........	5.63062E-002	-3.24431E-003	5.50277E-001	7.00360E-001	-3.05997E-002	-3.93839E-002	6.13132E-001	-4.27564E-002	-1.60865E-003	9.26885E-005	-1.57212E-002	-2.00090E-002	8.74222E-004	1.12518E-003	-1.75169E-002	1.22153E-003
	65	65	4.99744E-002	-2.79889E-002	0.00000E+000	-1.39873E-003	-2.77201E-001	3.36102E-002	2.97752E+001	11	...........	5.60903E-002	-3.35681E-003	5.50331E-001	7.00384E-001	-3.06128E-002	-3.94012E-002	6.13222E-001	-4.27493E-002	-1.56991E-003	9.39533E-005	-1.54032E-002	-1.96030E-002	8.56818E-004	1.10280E-003	-1.71634E-002	1.19651E-003
	66	66	4.99910E-002	-2.77369E-002	0.00000E+000	-1.38660E-003	-2.74698E-001	3.38173E-002	2.91707E+001	11	...........	5.64335E-002	-3.34708E-003	5.50336E-001	7.00416E-001	-3.06172E-002	-3.93839E-002	6.13303E-001	-4.26803E-002	-1.56529E-003	9.28378E-005	-1.52646E-002	-1.94274E-002	8.49228E-004	1.09239E-003	-1.70112E-002	1.18382E-003
	67	67	4.99894E-002	-2.75232E-002	0.00000E+000	-1.37587E-003	-2.72570E-001	3.37877E-002	2.98376E+001	11	...........	5.63765E-002	-3.34681E-003	5.50326E-001	7.00416E-001	-3.06186E-002	-3.93700E-002	6.13303E-001	-4.27431E-002	-1.55166E-003	9.21148E-005	-1.51467E-002	-1.92777E-002	8.42723E-004	1.08359E-003	-1.68801E-002	1.17643E-003
	68	68	4.99788E-002	-2.70439E-002	0.00000E+000	-1.35162E-003	-2.67800E-001	3.38193E-002	2.97844E+001	11	...........	5.63972E-002	-3.40000E-003	5.50312E-001	7.00393E-001	-3.06332E-002	-3.93635E-002	6.13376E-001	-4.27044E-002	-1.52520E-003	9.19494E-005	-1.48826E-002	-1.89414E-002	8.28442E-004	1.06454E-003	-1.65881E-002	1.15490E-003
	69	69	4.99833E-002	-2.65297E-002	0.00000E+000	-1.32604E-003	-2.62687E-001	3.37968E-002	2.92617E+001	11	...........	5.63935E-002	-3.35139E-003	5.50300E-001	7.00443E-001	-3.06287E-002	-3.93511E-002	6.13471E-001	-4.27243E-002	-1.49610E-003	8.89114E-005	-1.45993E-002	-1.85826E-002	8.12572E-004	1.04397E-003	-1.62752E-002	1.13346E-003
	70	70	4.99940E-002	-2.62470E-002	0.00000E+000	-1.31219E-003	-2.59878E-001	3.37704E-002	2.96554E+001	11	...........	5.63579E-002	-3.36556E-003	5.50215E-001	7.00433E-001	-3.06056E-002	-3.93536E-002	6.13355E-001	-4.27529E-002	-1.47922E-003	8.83356E-005	-1.44415E-002	-1.83842E-002	8.03303E-004	1.03291E-003	-1.60987E-002	1.12213E-003
	71	71	4.99814E-002	-2.59984E-002	0.00000E+000	-1.29944E-003	-2.57410E-001	3.38683E-002	2.99633E+001	11	...........	5.65140E-002	-3.40083E-003	5.50236E-001	7.00341E-001	-3.06192E-002	-3.93714E-002	6.13330E-001	-4.27460E-002	-1.46927E-003	8.84162E-005	-1.43052E-002	-1.82077E-002	7.96049E-004	1.02359E-003	-1.59456E-002	1.11133E-003
	72	72	4.99895E-002	-2.58679E-002	0.00000E+000	-1.29312E-003	-2.56107E-001	3.38370E-002	2.96689E+001	11	...........	5.64400E-002	-3.37528E-003	5.50215E-001	7.00461E-001	-3.06300E-002	-3.93892E-002	6.13402E-001	-4.27929E-002	-1.45998E-003	8.73113E-005	-1.42329E-002	-1.81194E-002	7.92333E-004	1.01891E-003	-1.58674E-002	1.10696E-003
	73	73	4.99705E-002	-2.48735E-002	0.00000E+000	-1.24294E-003	-2.46221E-001	3.38755E-002	2.94954E+001	11	...........	5.65222E-002	-3.35278E-003	5.50221E-001	7.00705E-001	-3.06274E-002	-3.93875E-002	6.13448E-001	-4.26846E-002	-1.40591E-003	8.33954E-005	-1.36860E-002	-1.74290E-002	7.61811E-004	9.79706E-004	-1.52586E-002	1.06172E-003
	74	74	4.99902E-002	-2.44290E-002	0.00000E+000	-1.22121E-003	-2.41795E-001	3.37408E-002	2.95587E+001	11	...........	5.62874E-002	-3.48972E-003	5.50129E-001	7.00680E-001	-3.06301E-002	-3.94137E-002	6.13323E-001	-4.26210E-002	-1.37504E-003	8.52504E-005	-1.34391E-002	-1.71169E-002	7.48263E-004	9.62838E-004	-1.49829E-002	1.04119E-003
	75	75	4.99920E-002	-2.48615E-002	0.00000E+000	-1.24287E-003	-2.46091E-001	3.40229E-002	2.97734E+001	11	...........	5.67885E-002	-3.42292E-003	5.49998E-001	7.00631E-001	-3.06435E-002	-3.93937E-002	6.13372E-001	-4.27419E-002	-1.41184E-003	8.50987E-005	-1.36737E-002	-1.74187E-002	7.61842E-004	9.79386E-004	-1.52493E-002	1.06263E-003
	76	76	4.99794E-002	-2.43564E-002	0.00000E+000	-1.21732E-003	-2.41074E-001	3.38799E-002	2.95818E+001	11	...........	5.65214E-002	-3.37014E-003	5.49894E-001	7.00742E-001	-3.06583E-002	-3.93749E-002	6.13318E-001	-4.27721E-002	-1.37666E-003	8.20844E-005	-1.33934E-002	-1.70675E-002	7.46726E-004	9.59029E-004	-1.49382E-002	1.04177E-003
	77	77	4.99855E-002	-2.39026E-002	0.00000E+000	-1.19478E-003	-2.36561E-001	3.38086E-002	2.95666E+001	11	...........	5.64112E-002	-3.44194E-003	5.49857E-001	7.00755E-001	-3.06476E-002	-3.93883E-002	6.13228E-001	-4.29122E-002	-1.34837E-003	8.22713E-005	-1.31430E-002	-1.67498E-002	7.32557E-004	9.41482E-004	-1.46577E-002	1.02571E-003
	78	78	4.99815E-002	-2.37188E-002	0.00000E+000	-1.18550E-003	-2.34736E-001	3.39645E-002	3.00231E+001	11	...........	5.66857E-002	-3.34056E-003	5.49924E-001	7.00772E-001	-3.06456E-002	-3.94092E-002	6.13177E-001	-4.29932E-002	-1.34451E-003	7.92338E-005	-1.30435E-002	-1.66214E-002	7.26875E-004	9.34737E-004	-1.45438E-002	1.01975E-003
	79	79	4.99925E-002	-2.31410E-002	0.00000E+000	-1.15688E-003	-2.28998E-001	3.39549E-002	2.95353E+001	11	...........	5.66497E-002	-3.36236E-003	5.50023E-001	7.00771E-001	-3.06411E-002	-3.94246E-002	6.13176E-001	-4.28881E-002	-1.31093E-003	7.78083E-005	-1.27281E-002	-1.62165E-002	7.09065E-004	9.12323E-004	-1.41895E-002	9.92472E-004
	80	80	4.99899E-002	-2.29521E-002	0.00000E+000	-1.14737E-003	-2.27118E-001	3.38839E-002	3.01035E+001	11	...........	5.65074E-002	-3.35681E-003	5.50039E-001	7.00816E-001	-3.06583E-002	-3.94303E-002	6.13163E-001	-4.27806E-002	-1.29696E-003	7.70456E-005	-1.26245E-002	-1.60852E-002	7.03672E-004	9.05007E-004	-1.40734E-002	9.81902E-004
	81	81	4.99742E-002	-2.26958E-002	0.00000E+000	-1.13421E-003	-2.24563E-001	3.39234E-002	2.98262E+001	11	...........	5.66136E-002	-3.37597E-003	5.50099E-001	7.00736E-001	-3.06629E-002	-3.94225E-002	6.13210E-001	-4.27899E-002	-1.28489E-003	7.66205E-005	-1.24850E-002	-1.59038E-002	6.95921E-004	8.94727E-004	-1.39173E-002	9.71152E-004
	82	82	4.99982E-002	-2.23783E-002	0.00000E+000	-1.11887E-003	-2.21404E-001	3.40166E-002	3.00130E+001	11	...........	5.67299E-002	-3.30222E-003	5.49929E-001	7.00698E-001	-3.06529E-002	-3.93947E-002	6.13210E-001	-4.27432E-002	-1.26952E-003	7.38981E-005	-1.23065E-002	-1.56804E-002	6.85960E-004	8.81587E-004	-1.37226E-002	9.56520E-004
	83	83	4.99836E-002	-2.21230E-002	0.00000E+000	-1.10579E-003	-2.18858E-001	3.40467E-002	3.06753E+001	11	...........	5.67997E-002	-3.34486E-003	5.49921E-001	7.00592E-001	-3.06542E-002	-3.93957E-002	6.13121E-001	-4.26653E-002	-1.25658E-003	7.39982E-005	-1.21659E-002	-1.54992E-002	6.78161E-004	8.71549E-004	-1.35641E-002	9.43882E-004
	84	84	4.99810E-002	-2.20352E-002	0.00000E+000	-1.10134E-003	-2.17991E-001	3.39177E-002	2.99081E+001	11	...........	5.66008E-002	-3.27444E-003	5.50007E-001	7.00477E-001	-3.06617E-002	-3.94062E-002	6.13108E-001	-4.26421E-002	-1.24721E-003	7.21530E-005	-1.21195E-002	-1.54351E-002	6.75636E-004	8.68324E-004	-1.35100E-002	9.39626E-004
	85	85	4.99872E-002	-2.13230E-002	0.00000E+000	-1.06588E-003	-2.10909E-001	3.40529E-002	2.92488E+001	11	...........	5.68122E-002	-3.25486E-003	5.50108E-001	7.00463E-001	-3.06362E-002	-3.94049E-002	6.13032E-001	-4.26706E-002	-1.21141E-003	6.94034E-005	-1.17300E-002	-1.49360E-002	6.53257E-004	8.40230E-004	-1.30717E-002	9.09864E-004
	86	86	4.99765E-002	-2.12318E-002	0.00000E+000	-1.06109E-003	-2.10007E-001	3.39291E-002	2.95681E+001	11	...........	5.65974E-002	-3.25306E-003	5.50190E-001	7.00395E-001	-3.06582E-002	-3.93914E-002	6.13031E-001	-4.28018E-002	-1.20167E-003	6.90683E-005	-1.16816E-002	-1.48707E-002	6.50930E-004	8.36352E-004	-1.30158E-002	9.08761E-004
	87	87	4.99946E-002	-2.10586E-002	0.00000E+000	-1.05282E-003	-2.08277E-001	3.40914E-002	3.01886E+001	11	...........	5.68664E-002	-3.31514E-003	5.50173E-001	7.00382E-001	-3.06850E-002	-3.93697E-002	6.13159E-001	-4.28161E-002	-1.19753E-003	6.98122E-005	-1.15859E-002	-1.47491E-002	6.46183E-004	8.29071E-004	-1.29123E-002	9.01648E-004
	88	88	4.99868E-002	-2.07653E-002	0.00000E+000	-1.03799E-003	-2.05371E-001	3.40597E-002	3.00705E+001	11	...........	5.68158E-002	-3.33111E-003	5.50168E-001	7.00389E-001	-3.06640E-002	-3.93550E-002	6.13228E-001	-4.28329E-002	-1.17980E-003	6.91716E-005	-1.14244E-002	-1.45438E-002	6.36749E-004	8.17220E-004	-1.27339E-002	8.89440E-004
	89	89	4.99870E-002	-2.05002E-002	0.00000E+000	-1.02475E-003	-2.02744E-001	3.40583E-002	3.02353E+001	11	...........	5.68169E-002	-3.33500E-003	5.50294E-001	7.00559E-001	-3.06647E-002	-3.93396E-002	6.13261E-001	-4.28224E-002	-1.16476E-003	6.83683E-005	-1.12812E-002	-1.43616E-002	6.28634E-004	8.06471E-004	-1.25720E-002	8.77868E-004
	90	90	4.99872E-002	-2.03685E-002	0.00000E+000	-1.01817E-003	-2.01433E-001	3.40749E-002	3.06627E+001	11	...........	5.68556E-002	-3.38736E-003	5.50247E-001	7.00700E-001	-3.06676E-002	-3.93396E-002	6.13168E-001	-4.28142E-002	-1.15806E-003	6.89956E-005	-1.12077E-002	-1.42722E-002	6.24655E-004	8.01290E-004	-1.24893E-002	8.72062E-004
	91	91	4.99814E-002	-2.01079E-002	0.00000E+000	-1.00502E-003	-1.98836E-001	3.41098E-002	2.98443E+001	11	...........	5.68953E-002	-3.41597E-003	5.49959E-001	7.00697E-001	-3.06657E-002	-3.93593E-002	6.13155E-001	-4.27310E-002	-1.14404E-003	6.86880E-005	-1.10585E-002	-1.40895E-002	6.16623E-004	7.91433E-004	-1.23293E-002	8.59230E-004
	92	92	4.99900E-002	-1.95523E-002	0.00000E+000	-9.77417E-004	-1.93309E-001	3.39812E-002	3.03190E+001	11	...........	5.67026E-002	-3.39611E-003	5.49916E-001	7.00754E-001	-3.06464E-002	-3.93704E-002	6.13152E-001	-4.28100E-002	-1.10866E-003	6.64016E-005	-1.07521E-002	-1.37013E-002	5.99206E-004	7.69780E-004	-1.19885E-002	8.37032E-004
	93	93	4.99850E-002	-1.95178E-002	0.00000E+000	-9.75596E-004	-1.92963E-001	3.41240E-002	3.00329E+001	11	...........	5.69394E-002	-3.46528E-003	5.49994E-001	7.00840E-001	-3.06906E-002	-3.93575E-002	6.13268E-001	-4.28024E-002	-1.11133E-003	6.76345E-005	-1.07347E-002	-1.36788E-002	5.99011E-004	7.68171E-004	-1.19696E-002	8.35407E-004
	94	94	4.99893E-002	-1.93823E-002	0.00000E+000	-9.68909E-004	-1.91619E-001	3.41052E-002	3.02583E+001	11	...........	5.69014E-002	-3.42194E-003	5.49924E-001	7.00859E-001	-3.06708E-002	-3.93849E-002	6.13456E-001	-4.28528E-002	-1.10288E-003	6.63253E-005	-1.06588E-002	-1.35843E-002	5.94472E-004	7.63371E-004	-1.18902E-002	8.30587E-004
	95	95	4.99838E-002	-1.90829E-002	0.00000E+000	-9.53836E-004	-1.88641E-001	3.39778E-002	3.02417E+001	11	...........	5.66819E-002	-3.37889E-003	5.49939E-001	7.00853E-001	-3.06806E-002	-3.93889E-002	6.13399E-001	-4.26768E-002	-1.08166E-003	6.44790E-005	-1.04944E-002	-1.33743E-002	5.85474E-004	7.51654E-004	-1.17054E-002	8.14397E-004
	96	96	4.99902E-002	-1.87197E-002	0.00000E+000	-9.35803E-004	-1.85031E-001	3.41472E-002	2.99150E+001	11	...........	5.69747E-002	-3.36667E-003	5.49975E-001	7.00868E-001	-3.06871E-002	-3.93944E-002	6.13373E-001	-4.27424E-002	-1.06655E-003	6.30231E-005	-1.02954E-002	-1.31201E-002	5.74454E-004	7.37453E-004	-1.14822E-002	8.00125E-004
	97	97	4.99881E-002	-1.85908E-002	0.00000E+000	-9.29317E-004	-1.83749E-001	3.40816E-002	3.06300E+001	11	...........	5.68687E-002	-3.36069E-003	5.50002E-001	7.00862E-001	-3.07010E-002	-3.94011E-002	6.13304E-001	-4.29772E-002	-1.05723E-003	6.24779E-005	-1.02250E-002	-1.30296E-002	5.70755E-004	7.32497E-004	-1.14018E-002	7.98980E-004
	98	98	4.99790E-002	-1.84619E-002	0.00000E+000	-9.22707E-004	-1.82467E-001	3.41918E-002	3.07237E+001	11	...........	5.70281E-002	-3.34917E-003	5.50034E-001	7.01060E-001	-3.06849E-002	-3.93753E-002	6.13446E-001	-4.30347E-002	-1.05285E-003	6.18319E-005	-1.01547E-002	-1.29429E-002	5.66500E-004	7.26942E-004	-1.13254E-002	7.94502E-004
	99	99	4.99889E-002	-1.82267E-002	0.00000E+000	-9.11133E-004	-1.80131E-001	3.42062E-002	3.03064E+001	11	...........	5.70631E-002	-3.36736E-003	5.49946E-001	7.00951E-001	-3.06942E-002	-3.93806E-002	6.13290E-001	-4.29061E-002	-1.04007E-003	6.13759E-005	-1.00237E-002	-1.27760E-002	5.59453E-004	7.17777E-004	-1.11783E-002	7.82037E-004
	100	100	4.99840E-002	-1.78519E-002	0.00000E+000	-8.92310E-004	-1.76407E-001	3.40038E-002	2.99733E+001	11	...........	5.67407E-002	-3.37500E-003	5.49887E-001	7.00893E-001	-3.06811E-002	-3.94078E-002	6.13225E-001	-4.27160E-002	-1.01293E-003	6.02502E-005	-9.81653E-003	-1.25123E-002	5.47716E-004	7.03504E-004	-1.09472E-002	7.62561E-004
	101	101	4.99798E-002	-1.76672E-002	0.00000E+000	-8.83002E-004	-1.74565E-001	3.42941E-002	3.04698E+001	11	...........	5.72103E-002	-3.43375E-003	5.49891E-001	7.01157E-001	-3.06768E-002	-3.94378E-002	6.13348E-001	-4.26863E-002	-1.01074E-003	6.06646E-005	-9.71501E-003	-1.23875E-002	5.41972E-004	6.96754E-004	-1.08361E-002	7.54145E-004
	102	102	4.99886E-002	-1.69049E-002	0.00000E+000	-8.45053E-004	-1.66981E-001	3.41719E-002	2.97218E+001	11	...........	5.69850E-002	-3.42139E-003	5.49789E-001	7.01024E-001	-3.06989E-002	-3.94265E-002	6.13453E-001	-4.26915E-002	-9.63326E-004	5.78383E-005	-9.29413E-003	-1.18507E-002	5.18962E-004	6.66502E-004	-1.03704E-002	7.21696E-004
	103	103	4.99982E-002	-1.69947E-002	0.00000E+000	-8.49703E-004	-1.67876E-001	3.40199E-002	3.07440E+001	11	...........	5.67831E-002	-3.33083E-003	5.49510E-001	7.01306E-001	-3.07071E-002	-3.94183E-002	6.13489E-001	-4.26636E-002	-9.65009E-004	5.66064E-005	-9.33874E-003	-1.19185E-002	5.21857E-004	6.69902E-004	-1.04260E-002	7.25054E-004
	104	104	4.99811E-002	-1.70350E-002	0.00000E+000	-8.51427E-004	-1.68278E-001	3.42764E-002	3.03037E+001	11	...........	5.71876E-002	-3.38194E-003	5.49619E-001	7.01369E-001	-3.06903E-002	-3.94375E-002	6.13428E-001	-4.26879E-002	-9.74190E-004	5.76113E-005	-9.36275E-003	-1.19478E-002	5.22808E-004	6.71817E-004	-1.04497E-002	7.27187E-004
	105	105	4.99912E-002	-1.67868E-002	0.00000E+000	-8.39193E-004	-1.65805E-001	3.42006E-002	3.01206E+001	11	...........	5.70653E-002	-3.38333E-003	5.49694E-001	7.01509E-001	-3.07012E-002	-3.94211E-002	6.13499E-001	-4.27407E-002	-9.57944E-004	5.67954E-005	-9.22760E-003	-1.17761E-002	5.15376E-004	6.61755E-004	-1.02987E-002	7.17480E-004
	106	106	4.99773E-002	-1.65883E-002	0.00000E+000	-8.29039E-004	-1.63833E-001	3.42761E-002	3.05047E+001	11	...........	5.71843E-002	-3.37042E-003	5.49785E-001	7.01324E-001	-3.06782E-002	-3.93983E-002	6.13447E-001	-4.28489E-002	-9.48591E-004	5.59095E-005	-9.12000E-003	-1.16338E-002	5.08899E-004	6.53552E-004	-1.01761E-002	7.10790E-004
	107	107	4.99886E-002	-1.63376E-002	0.00000E+000	-8.16694E-004	-1.61339E-001	3.41735E-002	3.04565E+001	11	...........	5.70171E-002	-3.34681E-003	5.49823E-001	7.01169E-001	-3.06651E-002	-3.93957E-002	6.13455E-001	-4.26564E-002	-9.31523E-004	5.46788E-005	-8.98280E-003	-1.14554E-002	5.00995E-004	6.43632E-004	-1.00224E-002	6.96904E-004
	108	108	4.99906E-002	-1.61897E-002	0.00000E+000	-8.09333E-004	-1.59867E-001	3.42097E-002	3.05403E+001	11	...........	5.70482E-002	-3.33847E-003	5.49845E-001	7.00952E-001	-3.06787E-002	-3.93978E-002	6.13421E-001	-4.27792E-002	-9.23593E-004	5.40488E-005	-8.90182E-003	-1.13482E-002	4.96679E-004	6.37838E-004	-9.93109E-003	6.92581E-004
	109	109	4.99829E-002	-1.58161E-002	0.00000E+000	-7.90534E-004	-1.56150E-001	3.42705E-002	2.99389E+001	11	...........	5.71632E-002	-3.25792E-003	5.49995E-001	7.00889E-001	-3.06764E-002	-3.94029E-002	6.13477E-001	-4.27074E-002	-9.04097E-004	5.15275E-005	-8.69876E-003	-1.10853E-002	4.85180E-004	6.23200E-004	-9.70280E-003	6.75463E-004
	110	110	4.99959E-002	-1.56348E-002	0.00000E+000	-7.81677E-004	-1.54351E-001	3.41681E-002	3.00887E+001	11	...........	5.70035E-002	-3.35028E-003	5.50041E-001	7.00945E-001	-3.06569E-002	-3.93974E-002	6.13356E-001	-4.28472E-002	-8.91239E-004	5.23810E-005	-8.59980E-003	-1.09592E-002	4.79316E-004	6.15971E-004	-9.58972E-003	6.69909E-004
	111	111	4.99778E-002	-1.56170E-002	0.00000E+000	-7.80503E-004	-1.54170E-001	3.42761E-002	3.01662E+001	11	...........	5.71758E-002	-3.37153E-003	5.49978E-001	7.00918E-001	-3.06933E-002	-3.94058E-002	6.13580E-001	-4.27579E-002	-8.92914E-004	5.26531E-005	-8.58900E-003	-1.09462E-002	4.79337E-004	6.15400E-004	-9.58228E-003	6.67750E-004
	112	112	4.99913E-002	-1.55609E-002	0.00000E+000	-7.77909E-004	-1.53613E-001	3.44099E-002	3.07289E+001	11	...........	5.74108E-002	-3.43083E-003	5.49990E-001	7.01004E-001	-3.07024E-002	-3.93767E-002	6.13558E-001	-4.28460E-002	-8.93364E-004	5.33868E-005	-8.55834E-003	-1.09082E-002	4.77756E-004	6.12736E-004	-9.54751E-003	6.66721E-004
	113	113	4.99809E-002	-1.51872E-002	0.00000E+000	-7.59072E-004	-1.49897E-001	3.41950E-002	3.01760E+001	11	...........	5.70428E-002	-3.41375E-003	5.50109E-001	7.01117E-001	-3.06874E-002	-3.93742E-002	6.13239E-001	-4.27536E-002	-8.66322E-004	5.18454E-005	-8.35463E-003	-1.06480E-002	4.66056E-004	5.97985E-004	-9.31340E-003	6.49309E-004
	114	114	4.99875E-002	-1.47894E-002	0.00000E+000	-7.39286E-004	-1.45938E-001	3.42321E-002	2.99494E+001	11	...........	5.71142E-002	-3.37444E-003	5.50132E-001	7.01208E-001	-3.06854E-002	-3.94075E-002	6.13301E-001	-4.28885E-002	-8.44687E-004	4.99061E-005	-8.13614E-003	-1.03705E-002	4.53820E-004	5.82815E-004	-9.07038E-003	6.34296E-004
	115	115	4.99947E-002	-1.46825E-002	0.00000E+000	-7.34046E-004	-1.44880E-001	3.42611E-002	3.02316E+001	11	...........	5.71606E-002	-3.36639E-003	5.50177E-001	7.01049E-001	-3.06733E-002	-3.94124E-002	6.13297E-001	-4.30426E-002	-8.39260E-004	4.94270E-005	-8.07797E-003	-1.02932E-002	4.50361E-004	5.78672E-004	-9.00473E-003	6.31973E-004
	116	116	4.99876E-002	-1.47060E-002	0.00000E+000	-7.35117E-004	-1.45108E-001	3.43826E-002	3.06119E+001	11	...........	5.73790E-002	-3.31389E-003	5.50191E-001	7.00929E-001	-3.07060E-002	-3.94149E-002	6.13492E-001	-4.28925E-002	-8.43816E-004	4.87340E-005	-8.09111E-003	-1.03079E-002	4.51562E-004	5.79635E-004	-9.02202E-003	6.30777E-004
	117	117	4.99826E-002	-1.43552E-002	0.00000E+000	-7.17508E-004	-1.41622E-001	3.42818E-002	2.97994E+001	11	...........	5.71750E-002	-3.38264E-003	5.50127E-001	7.00760E-001	-3.07256E-002	-3.94315E-002	6.13582E-001	-4.28654E-002	-8.20756E-004	4.85583E-005	-7.89716E-003	-1.00595E-002	4.41070E-004	5.66046E-004	-8.80808E-003	6.15340E-004
	118	118	4.99894E-002	-1.43148E-002	0.00000E+000	-7.15587E-004	-1.41218E-001	3.43343E-002	3.00939E+001	11	...........	5.72787E-002	-3.38542E-003	5.50029E-001	7.00852E-001	-3.07572E-002	-3.94400E-002	6.13467E-001	-4.28267E-002	-8.19932E-004	4.84615E-005	-7.87354E-003	-1.00325E-002	4.40283E-004	5.64574E-004	-8.78163E-003	6.13054E-004
	119	119	4.99878E-002	-1.39349E-002	0.00000E+000	-6.96577E-004	-1.37447E-001	3.43064E-002	3.03302E+001	11	...........	5.72414E-002	-3.35500E-003	5.49936E-001	7.00854E-001	-3.07189E-002	-3.94308E-002	6.13414E-001	-4.27776E-002	-7.97656E-004	4.67517E-005	-7.66333E-003	-9.76636E-003	4.28066E-004	5.49467E-004	-8.54789E-003	5.96104E-004
	120	120	4.99829E-002	-1.38965E-002	0.00000E+000	-6.94587E-004	-1.37060E-001	3.43040E-002	3.01679E+001	11	...........	5.72375E-002	-3.34403E-003	5.50098E-001	7.00761E-001	-3.07050E-002	-3.94451E-002	6.13224E-001	-4.29375E-002	-7.95400E-004	4.64702E-005	-7.64443E-003	-9.73811E-003	4.26691E-004	5.48148E-004	-8.52165E-003	5.96680E-004
	121	121	4.99907E-002	-1.39335E-002	0.00000E+000	-6.96544E-004	-1.37432E-001	3.44163E-002	3.06545E+001	11	...........	5.74022E-002	-3.52403E-003	5.50182E-001	7.00760E-001	-3.07233E-002	-3.94287E-002	6.13415E-001	-4.27947E-002	-7.99813E-004	4.91020E-005	-7.66594E-003	-9.76402E-003	4.28083E-004	5.49380E-004	-8.54700E-003	5.96280E-004
	122	122	4.99864E-002	-1.33500E-002	0.00000E+000	-6.67316E-004	-1.31627E-001	3.42971E-002	2.99007E+001	11	...........	5.72197E-002	-3.46514E-003	5.50205E-001	7.00725E-001	-3.07107E-002	-3.93987E-002	6.13459E-001	-4.28094E-002	-7.63881E-004	4.62594E-005	-7.34521E-003	-9.35465E-003	4.09986E-004	5.25972E-004	-8.18965E-003	5.71504E-004
	123	123	4.99926E-002	-1.34288E-002	0.00000E+000	-6.71340E-004	-1.32404E-001	3.42452E-002	3.07086E+001	11	...........	5.71407E-002	-3.35986E-003	5.50124E-001	7.00675E-001	-3.07122E-002	-3.93807E-002	6.13411E-001	-4.26590E-002	-7.67331E-004	4.51189E-005	-7.38750E-003	-9.40922E-003	4.12428E-004	5.28835E-004	-8.23737E-003	5.72859E-004
	124	124	4.99823E-002	-1.31935E-002	0.00000E+000	-6.59443E-004	-1.30074E-001	3.44045E-002	3.05410E+001	11	...........	5.73946E-002	-3.36847E-003	5.50236E-001	7.00703E-001	-3.07031E-002	-3.93851E-002	6.13282E-001	-4.27474E-002	-7.57237E-004	4.44420E-005	-7.25956E-003	-9.24474E-003	4.05082E-004	5.19629E-004	-8.09136E-003	5.63989E-004
	125	125	4.99849E-002	-1.30820E-002	0.00000E+000	-6.53901E-004	-1.28964E-001	3.44067E-002	3.08616E+001	11	...........	5.73939E-002	-3.40111E-003	5.50313E-001	7.00667E-001	-3.06939E-002	-3.93694E-002	6.13392E-001	-4.27126E-002	-7.50825E-004	4.44932E-005	-7.19918E-003	-9.16610E-003	4.01537E-004	5.15030E-004	-8.02438E-003	5.58765E-004
	126	126	4.99819E-002	-1.28264E-002	0.00000E+000	-6.41086E-004	-1.26427E-001	3.44793E-002	3.04088E+001	11	...........	5.75183E-002	-3.41181E-003	5.50284E-001	7.00697E-001	-3.06831E-002	-3.93725E-002	6.13366E-001	-4.26969E-002	-7.37751E-004	4.37611E-005	-7.05814E-003	-8.98739E-003	3.93552E-004	5.05006E-004	-7.86725E-003	5.47646E-004
	127	127	4.99909E-002	-1.26039E-002	0.00000E+000	-6.30079E-004	-1.24214E-001	3.43768E-002	3.01861E+001	11	...........	5.73301E-002	-3.45417E-003	5.50296E-001	7.00611E-001	-3.06725E-002	-3.93925E-002	6.13383E-001	-4.25518E-002	-7.22582E-004	4.35359E-005	-6.93586E-003	-8.83041E-003	3.86592E-004	4.96498E-004	-7.73101E-003	5.36318E-004
	128	128	4.99886E-002	-1.24613E-002	0.00000E+000	-6.22925E-004	-1.22791E-001	3.44162E-002	3.03883E+001	11	...........	5.74158E-002	-3.46139E-003	5.50209E-001	7.00601E-001	-3.07053E-002	-3.93937E-002	6.13221E-001	-4.26446E-002	-7.15478E-004	4.31335E-005	-6.85633E-003	-8.73042E-003	3.82629E-004	4.90898E-004	-7.64155E-003	5.31408E-004
	129	129	4.99867E-002	-1.23538E-002	0.00000E+000	-6.17528E-004	-1.21724E-001	3.42914E-002	3.03217E+001	11	...........	5.71926E-002	-3.40917E-003	5.50173E-001	7.00607E-001	-3.06837E-002	-3.93856E-002	6.13254E-001	-4.26960E-002	-7.06548E-004	4.21163E-005	-6.79675E-003	-8.65518E-003	3.79062E-004	4.86562E-004	-7.57604E-003	5.27459E-004
	130	130	4.99901E-002	-1.24154E-002	0.00000E+000	-6.20647E-004	-1.22337E-001	3.45772E-002	3.05183E+001	11	...........	5.76874E-002	-3.31625E-003	5.50131E-001	7.00652E-001	-3.06733E-002	-3.93979E-002	6.13253E-001	-4.27522E-002	-7.16212E-004	4.11726E-005	-6.83010E-003	-8.69888E-003	3.80822E-004	4.89141E-004	-7.61378E-003	5.30786E-004
	131	131	4.99909E-002	-1.21732E-002	0.00000E+000	-6.08550E-004	-1.19924E-001	3.43804E-002	3.05798E+001	11	...........	5.73778E-002	-3.42167E-003	5.50022E-001	7.00834E-001	-3.06754E-002	-3.93812E-002	6.13168E-001	-4.28928E-002	-6.98472E-004	4.16527E-005	-6.69553E-003	-8.53140E-003	3.73418E-004	4.79396E-004	-7.46422E-003	5.22143E-004
	132	132	4.99874E-002	-1.18850E-002	0.00000E+000	-5.94100E-004	-1.17058E-001	3.43123E-002	3.05933E+001	11	...........	5.72425E-002	-3.47569E-003	5.49936E-001	7.00763E-001	-3.06689E-002	-3.94112E-002	6.13255E-001	-4.29187E-002	-6.80327E-004	4.13086E-005	-6.53599E-003	-8.32857E-003	3.64500E-004	4.68403E-004	-7.28854E-003	5.10089E-004
	133	133	4.99825E-002	-1.19278E-002	0.00000E+000	-5.96182E-004	-1.17486E-001	3.44288E-002	3.01863E+001	11	...........	5.74235E-002	-3.45403E-003	5.49858E-001	7.00667E-001	-3.06314E-002	-3.94025E-002	6.13298E-001	-4.29085E-002	-6.84936E-004	4.11990E-005	-6.55860E-003	-8.35743E-003	3.65366E-004	4.69986E-004	-7.31530E-003	5.11804E-004
	134	134	4.99921E-002	-1.18579E-002	0.00000E+000	-5.92800E-004	-1.16787E-001	3.45571E-002	3.07573E+001	11	...........	5.76575E-002	-3.37667E-003	5.49883E-001	7.00859E-001	-3.06289E-002	-3.94237E-002	6.13229E-001	-4.29012E-002	-6.83695E-004	4.00401E-005	-6.52044E-003	-8.31070E-003	3.63194E-004	4.67482E-004	-7.27159E-003	5.08718E-004
	135	135	4.99843E-002	-1.14836E-002	0.00000E+000	-5.74001E-004	-1.13075E-001	3.43012E-002	3.00964E+001	11	...........	5.72064E-002	-3.43208E-003	5.49838E-001	7.01078E-001	-3.06206E-002	-3.94137E-002	6.13026E-001	-4.28761E-002	-6.56936E-004	3.94127E-005	-6.31413E-003	-8.05091E-003	3.51635E-004	4.52612E-004	-7.03976E-003	4.92373E-004
	136	136	4.99896E-002	-1.13831E-002	0.00000E+000	-5.69037E-004	-1.12071E-001	3.45190E-002	3.04208E+001	11	...........	5.75958E-002	-3.46931E-003	5.49819E-001	7.01275E-001	-3.06125E-002	-3.93997E-002	6.13176E-001	-4.28172E-002	-6.55620E-004	3.94915E-005	-6.25865E-003	-7.98269E-003	3.48465E-004	4.48491E-004	-6.97985E-003	4.87393E-004
	137	137	4.99882E-002	-1.14043E-002	0.00000E+000	-5.70082E-004	-1.12283E-001	3.44948E-002	3.07924E+001	11	...........	5.75499E-002	-3.37694E-003	5.49714E-001	7.01371E-001	-3.05947E-002	-3.93996E-002	6.13269E-001	-4.28774E-002	-6.56318E-004	3.85118E-005	-6.26913E-003	-7.99868E-003	3.48913E-004	4.49326E-004	-6.99393E-003	4.88988E-004
	138	138	4.99871E-002	-1.12314E-002	0.00000E+000	-5.61423E-004	-1.10560E-001	3.42657E-002	3.06216E+001	11	...........	5.71807E-002	-3.43264E-003	5.49692E-001	7.01227E-001	-3.05715E-002	-3.94071E-002	6.13134E-001	-4.28085E-002	-6.42217E-004	3.85532E-005	-6.17380E-003	-7.87574E-003	3.43360E-004	4.42595E-004	-6.88633E-003	4.80798E-004
	139	139	4.99859E-002	-1.12123E-002	0.00000E+000	-5.60458E-004	-1.10373E-001	3.46139E-002	3.07168E+001	11	...........	5.77314E-002	-3.41694E-003	5.49831E-001	7.01195E-001	-3.05564E-002	-3.94222E-002	6.13308E-001	-4.27765E-002	-6.47303E-004	3.83119E-005	-6.16488E-003	-7.86203E-003	3.42608E-004	4.42015E-004	-6.87660E-003	4.79624E-004
	140	140	4.99889E-002	-1.09811E-002	0.00000E+000	-5.48934E-004	-1.08070E-001	3.43507E-002	3.09534E+001	11	...........	5.73060E-002	-3.44167E-003	5.49950E-001	7.01028E-001	-3.05800E-002	-3.94392E-002	6.13401E-001	-4.26419E-002	-6.29284E-004	3.77934E-005	-6.03906E-003	-7.69808E-003	3.35803E-004	4.33086E-004	-6.73583E-003	4.68257E-004
	141	141	4.99886E-002	-1.07667E-002	0.00000E+000	-5.38210E-004	-1.05935E-001	3.45529E-002	3.02246E+001	11	...........	5.76354E-002	-3.38389E-003	5.50200E-001	7.01046E-001	-3.05829E-002	-3.94424E-002	6.13295E-001	-4.27515E-002	-6.20540E-004	3.64331E-005	-5.92381E-003	-7.54792E-003	3.29276E-004	4.24662E-004	-6.60313E-003	4.60291E-004
	142	142	4.99889E-002	-1.07214E-002	0.00000E+000	-5.35950E-004	-1.05484E-001	3.44048E-002	3.08445E+001	11	...........	5.73833E-002	-3.37708E-003	5.50263E-001	7.01015E-001	-3.05662E-002	-3.94271E-002	6.13161E-001	-4.26372E-002	-6.15228E-004	3.62070E-005	-5.89957E-003	-7.51584E-003	3.27712E-004	4.22712E-004	-6.57392E-003	4.57129E-004
	143	143	4.99840E-002	-1.06029E-002	0.00000E+000	-5.29977E-004	-1.04312E-001	3.45882E-002	3.01955E+001	11	...........	5.76839E-002	-3.39972E-003	5.50266E-001	7.01098E-001	-3.05822E-002	-3.93928E-002	6.13203E-001	-4.25868E-002	-6.11618E-004	3.60470E-005	-5.83442E-003	-7.43369E-003	3.24261E-004	4.17679E-004	-6.50174E-003	4.51545E-004
	144	144	4.99934E-002	-1.05176E-002	0.00000E+000	-5.25809E-004	-1.03470E-001	3.43872E-002	3.06501E+001	11	...........	5.73756E-002	-3.32667E-003	5.50123E-001	7.01381E-001	-3.05832E-002	-3.94199E-002	6.13281E-001	-4.26406E-002	-6.03452E-004	3.49885E-005	-5.78596E-003	-7.37682E-003	3.21661E-004	4.14601E-004	-6.45022E-003	4.48475E-004
	145	145	4.99855E-002	-1.04886E-002	0.00000E+000	-5.24277E-004	-1.03175E-001	3.46363E-002	3.11445E+001	11	...........	5.77871E-002	-3.28139E-003	5.50046E-001	7.01451E-001	-3.05865E-002	-3.94337E-002	6.13441E-001	-4.26521E-002	-6.06105E-004	3.44171E-005	-5.76921E-003	-7.35724E-003	3.20810E-004	4.13604E-004	-6.43413E-003	4.47360E-004
	146	146	4.99859E-002	-1.02764E-002	0.00000E+000	-5.13675E-004	-1.01107E-001	3.45122E-002	3.05093E+001	11	...........	5.75889E-002	-3.25333E-003	5.50025E-001	7.01367E-001	-3.05831E-002	-3.94225E-002	6.13451E-001	-4.27032E-002	-5.91806E-004	3.34325E-005	-5.65227E-003	-7.20752E-003	3.14284E-004	4.05121E-004	-6.30406E-003	4.38835E-004
	147	147	4.99915E-002	-1.01297E-002	0.00000E+000	-5.06396E-004	-9.96407E-002	3.45788E-002	3.04799E+001	11	...........	5.76890E-002	-3.14333E-003	5.49873E-001	7.01349E-001	-3.05632E-002	-3.94086E-002	6.13447E-001	-4.26419E-002	-5.84370E-004	3.18409E-005	-5.57002E-003	-7.10442E-003	3.09595E-004	3.99196E-004	-6.21401E-003	4.31948E-004
	148	148	4.99859E-002	-1.01139E-002	0.00000E+000	-5.05552E-004	-9.94810E-002	3.44412E-002	3.10699E+001	11	...........	5.74687E-002	-3.28653E-003	5.49804E-001	7.01503E-001	-3.05610E-002	-3.93985E-002	6.13446E-001	-4.25814E-002	-5.81233E-004	3.32396E-005	-5.56066E-003	-7.09492E-003	3.09090E-004	3.98472E-004	-6.20433E-003	4.30664E-004
	149	149	4.99917E-002	-9.98780E-003	0.00000E+000	-4.99307E-004	-9.82290E-002	3.45310E-002	3.05731E+001	11	...........	5.76185E-002	-3.34264E-003	5.49716E-001	7.01234E-001	-3.05912E-002	-3.94074E-002	6.13512E-001	-4.26737E-002	-5.75482E-004	3.33856E-005	-5.49045E-003	-7.00378E-003	3.05539E-004	3.93593E-004	-6.12763E-003	4.26217E-004
	150	150	4.99851E-002	-9.90351E-003	0.00000E+000	-4.95028E-004	-9.73893E-002	3.45689E-002	3.03728E+001	11	...........	5.76676E-002	-3.36333E-003	5.49617E-001	7.01120E-001	-3.05953E-002	-3.94111E-002	6.13579E-001	-4.26444E-002	-5.71112E-004	3.33088E-005	-5.44313E-003	-6.94355E-003	3.03001E-004	3.90308E-004	-6.07659E-003	4.22330E-004
	151	151	4.99899E-002	-9.72428E-003	0.00000E+000	-4.86116E-004	-9.56020E-002	3.44103E-002	2.99778E+001	11	...........	5.74182E-002	-3.36347E-003	5.49528E-001	7.01153E-001	-3.05676E-002	-3.93919E-002	6.13585E-001	-4.26679E-002	-5.58351E-004	3.27074E-005	-5.34376E-003	-6.81821E-003	2.97248E-004	3.83058E-004	-5.96667E-003	4.14915E-004
	152	152	4.99865E-002	-9.67123E-003	0.00000E+000	-4.83431E-004	-9.50783E-002	3.45623E-002	3.07712E+001	11	...........	5.76514E-002	-3.44958E-003	5.49478E-001	7.01021E-001	-3.05586E-002	-3.93572E-002	6.13494E-001	-4.27039E-002	-5.57560E-004	3.33617E-005	-5.31413E-003	-6.77974E-003	2.95539E-004	3.80633E-004	-5.93324E-003	4.12999E-004
	153	153	4.99880E-002	-9.58747E-003	0.00000E+000	-4.79258E-004	-9.42417E-002	3.46112E-002	3.04207E+001	11	...........	5.77381E-002	-3.54222E-003	5.49396E-001	7.01086E-001	-3.05654E-002	-3.93603E-002	6.13287E-001	-4.27878E-002	-5.53562E-004	3.39609E-005	-5.26731E-003	-6.72164E-003	2.93045E-004	3.77365E-004	-5.87987E-003	4.10226E-004
	154	154	4.99912E-002	-9.50527E-003	0.00000E+000	-4.75180E-004	-9.34250E-002	3.45892E-002	3.07273E+001	11	...........	5.77117E-002	-3.44694E-003	5.49379E-001	7.00999E-001	-3.05632E-002	-3.93679E-002	6.13394E-001	-4.26919E-002	-5.48565E-004	3.27641E-005	-5.22199E-003	-6.66319E-003	2.90511E-004	3.74203E-004	-5.83047E-003	4.05798E-004
	155	155	4.99878E-002	-9.37325E-003	0.00000E+000	-4.68548E-004	-9.21070E-002	3.45643E-002	3.09203E+001	11	...........	5.76647E-002	-3.37764E-003	5.49485E-001	7.00861E-001	-3.05904E-002	-3.93362E-002	6.13387E-001	-4.26906E-002	-5.40506E-004	3.16595E-005	-5.15046E-003	-6.56934E-003	2.86732E-004	3.68709E-004	-5.74943E-003	4.00149E-004
	156	156	4.99846E-002	-9.30329E-003	0.00000E+000	-4.65021E-004	-9.14107E-002	3.45019E-002	3.04881E+001	11	...........	5.75451E-002	-3.49556E-003	5.49661E-001	7.00902E-001	-3.06000E-002	-3.93521E-002	6.13386E-001	-4.27447E-002	-5.35359E-004	3.25202E-005	-5.11365E-003	-6.52069E-003	2.84681E-004	3.66104E-004	-5.70650E-003	3.97666E-004
	157	157	4.99885E-002	-9.17979E-003	0.00000E+000	-4.58884E-004	-9.01770E-002	3.45935E-002	3.05739E+001	11	...........	5.77235E-002	-3.50153E-003	5.49740E-001	7.00813E-001	-3.06132E-002	-3.93478E-002	6.13507E-001	-4.27561E-002	-5.29889E-004	3.21433E-005	-5.04650E-003	-6.43331E-003	2.81023E-004	3.61204E-004	-5.63186E-003	3.92492E-004
	158	158	4.99901E-002	-9.12160E-003	0.00000E+000	-4.55990E-004	-8.95980E-002	3.45368E-002	3.07681E+001	11	...........	5.76936E-002	-3.35681E-003	5.49874E-001	7.00957E-001	-3.06310E-002	-3.93326E-002	6.13522E-001	-4.28111E-002	-5.26258E-004	3.06194E-005	-5.01573E-003	-6.39385E-003	2.79403E-004	3.58776E-004	-5.59630E-003	3.90506E-004
	159	159	4.99877E-002	-9.05582E-003	0.00000E+000	-4.52680E-004	-8.89477E-002	3.45822E-002	3.11033E+001	11	...........	5.77101E-002	-3.31819E-003	5.49941E-001	7.01084E-001	-3.06006E-002	-3.93514E-002	6.13474E-001	-4.27819E-002	-5.22613E-004	3.00490E-005	-4.98017E-003	-6.34889E-003	2.77113E-004	3.56359E-004	-5.55551E-003	3.87426E-004
	160	160	4.99863E-002	-8.72283E-003	0.00000E+000	-4.36022E-004	-8.56447E-002	3.45383E-002	3.05382E+001	11	...........	5.76147E-002	-3.27444E-003	5.49992E-001	7.01207E-001	-3.05781E-002	-3.93601E-002	6.13342E-001	-4.27731E-002	-5.02563E-004	2.85624E-005	-4.79749E-003	-6.11651E-003	2.66727E-004	3.43332E-004	-5.35008E-003	3.73102E-004
	161	161	4.99904E-002	-8.63718E-003	0.00000E+000	-4.31776E-004	-8.47893E-002	3.44841E-002	3.02762E+001	11	...........	5.75546E-002	-3.25083E-003	5.49856E-001	7.00939E-001	-3.05821E-002	-3.93435E-002	6.13209E-001	-4.28074E-002	-4.97109E-004	2.80780E-005	-4.74920E-003	-6.05413E-003	2.64143E-004	3.39817E-004	-5.29640E-003	3.69735E-004
	162	162	4.99902E-002	-8.83864E-003	0.00000E+000	-4.41845E-004	-8.67960E-002	3.46832E-002	3.12287E+001	11	...........	5.78601E-002	-3.25569E-003	5.49787E-001	7.00750E-001	-3.05904E-002	-3.93522E-002	6.13177E-001	-4.27015E-002	-5.11405E-004	2.87759E-005	-4.85937E-003	-6.19368E-003	2.70378E-004	3.47820E-004	-5.41965E-003	3.77424E-004
	163	163	4.99858E-002	-8.64966E-003	0.00000E+000	-4.32360E-004	-8.49117E-002	3.46292E-002	3.09046E+001	11	...........	5.77737E-002	-3.32903E-003	5.49663E-001	7.00802E-001	-3.06078E-002	-3.93606E-002	6.13195E-001	-4.27015E-002	-4.99723E-004	2.87949E-005	-4.75440E-003	-6.06170E-003	2.64747E-004	3.40455E-004	-5.30393E-003	3.69354E-004
	164	164	4.99861E-002	-8.53804E-003	0.00000E+000	-4.26783E-004	-8.38023E-002	3.46827E-002	3.08398E+001	11	...........	5.78696E-002	-3.30889E-003	5.49513E-001	7.00948E-001	-3.06093E-002	-3.93462E-002	6.13257E-001	-4.28296E-002	-4.94093E-004	2.82514E-005	-4.69176E-003	-5.98472E-003	2.61343E-004	3.35940E-004	-5.23601E-003	3.65681E-004
	165	165	4.99871E-002	-8.22367E-003	0.00000E+000	-4.11078E-004	-8.06750E-002	3.45473E-002	3.01849E+001	11	...........	5.76351E-002	-3.29639E-003	5.49650E-001	7.01191E-001	-3.05754E-002	-3.93540E-002	6.13263E-001	-4.26962E-002	-4.73972E-004	2.71084E-005	-4.52014E-003	-5.76636E-003	2.51442E-004	3.23634E-004	-5.04327E-003	3.51120E-004
	166	166	4.99917E-002	-8.28534E-003	0.00000E+000	-4.14198E-004	-8.12887E-002	3.45283E-002	3.05999E+001	11	...........	5.75893E-002	-3.37917E-003	5.49780E-001	7.01212E-001	-3.06221E-002	-3.93597E-002	6.13534E-001	-4.27432E-002	-4.77147E-004	2.79975E-005	-4.55511E-003	-5.80978E-003	2.53714E-004	3.26109E-004	-5.08333E-003	3.54142E-004
	167	167	4.99860E-002	-8.27792E-003	0.00000E+000	-4.13780E-004	-8.12110E-002	3.47510E-002	3.11526E+001	11	...........	5.79817E-002	-3.31361E-003	5.49962E-001	7.01445E-001	-3.06421E-002	-3.93571E-002	6.13528E-001	-4.26217E-002	-4.79968E-004	2.74298E-005	-4.55254E-003	-5.80651E-003	2.53653E-004	3.25795E-004	-5.07873E-003	3.52819E-004
	168	168	4.99892E-002	-8.14920E-003	0.00000E+000	-4.07372E-004	-7.99323E-002	3.46799E-002	3.05677E+001	11	...........	5.78515E-002	-3.30403E-003	5.50091E-001	7.01368E-001	-3.06276E-002	-3.93503E-002	6.13384E-001	-4.26350E-002	-4.71444E-004	2.69252E-005	-4.48281E-003	-5.71559E-003	2.49591E-004	3.20673E-004	-4.99859E-003	3.47441E-004
	169	169	4.99913E-002	-8.13030E-003	0.00000E+000	-4.06445E-004	-7.97437E-002	3.47218E-002	3.09246E+001	11	...........	5.79217E-002	-3.33333E-003	5.50011E-001	7.01433E-001	-3.06376E-002	-3.93400E-002	6.13487E-001	-4.27233E-002	-4.70921E-004	2.71010E-005	-4.47176E-003	-5.70286E-003	2.49093E-004	3.19846E-004	-4.98784E-003	3.47354E-004
	170	170	4.99867E-002	-8.05254E-003	0.00000E+000	-4.02520E-004	-7.89713E-002	3.45506E-002	3.07055E+001	11	...........	5.76717E-002	-3.35778E-003	5.50048E-001	7.01209E-001	-3.06387E-002	-3.93589E-002	6.13395E-001	-4.27271E-002	-4.64403E-004	2.70386E-005	-4.42929E-003	-5.64652E-003	2.46720E-004	3.16939E-004	-4.93939E-003	3.44062E-004
	171	171	4.99881E-002	-7.92277E-003	0.00000E+000	-3.96045E-004	-7.76867E-002	3.46440E-002	3.07864E+001	11	...........	5.78006E-002	-3.27264E-003	5.49975E-001	7.01103E-001	-3.06304E-002	-3.93312E-002	6.13350E-001	-4.28129E-002	-4.57941E-004	2.59284E-005	-4.35733E-003	-5.55468E-003	2.42678E-004	3.11613E-004	-4.85943E-003	3.39197E-004
	172	172	4.99891E-002	-7.95412E-003	0.00000E+000	-3.97619E-004	-7.79947E-002	3.47364E-002	3.11788E+001	11	...........	5.79481E-002	-3.31208E-003	5.49836E-001	7.01028E-001	-3.06256E-002	-3.93367E-002	6.13276E-001	-4.27982E-002	-4.60926E-004	2.63447E-005	-4.37346E-003	-5.57606E-003	2.43599E-004	3.12888E-004	-4.87807E-003	3.40422E-004
	173	173	4.99892E-002	-7.89081E-003	0.00000E+000	-3.94455E-004	-7.73693E-002	3.46644E-002	3.07246E+001	11	...........	5.78228E-002	-3.31097E-003	5.49647E-001	7.00995E-001	-3.06221E-002	-3.93468E-002	6.13180E-001	-4.28103E-002	-4.56269E-004	2.61263E-005	-4.33716E-003	-5.53142E-003	2.41633E-004	3.10478E-004	-4.83849E-003	3.37808E-004
	174	174	4.99888E-002	-7.78364E-003	0.00000E+000	-3.89095E-004	-7.63133E-002	3.46024E-002	3.09678E+001	11	...........	5.77147E-002	-3.32139E-003	5.49573E-001	7.00934E-001	-3.06353E-002	-3.93119E-002	6.13054E-001	-4.29147E-002	-4.49231E-004	2.58525E-005	-4.27768E-003	-5.45582E-003	2.38454E-004	3.05990E-004	-4.77179E-003	3.34033E-004
	175	175	4.99871E-002	-7.66145E-003	0.00000E+000	-3.82974E-004	-7.50970E-002	3.46237E-002	3.09481E+001	11	...........	5.77542E-002	-3.32861E-003	5.49685E-001	7.00930E-001	-3.06235E-002	-3.93276E-002	6.13074E-001	-4.28636E-002	-4.42481E-004	2.55020E-005	-4.21139E-003	-5.37014E-003	2.34620E-004	3.01307E-004	-4.69704E-003	3.28398E-004
	176	176	4.99871E-002	-7.68669E-003	0.00000E+000	-3.84236E-004	-7.53517E-002	3.47874E-002	3.09715E+001	11	...........	5.80362E-002	-3.28375E-003	5.49858E-001	7.00932E-001	-3.06144E-002	-3.93150E-002	6.13231E-001	-4.27679E-002	-4.46107E-004	2.52412E-005	-4.22659E-003	-5.38785E-003	2.35324E-004	3.02202E-004	-4.71372E-003	3.28744E-004
	177	177	4.99895E-002	-7.46040E-003	0.00000E+000	-3.72942E-004	-7.30937E-002	3.46547E-002	3.06932E+001	11	...........	5.78235E-002	-3.21736E-003	5.49880E-001	7.01017E-001	-3.06126E-002	-3.93061E-002	6.13159E-001	-4.27064E-002	-4.31386E-004	2.40028E-005	-4.10232E-003	-5.22986E-003	2.28382E-004	2.93239E-004	-4.57441E-003	3.18607E-004
	178	178	4.99885E-002	-7.48791E-003	0.00000E+000	-3.74309E-004	-7.33650E-002	3.46487E-002	3.11562E+001	11	...........	5.77950E-002	-3.29056E-003	5.49884E-001	7.01015E-001	-3.06215E-002	-3.93186E-002	6.13212E-001	-4.27036E-002	-4.32764E-004	2.46394E-005	-4.11748E-003	-5.24914E-003	2.29291E-004	2.94414E-004	-4.59167E-003	3.19761E-004
	179	179	4.99856E-002	-7.33271E-003	0.00000E+000	-3.66530E-004	-7.18210E-002	3.47241E-002	3.06431E+001	11	...........	5.79197E-002	-3.36708E-003	5.49666E-001	7.01106E-001	-3.06181E-002	-3.93232E-002	6.13118E-001	-4.27922E-002	-4.24709E-004	2.46899E-005	-4.03054E-003	-5.14101E-003	2.24513E-004	2.88346E-004	-4.49582E-003	3.13783E-004
	180	180	4.99907E-002	-7.27833E-003	0.00000E+000	-3.63849E-004	-7.12803E-002	3.47539E-002	3.01963E+001	11	...........	5.79672E-002	-3.38292E-003	5.49474E-001	7.01135E-001	-3.06232E-002	-3.93264E-002	6.13263E-001	-4.26994E-002	-4.21905E-004	2.46220E-005	-3.99925E-003	-5.10309E-003	2.22886E-004	2.86230E-004	-4.46353E-003	3.10781E-004
	181	181	4.99881E-002	-7.29292E-003	0.00000E+000	-3.64560E-004	-7.14257E-002	3.46854E-002	3.07572E+001	11	...........	5.78687E-002	-3.34764E-003	5.49345E-001	7.01287E-001	-3.06178E-002	-3.93811E-002	6.13203E-001	-4.27526E-002	-4.22032E-004	2.44141E-005	-4.00633E-003	-5.11444E-003	2.23293E-004	2.87203E-004	-4.47204E-003	3.11792E-004
	182	182	4.99887E-002	-7.22556E-003	0.00000E+000	-3.61197E-004	-7.07523E-002	3.46930E-002	3.09472E+001	11	...........	5.78807E-002	-3.37111E-003	5.49518E-001	7.01455E-001	-3.06281E-002	-3.93860E-002	6.13162E-001	-4.26790E-002	-4.18221E-004	2.43582E-005	-3.97058E-003	-5.06841E-003	2.21305E-004	2.84586E-004	-4.43044E-003	3.08380E-004
	183	183	4.99893E-002	-7.12557E-003	0.00000E+000	-3.56202E-004	-6.97530E-002	3.47528E-002	3.06651E+001	11	...........	5.80025E-002	-3.34278E-003	5.49660E-001	7.01672E-001	-3.06221E-002	-3.93883E-002	6.13281E-001	-4.26640E-002	-4.13301E-004	2.38192E-005	-3.91664E-003	-4.99981E-003	2.18200E-004	2.80664E-004	-4.36997E-003	3.04005E-004
	184	184	4.99893E-002	-7.07352E-003	0.00000E+000	-3.53600E-004	-6.92380E-002	3.47793E-002	3.12458E+001	11	...........	5.80315E-002	-3.37736E-003	5.49535E-001	7.01841E-001	-3.06581E-002	-3.93817E-002	6.13315E-001	-4.27033E-002	-4.10487E-004	2.38898E-005	-3.88715E-003	-4.96448E-003	2.16860E-004	2.78567E-004	-4.33829E-003	3.02063E-004
	185	185	4.99888E-002	-6.97230E-003	0.00000E+000	-3.48537E-004	-6.82290E-002	3.45818E-002	3.09194E+001	11	...........	5.76997E-002	-3.36236E-003	5.49488E-001	7.01582E-001	-3.06597E-002	-3.93483E-002	6.13322E-001	-4.25483E-002	-4.02300E-004	2.34434E-005	-3.83119E-003	-4.89164E-003	2.13769E-004	2.74348E-004	-4.27626E-003	2.96660E-004
	186	186	4.99878E-002	-6.96237E-003	0.00000E+000	-3.48034E-004	-6.81350E-002	3.47703E-002	3.10500E+001	11	...........	5.80312E-002	-3.33306E-003	5.49425E-001	7.01605E-001	-3.06728E-002	-3.93208E-002	6.13441E-001	-4.26122E-002	-4.04035E-004	2.32060E-005	-3.82530E-003	-4.88484E-003	2.13555E-004	2.73766E-004	-4.27100E-003	2.96682E-004
	187	187	4.99890E-002	-6.93034E-003	0.00000E+000	-3.46441E-004	-6.78100E-002	3.47774E-002	3.06828E+001	11	...........	5.80187E-002	-3.35944E-003	5.49281E-001	7.01497E-001	-3.06881E-002	-3.93099E-002	6.13320E-001	-4.26217E-002	-4.02090E-004	2.32821E-005	-3.80671E-003	-4.86161E-003	2.12679E-004	2.72431E-004	-4.25052E-003	2.95383E-004
	188	188	4.99898E-002	-6.86830E-003	0.00000E+000	-3.43345E-004	-6.71930E-002	3.46265E-002	3.11109E+001	11	...........	5.77610E-002	-3.32653E-003	5.49260E-001	7.01445E-001	-3.06751E-002	-3.93017E-002	6.13237E-001	-4.27351E-002	-3.96719E-004	2.28476E-005	-3.77248E-003	-4.81773E-003	2.10686E-004	2.69935E-004	-4.21189E-003	2.93518E-004
	189	189	4.99877E-002	-6.72002E-003	0.00000E+000	-3.35918E-004	-6.57183E-002	3.47797E-002	3.06621E+001	11	...........	5.80356E-002	-3.31222E-003	5.49298E-001	7.01494E-001	-3.06507E-002	-3.93626E-002	6.13230E-001	-4.26933E-002	-3.90000E-004	2.22582E-005	-3.69129E-003	-4.71405E-003	2.05973E-004	2.64518E-004	-4.12091E-003	2.86900E-004
	190	190	4.99863E-002	-6.74705E-003	0.00000E+000	-3.37260E-004	-6.59860E-002	3.47405E-002	3.11901E+001	11	...........	5.79543E-002	-3.35750E-003	5.49174E-001	7.01545E-001	-3.06462E-002	-3.93540E-002	6.13162E-001	-4.26539E-002	-3.91021E-004	2.26532E-005	-3.70531E-003	-4.73336E-003	2.06772E-004	2.65524E-004	-4.13703E-003	2.87788E-004
	191	191	4.99909E-002	-6.68692E-003	0.00000E+000	-3.34285E-004	-6.53873E-002	3.48101E-002	3.13611E+001	11	...........	5.81061E-002	-3.47639E-003	5.49183E-001	7.01640E-001	-3.06464E-002	-3.93386E-002	6.13170E-001	-4.26288E-002	-3.88551E-004	2.32463E-005	-3.67234E-003	-4.69181E-003	2.04930E-004	2.63054E-004	-4.10022E-003	2.85055E-004
	192	192	4.99879E-002	-6.52528E-003	0.00000E+000	-3.26185E-004	-6.37803E-002	3.45897E-002	3.09238E+001	11	...........	5.77201E-002	-3.39347E-003	5.49250E-001	7.01817E-001	-3.06472E-002	-3.93518E-002	6.13240E-001	-4.25925E-002	-3.76640E-004	2.21434E-005	-3.58401E-003	-4.57955E-003	1.99982E-004	2.56782E-004	-4.00157E-003	2.77928E-004
	193	193	4.99880E-002	-6.44478E-003	0.00000E+000	-3.22162E-004	-6.29833E-002	3.48072E-002	3.00007E+001	11	...........	5.80735E-002	-3.42042E-003	5.49352E-001	7.01725E-001	-3.06586E-002	-3.93499E-002	6.13227E-001	-4.27114E-002	-3.74271E-004	2.20438E-005	-3.54046E-003	-4.52246E-003	1.97588E-004	2.53601E-004	-3.95212E-003	2.75266E-004
	194	194	4.99911E-002	-6.47145E-003	0.00000E+000	-3.23515E-004	-6.32453E-002	3.47128E-002	3.10072E+001	11	...........	5.79162E-002	-3.37264E-003	5.49388E-001	7.01680E-001	-3.06690E-002	-3.93550E-002	6.13163E-001	-4.27487E-002	-3.74802E-004	2.18259E-005	-3.55534E-003	-4.54089E-003	1.98473E-004	2.54684E-004	-3.96805E-003	2.76646E-004
	195	195	4.99859E-002	-6.32437E-003	0.00000E+000	-3.16129E-004	-6.17837E-002	3.47928E-002	3.07814E+001	11	...........	5.80347E-002	-3.42306E-003	5.49327E-001	7.01587E-001	-3.06511E-002	-3.93557E-002	6.13127E-001	-4.27600E-002	-3.67033E-004	2.16487E-005	-3.47414E-003	-4.43709E-003	1.93849E-004	2.48900E-004	-3.87764E-003	2.70430E-004
	196	196	4.99895E-002	-6.31571E-003	0.00000E+000	-3.15719E-004	-6.17027E-002	3.48109E-002	3.09655E+001	11	...........	5.80507E-002	-3.45181E-003	5.49183E-001	7.01565E-001	-3.06449E-002	-3.93983E-002	6.13005E-001	-4.29162E-002	-3.66632E-004	2.18006E-005	-3.46848E-003	-4.43088E-003	1.93544E-004	2.48829E-004	-3.87156E-003	2.71047E-004
	197	197	4.99875E-002	-6.33966E-003	0.00000E+000	-3.16904E-004	-6.19413E-002	3.47758E-002	3.14646E+001	11	...........	5.80372E-002	-3.40972E-003	5.49072E-001	7.01500E-001	-3.06349E-002	-3.93785E-002	6.13034E-001	-4.28976E-002	-3.67937E-004	2.16165E-005	-3.48094E-003	-4.44727E-003	1.94215E-004	2.49646E-004	-3.88643E-003	2.71957E-004
	198	198	4.99896E-002	-6.18124E-003	0.00000E+000	-3.08998E-004	-6.03627E-002	3.47674E-002	3.05695E+001	11	...........	5.79957E-002	-3.39111E-003	5.49039E-001	7.01503E-001	-3.06082E-002	-3.94042E-002	6.13053E-001	-4.27647E-002	-3.58485E-004	2.09613E-005	-3.39374E-003	-4.33616E-003	1.89197E-004	2.43567E-004	-3.78943E-003	2.64339E-004
	199	199	4.99912E-002	-6.16356E-003	0.00000E+000	-3.08124E-004	-6.01870E-002	3.48612E-002	3.11878E+001	11	...........	5.81715E-002	-3.33986E-003	5.48924E-001	7.01484E-001	-3.06103E-002	-3.94014E-002	6.13097E-001	-4.27092E-002	-3.58544E-004	2.05854E-005	-3.38333E-003	-4.32364E-003	1.88668E-004	2.42853E-004	-3.77886E-003	2.63241E-004
	200	200	4.99877E-002	-6.17610E-003	0.00000E+000	-3.08729E-004	-6.03133E-002	3.47829E-002	3.10134E+001	11	...........	5.80286E-002	-3.32931E-003	5.48947E-001	7.01210E-001	-3.05757E-002	-3.94203E-002	6.13231E-001	-4.26694E-002	-3.58391E-004	2.05621E-005	-3.39035E-003	-4.33074E-003	1.88839E-004	2.43464E-004	-3.78738E-003	2.63531E-004
	201	201	4.99881E-002	-6.07507E-003	0.00000E+000	-3.03682E-004	-5.93060E-002	3.47281E-002	3.10823E+001	11	...........	5.79347E-002	-3.32792E-003	5.48906E-001	7.01225E-001	-3.05893E-002	-3.94319E-002	6.13236E-001	-4.26918E-002	-3.51958E-004	2.02173E-005	-3.33464E-003	-4.25999E-003	1.85832E-004	2.39552E-004	-3.72545E-003	2.59356E-004
	202	202	4.99881E-002	-6.05768E-003	0.00000E+000	-3.02812E-004	-5.91320E-002	3.48095E-002	3.11027E+001	11	...........	5.80662E-002	-3.32708E-003	5.48961E-001	7.01344E-001	-3.06008E-002	-3.94137E-002	6.13204E-001	-4.28297E-002	-3.51747E-004	2.01544E-005	-3.32543E-003	-4.24852E-003	1.85370E-004	2.38756E-004	-3.71459E-003	2.59449E-004
	203	203	4.99879E-002	-5.95144E-003	0.00000E+000	-2.97500E-004	-5.80733E-002	3.47378E-002	3.03322E+001	11	...........	5.79635E-002	-3.29944E-003	5.48793E-001	7.01539E-001	-3.05775E-002	-3.94385E-002	6.13319E-001	-4.28279E-002	-3.44966E-004	1.96364E-005	-3.26611E-003	-4.17517E-003	1.81980E-004	2.34716E-004	-3.65013E-003	2.54888E-004
	204	204	4.99908E-002	-5.97129E-003	0.00000E+000	-2.98510E-004	-5.82710E-002	3.49284E-002	3.16740E+001	11	...........	5.82510E-002	-3.25153E-003	5.48821E-001	7.01581E-001	-3.05736E-002	-3.94287E-002	6.13193E-001	-4.25886E-002	-3.47833E-004	1.94158E-005	-3.27717E-003	-4.18934E-003	1.82564E-004	2.35440E-004	-3.66155E-003	2.54309E-004
	205	205	4.99884E-002	-5.90590E-003	0.00000E+000	-2.95226E-004	-5.76163E-002	3.47518E-002	3.12872E+001	11	...........	5.79950E-002	-3.37014E-003	5.48867E-001	7.01565E-001	-3.05367E-002	-3.94244E-002	6.13203E-001	-4.24942E-002	-3.42512E-004	1.99037E-005	-3.24155E-003	-4.14337E-003	1.80346E-004	2.32837E-004	-3.62151E-003	2.50966E-004
	206	206	4.99872E-002	-5.85742E-003	0.00000E+000	-2.92796E-004	-5.71337E-002	3.48621E-002	3.08790E+001	11	...........	5.81817E-002	-3.36097E-003	5.48832E-001	7.01477E-001	-3.05497E-002	-3.94331E-002	6.13184E-001	-4.25078E-002	-3.40794E-004	1.96866E-005	-3.21474E-003	-4.10884E-003	1.78942E-004	2.30976E-004	-3.59167E-003	2.48986E-004
	207	207	4.99892E-002	-5.75482E-003	0.00000E+000	-2.87679E-004	-5.61177E-002	3.47781E-002	3.08676E+001	11	...........	5.80226E-002	-3.34653E-003	5.48782E-001	7.01249E-001	-3.05558E-002	-3.94208E-002	6.13191E-001	-4.25617E-002	-3.33910E-004	1.92587E-005	-3.15814E-003	-4.03557E-003	1.75843E-004	2.26860E-004	-3.52881E-003	2.44935E-004
	208	208	4.99896E-002	-5.77295E-003	0.00000E+000	-2.88588E-004	-5.62977E-002	3.48250E-002	3.14651E+001	11	...........	5.81204E-002	-3.36486E-003	5.48794E-001	7.01342E-001	-3.05449E-002	-3.94356E-002	6.13119E-001	-4.26497E-002	-3.35526E-004	1.94252E-005	-3.16816E-003	-4.04881E-003	1.76334E-004	2.27659E-004	-3.53951E-003	2.46215E-004
	209	209	4.99891E-002	-5.77067E-003	0.00000E+000	-2.88471E-004	-5.62743E-002	3.49179E-002	3.15130E+001	11	...........	5.82571E-002	-3.42153E-003	5.48946E-001	7.01302E-001	-3.05374E-002	-3.94175E-002	6.13037E-001	-4.27554E-002	-3.36182E-004	1.97445E-005	-3.16778E-003	-4.04698E-003	1.76221E-004	2.27465E-004	-3.53763E-003	2.46727E-004
	210	210	4.99871E-002	-5.65141E-003	0.00000E+000	-2.82498E-004	-5.50920E-002	3.47261E-002	3.09908E+001	11	...........	5.79376E-002	-3.32889E-003	5.48949E-001	7.01496E-001	-3.05808E-002	-3.94181E-002	6.12990E-001	-4.28393E-002	-3.27430E-004	1.88129E-005	-3.10234E-003	-3.96444E-003	1.72825E-004	2.22768E-004	-3.46426E-003	2.42103E-004
	211	211	4.99899E-002	-5.60557E-003	0.00000E+000	-2.80222E-004	-5.46350E-002	3.48423E-002	3.10866E+001	11	...........	5.81410E-002	-3.38069E-003	5.48876E-001	7.01342E-001	-3.05644E-002	-3.94062E-002	6.13038E-001	-4.27644E-002	-3.25913E-004	1.89507E-005	-3.07676E-003	-3.93142E-003	1.71331E-004	2.20895E-004	-3.43643E-003	2.39719E-004
	212	212	4.99887E-002	-5.61376E-003	0.00000E+000	-2.80625E-004	-5.47133E-002	3.49547E-002	3.13776E+001	11	...........	5.83290E-002	-3.29778E-003	5.48944E-001	7.01295E-001	-3.05578E-002	-3.94099E-002	6.13147E-001	-4.26707E-002	-3.27445E-004	1.85129E-005	-3.08164E-003	-3.93690E-003	1.71544E-004	2.21237E-004	-3.44206E-003	2.39543E-004
	213	213	4.99889E-002	-5.56215E-003	0.00000E+000	-2.78046E-004	-5.41990E-002	3.46752E-002	3.10906E+001	11	...........	5.78354E-002	-3.29444E-003	5.48869E-001	7.01590E-001	-3.05492E-002	-3.94112E-002	6.13158E-001	-4.27037E-002	-3.21689E-004	1.83242E-005	-3.05289E-003	-3.90235E-003	1.69919E-004	2.19211E-004	-3.41048E-003	2.37525E-004
	214	214	4.99877E-002	-5.51479E-003	0.00000E+000	-2.75672E-004	-5.37290E-002	3.49219E-002	3.11321E+001	11	...........	5.82710E-002	-3.34389E-003	5.48762E-001	7.01614E-001	-3.05392E-002	-3.94106E-002	6.13126E-001	-4.28279E-002	-3.21352E-004	1.84409E-005	-3.02631E-003	-3.86926E-003	1.68417E-004	2.17341E-004	-3.38126E-003	2.36187E-004
	215	215	4.99900E-002	-5.48402E-003	0.00000E+000	-2.74146E-004	-5.34217E-002	3.49506E-002	3.13358E+001	11	...........	5.83018E-002	-3.33167E-003	5.48690E-001	7.01613E-001	-3.05274E-002	-3.94075E-002	6.13127E-001	-4.27933E-002	-3.19728E-004	1.82709E-005	-3.00903E-003	-3.84766E-003	1.67413E-004	2.16112E-004	-3.36240E-003	2.34680E-004
	216	216	4.99910E-002	-5.43804E-003	0.00000E+000	-2.71853E-004	-5.29640E-002	3.47898E-002	3.12199E+001	11	...........	5.80349E-002	-3.31167E-003	5.48613E-001	7.01667E-001	-3.05231E-002	-3.94136E-002	6.12987E-001	-4.26951E-002	-3.15596E-004	1.80090E-005	-2.98338E-003	-3.81569E-003	1.65986E-004	2.14333E-004	-3.33345E-003	2.32178E-004
	217	217	4.99872E-002	-5.37433E-003	0.00000E+000	-2.68648E-004	-5.23327E-002	3.48066E-002	3.11178E+001	11	...........	5.80758E-002	-3.32083E-003	5.48690E-001	7.01609E-001	-3.05631E-002	-3.94232E-002	6.12989E-001	-4.26682E-002	-3.12119E-004	1.78473E-005	-2.94884E-003	-3.77068E-003	1.64256E-004	2.11873E-004	-3.29441E-003	2.29313E-004
	218	218	4.99887E-002	-5.36118E-003	0.00000E+000	-2.67998E-004	-5.22010E-002	3.48513E-002	3.12872E+001	11	...........	5.81403E-002	-3.32431E-003	5.48775E-001	7.01735E-001	-3.05475E-002	-3.94414E-002	6.13076E-001	-4.25878E-002	-3.11700E-004	1.78222E-005	-2.94208E-003	-3.76212E-003	1.63770E-004	2.11452E-004	-3.28681E-003	2.28321E-004
	219	219	4.99889E-002	-5.31224E-003	0.00000E+000	-2.65553E-004	-5.17173E-002	3.49224E-002	3.10165E+001	11	...........	5.82649E-002	-3.29833E-003	5.48946E-001	7.01761E-001	-3.05147E-002	-3.94300E-002	6.12963E-001	-4.26583E-002	-3.09517E-004	1.75215E-005	-2.91613E-003	-3.72793E-003	1.62102E-004	2.09462E-004	-3.25621E-003	2.26611E-004
	220	220	4.99887E-002	-5.25283E-003	0.00000E+000	-2.62582E-004	-5.11360E-002	3.47885E-002	3.11163E+001	11	...........	5.80260E-002	-3.23361E-003	5.48967E-001	7.01743E-001	-3.05353E-002	-3.94135E-002	6.12994E-001	-4.26464E-002	-3.04800E-004	1.69856E-005	-2.88363E-003	-3.68613E-003	1.60397E-004	2.07032E-004	-3.21995E-003	2.24014E-004
	221	221	4.99902E-002	-5.25906E-003	0.00000E+000	-2.62902E-004	-5.11903E-002	3.49493E-002	3.17831E+001	11	...........	5.83087E-002	-3.26861E-003	5.48984E-001	7.01685E-001	-3.05176E-002	-3.93900E-002	6.12971E-001	-4.25614E-002	-3.06649E-004	1.71898E-005	-2.88714E-003	-3.69021E-003	1.60494E-004	2.07155E-004	-3.22366E-003	2.23833E-004
	222	222	4.99881E-002	-5.19281E-003	0.00000E+000	-2.59579E-004	-5.05413E-002	3.48325E-002	3.13962E+001	11	...........	5.81103E-002	-3.40153E-003	5.48926E-001	7.01674E-001	-3.05537E-002	-3.93774E-002	6.13054E-001	-4.26439E-002	-3.01756E-004	1.76635E-005	-2.85047E-003	-3.64366E-003	1.58660E-004	2.04479E-004	-3.18347E-003	2.21442E-004
	223	223	4.99898E-002	-5.18502E-003	0.00000E+000	-2.59198E-004	-5.04680E-002	3.48647E-002	3.12529E+001	11	...........	5.82049E-002	-3.39194E-003	5.48751E-001	7.01778E-001	-3.05483E-002	-3.93692E-002	6.12929E-001	-4.25900E-002	-3.01793E-004	1.75873E-005	-2.84528E-003	-3.63873E-003	1.58394E-004	2.04130E-004	-3.17804E-003	2.20830E-004
	224	224	4.99875E-002	-5.13243E-003	0.00000E+000	-2.56557E-004	-4.99450E-002	3.47668E-002	3.10462E+001	11	...........	5.80050E-002	-3.36958E-003	5.48809E-001	7.01864E-001	-3.05435E-002	-3.93349E-002	6.12847E-001	-4.27078E-002	-2.97707E-004	1.72942E-005	-2.81672E-003	-3.60227E-003	1.56762E-004	2.01883E-004	-3.14540E-003	2.19195E-004
	225	224.97	4.99886E-002	-5.10354E-003	0.00000E+000	-2.55119E-004	-4.96536E-002	3.50252E-002	3.10890E+001	11	...........	5.84573E-002	-3.40793E-003	5.48972E-001	7.01848E-001	-3.05747E-002	-3.93100E-002	6.12925E-001	-4.27355E-002	-2.98340E-004	1.73925E-005	-2.80170E-003	-3.58191E-003	1.56040E-004	2.00620E-004	-3.12809E-003	2.18103E-004
STARTTIMEOFFSET	QUANT	421581	Start Time Offset (s)
