EXPLAIN
TAG	PWR800_DISCHARGE
TITLE	LABEL	PWR Discharge	Test Identifier
DATE	LABEL	10/16/2022	Date
TIME	LABEL	12:39:41	Time
NOTES	NOTES	1	Notes...
	
PSTAT	PSTAT	REF3000-21114	Potentiostat
CAPACITY	QUANT	5.30000E-002	Capacity (A-hr)
CELLTYPE	SELECTOR	1	Cell Type
WORKINGCONNECTION	SELECTOR	0	Working Connection
MAXDISCHARGETIME	VARIABLEANDUNITS	7.20000E+003	s	2.00000E+000	hour(s)	Max Discharge Time
DISCHARGEMODE	MULTIPARAM	0	1.00000E-001	Discharge Mode	Constant Current	Amp(s)
VOLTAGEFINISH	TWOPARAM	T	5.00000E-003	7.20000E+003	Voltage Finish	I (A) <	Max Time(s)
SAMPLETIME	QUANT	1.00000E+000	Sample Period (s)
DISCHARGESTOPAT1	MULTIPARAM	1	5.00000E-002	Stop At 1	|Voltage| < Limit	V
DISCHARGESTOPAT2	MULTIPARAM	0	0.00000E+000	Stop At 2	None	N/A
AESELECTOR	AESELECTOR	0x1	T	Set Limits	AE Channels
AESBHCSELECTOR	TOGGLE	F	Save Both Half Cells
IRCOMP	TOGGLE	F	IR Measure
EOC	QUANT	0.5321088	Open Circuit (V)
SEQUENCER	TOGGLE	TRUE	Run as Sequence
PSTATMODEL	IQUANT	5	Pstat Model
PSTATSECTION	LABEL	REF3000-21114	Pstat Section
PSTATSERIALNO	LABEL	21114	Pstat Serial Number
CTRLMODE	IQUANT	0	Control Mode
ELECTROMETER	IQUANT	0	RE=0 or CS=1
IESTAB	IQUANT	0	I/E Stability
CASPEED	IQUANT	4	Control Amp Speed
CONVENTION	IQUANT	1	Current Convention
ICHRANGE	IQUANT	2	Ich Range
ICHRANGEMODE	TOGGLE	T	Ich Auto Range
ICHOFFSETENABLE	TOGGLE	F	Ich Offset Enable
ICHOFFSET	QUANT	0	Ich Offset (V)
ICHFILTER	IQUANT	1	Ich Filter
VCHRANGE	IQUANT	3	Vch Range
VCHRANGEMODE	TOGGLE	T	Vch Auto Range
VCHOFFSETENABLE	TOGGLE	F	Vch Offset Enable
VCHOFFSET	QUANT	0	Vch Offset (V)
VCHFILTER	IQUANT	1	Vch Filter
ACHRANGE	IQUANT	2	Ach Range
ACHOFFSETENABLE	TOGGLE	F	Ach Offset Enable
ACHOFFSET	QUANT	0	Ach Offset (V)
ACHFILTER	IQUANT	1	Ach Filter
IERANGELOWERLIMIT	IQUANT	9	I/E Range Lower Limit
IERANGEMODE	TOGGLE	F	I/E AutoRange
IERANGE	IQUANT	9	I/E Range
POSFEEDENABLE	TOGGLE	F	Positive Feedback IR Comp
POSFEEDRESISTANCE	QUANT	0	Positive Feedback Resistance (ohm)
ACHSELECT	IQUANT	1	Ach Select
SENSECABLEID	IQUANT	13	Sense Cable ID
PWRCABLEID	IQUANT	13	Power Cable ID
DCCALDATE	LABEL		DC Calibration Date
ACCALDATE	LABEL		AC Calibration Date
THERMOSELECT	IQUANT	1	Thermo Select
FRAMEWORKVERSION	LABEL	7.8.6	Framework Version
INSTRUMENTVERSION	LABEL	4.50	Instrument Version
COMPLIANCEVOLTAGE	IQUANT	0	Compliance Voltage
CURVE	TABLE	76
	Pt	T	Vf	Im	Vu	Pwr	Sig	Ach	Temp	IERange	Over	Vf1	Vf2	Vf3	Vf4	Vf5	Vf6	Vf7	Vf8	Pwr1	Pwr2	Pwr3	Pwr4	Pwr5	Pwr6	Pwr7	Pwr8
	#	s	V	A	V	W	V	V	deg C	#	bits	V	V	V	V	V	V	V	V	W	W	W	W	W	W	W	W
	0	1	2.89437E-001	-1.00081E-001	0.00000E+000	-2.89672E-002	-9.94000E-001	3.54622E-002	2.93458E+001	11	...........	5.89525E-002	-4.00639E-003	5.75421E-001	6.19780E-001	-2.91550E-002	-3.89368E-002	6.63335E-001	-4.31901E-002	-5.90004E-003	4.00965E-004	-5.75889E-002	-6.20284E-002	2.91787E-003	3.89685E-003	-6.63874E-002	4.32253E-003
	1	2	1.91510E-001	-1.00082E-001	0.00000E+000	-1.91667E-002	-9.94000E-001	3.54870E-002	2.82213E+001	11	...........	5.89822E-002	-4.04486E-003	5.75361E-001	6.20002E-001	-2.91671E-002	-3.89525E-002	6.63401E-001	-4.31325E-002	-5.90306E-003	4.04818E-004	-5.75834E-002	-6.20511E-002	2.91910E-003	3.89845E-003	-6.63946E-002	4.31679E-003
	2	3	1.06062E-001	-1.00082E-001	0.00000E+000	-1.06149E-002	-9.94000E-001	3.53756E-002	2.71602E+001	11	...........	5.87869E-002	-4.04681E-003	5.75378E-001	6.19984E-001	-2.91297E-002	-3.89628E-002	6.63459E-001	-4.30901E-002	-5.88351E-003	4.05012E-004	-5.75849E-002	-6.20493E-002	2.91536E-003	3.89947E-003	-6.64003E-002	4.31255E-003
	3	3.21	5.78693E-002	-1.00082E-001	0.00000E+000	-5.79166E-003	-9.94000E-001	3.52893E-002	2.65483E+001	11	...........	5.86488E-002	-4.09458E-003	5.75501E-001	6.20073E-001	-2.92692E-002	-3.89358E-002	6.63428E-001	-4.30403E-002	-5.86968E-003	4.09792E-004	-5.75972E-002	-6.20580E-002	2.92931E-003	3.89677E-003	-6.63970E-002	4.30755E-003
	4	4	4.93941E-002	-8.10734E-002	0.00000E+000	-4.00455E-003	-8.04992E-001	3.55718E-002	2.73747E+001	11	...........	5.91113E-002	-4.17159E-003	5.75677E-001	6.20045E-001	-2.91243E-002	-3.89970E-002	6.63404E-001	-4.31456E-002	-4.79235E-003	3.38205E-004	-4.66721E-002	-5.02692E-002	2.36121E-003	3.16162E-003	-5.37845E-002	3.49796E-003
	5	5	4.96796E-002	-5.55126E-002	0.00000E+000	-2.75785E-003	-5.50848E-001	3.57226E-002	2.83469E+001	11	...........	5.93674E-002	-4.19292E-003	5.75791E-001	6.20013E-001	-2.91512E-002	-3.90150E-002	6.63300E-001	-4.32342E-002	-3.29564E-003	2.32760E-004	-3.19636E-002	-3.44185E-002	1.61826E-003	2.16582E-003	-3.68215E-002	2.40004E-003
	6	6	4.98004E-002	-4.00754E-002	0.00000E+000	-1.99577E-003	-3.97363E-001	3.56867E-002	2.95948E+001	11	...........	5.93278E-002	-4.26028E-003	5.76014E-001	6.20076E-001	-2.91353E-002	-3.90154E-002	6.63308E-001	-4.31535E-002	-2.37758E-003	1.70732E-004	-2.30840E-002	-2.48498E-002	1.16761E-003	1.56356E-003	-2.65823E-002	1.72939E-003
	7	7	4.98687E-002	-3.11885E-002	0.00000E+000	-1.55533E-003	-3.09011E-001	3.57152E-002	2.97798E+001	11	...........	5.93790E-002	-4.42014E-003	5.76226E-001	6.20014E-001	-2.91108E-002	-3.90218E-002	6.63333E-001	-4.30250E-002	-1.85194E-003	1.37858E-004	-1.79716E-002	-1.93373E-002	9.07924E-004	1.21703E-003	-2.06884E-002	1.34189E-003
	8	8	4.98964E-002	-2.57345E-002	0.00000E+000	-1.28406E-003	-2.54778E-001	3.58219E-002	3.04914E+001	11	...........	5.95246E-002	-4.37667E-003	5.76319E-001	6.19975E-001	-2.91094E-002	-3.90312E-002	6.63237E-001	-4.31193E-002	-1.53184E-003	1.12631E-004	-1.48313E-002	-1.59548E-002	7.49118E-004	1.00445E-003	-1.70681E-002	1.10965E-003
	9	9	4.99218E-002	-2.19175E-002	0.00000E+000	-1.09416E-003	-2.16830E-001	3.58042E-002	3.12434E+001	11	...........	5.94981E-002	-4.43778E-003	5.76385E-001	6.20022E-001	-2.91144E-002	-3.90449E-002	6.63355E-001	-4.31515E-002	-1.30405E-003	9.72649E-005	-1.26329E-002	-1.35893E-002	6.38115E-004	8.55764E-004	-1.45391E-002	9.45772E-004
	10	10	4.99254E-002	-1.92702E-002	0.00000E+000	-9.62073E-004	-1.90512E-001	3.58523E-002	3.10268E+001	11	...........	5.95694E-002	-4.27125E-003	5.76385E-001	6.20166E-001	-2.90983E-002	-3.90492E-002	6.63344E-001	-4.31060E-002	-1.14792E-003	8.23079E-005	-1.11071E-002	-1.19507E-002	5.60731E-004	7.52486E-004	-1.27828E-002	8.30661E-004
	11	11	4.99411E-002	-1.73029E-002	0.00000E+000	-8.64125E-004	-1.70946E-001	3.58646E-002	3.13787E+001	11	...........	5.96215E-002	-4.25181E-003	5.76545E-001	6.20270E-001	-2.90919E-002	-3.90253E-002	6.63350E-001	-4.30904E-002	-1.03162E-003	7.35685E-005	-9.97589E-003	-1.07325E-002	5.03375E-004	6.75250E-004	-1.14779E-002	7.45589E-004
	12	12	4.99438E-002	-1.59394E-002	0.00000E+000	-7.96072E-004	-1.57382E-001	3.58873E-002	3.19255E+001	11	...........	5.96262E-002	-4.19403E-003	5.76619E-001	6.20251E-001	-2.91100E-002	-3.90031E-002	6.63360E-001	-4.31261E-002	-9.50405E-004	6.68501E-005	-9.19095E-003	-9.88640E-003	4.63995E-004	6.21684E-004	-1.05735E-002	6.87403E-004
	13	13	4.99445E-002	-1.48345E-002	0.00000E+000	-7.40901E-004	-1.46389E-001	3.59135E-002	3.14046E+001	11	...........	5.96890E-002	-4.19958E-003	5.76585E-001	6.20210E-001	-2.91472E-002	-3.89928E-002	6.63539E-001	-4.31857E-002	-8.85456E-004	6.22987E-005	-8.55335E-003	-9.20050E-003	4.32384E-004	5.78438E-004	-9.84326E-003	6.40638E-004
	14	14	4.99494E-002	-1.38323E-002	0.00000E+000	-6.90914E-004	-1.36425E-001	3.58478E-002	3.12265E+001	11	...........	5.95857E-002	-4.28278E-003	5.76463E-001	6.20109E-001	-2.91237E-002	-3.89840E-002	6.63556E-001	-4.32186E-002	-8.24205E-004	5.92405E-005	-7.97379E-003	-8.57751E-003	4.02847E-004	5.39237E-004	-9.17847E-003	5.97811E-004
	15	15	4.99535E-002	-1.32239E-002	0.00000E+000	-6.60580E-004	-1.30371E-001	3.59559E-002	3.20249E+001	11	...........	5.97619E-002	-4.23778E-003	5.76488E-001	6.19903E-001	-2.91715E-002	-3.89456E-002	6.63463E-001	-4.32740E-002	-7.90286E-004	5.60399E-005	-7.62342E-003	-8.19754E-003	3.85761E-004	5.15012E-004	-8.77356E-003	5.72251E-004
	16	16	4.99516E-002	-1.26902E-002	0.00000E+000	-6.33896E-004	-1.25076E-001	3.59574E-002	3.19443E+001	11	...........	5.97457E-002	-4.11181E-003	5.76486E-001	6.19709E-001	-2.91792E-002	-3.89385E-002	6.63505E-001	-4.31725E-002	-7.58185E-004	5.21797E-005	-7.31572E-003	-7.86424E-003	3.70290E-004	4.94137E-004	-8.42002E-003	5.47868E-004
	17	17	4.99547E-002	-1.21527E-002	0.00000E+000	-6.07085E-004	-1.19725E-001	3.59967E-002	3.19972E+001	11	...........	5.98340E-002	-4.19236E-003	5.76418E-001	6.19749E-001	-2.92031E-002	-3.88871E-002	6.63512E-001	-4.31781E-002	-7.27145E-004	5.09485E-005	-7.00504E-003	-7.53163E-003	3.54896E-004	4.72583E-004	-8.06346E-003	5.24730E-004
	18	18	4.99518E-002	-1.16888E-002	0.00000E+000	-5.83875E-004	-1.15109E-001	3.59590E-002	3.22541E+001	11	...........	5.97514E-002	-4.25389E-003	5.76370E-001	6.19937E-001	-2.91979E-002	-3.88832E-002	6.63495E-001	-4.31782E-002	-6.98420E-004	4.97227E-005	-6.73705E-003	-7.24630E-003	3.41288E-004	4.54497E-004	-7.75544E-003	5.04700E-004
	19	19	4.99554E-002	-1.12528E-002	0.00000E+000	-5.62138E-004	-1.10778E-001	3.59638E-002	3.10336E+001	11	...........	5.97790E-002	-4.31014E-003	5.76308E-001	6.19933E-001	-2.90808E-002	-3.89540E-002	6.63389E-001	-4.31582E-002	-6.72682E-004	4.85011E-005	-6.48508E-003	-6.97598E-003	3.27241E-004	4.38342E-004	-7.46498E-003	4.85651E-004
	20	20	4.99580E-002	-1.10179E-002	0.00000E+000	-5.50434E-004	-1.08437E-001	3.59296E-002	3.18229E+001	11	...........	5.98471E-002	-4.36944E-003	5.76346E-001	6.19977E-001	-2.91158E-002	-3.89133E-002	6.63480E-001	-4.30836E-002	-6.59391E-004	4.81423E-005	-6.35014E-003	-6.83087E-003	3.20796E-004	4.28745E-004	-7.31018E-003	4.74692E-004
	21	21	4.99559E-002	-1.07641E-002	0.00000E+000	-5.37729E-004	-1.05908E-001	3.58861E-002	3.24290E+001	11	...........	5.98853E-002	-4.34042E-003	5.76175E-001	6.20119E-001	-2.91528E-002	-3.88864E-002	6.63479E-001	-4.31436E-002	-6.44610E-004	4.67206E-005	-6.20199E-003	-6.67501E-003	3.13803E-004	4.18576E-004	-7.14174E-003	4.64401E-004
	22	22	4.99546E-002	-1.04863E-002	0.00000E+000	-5.23840E-004	-1.03160E-001	3.59632E-002	3.19132E+001	11	...........	6.00047E-002	-4.25139E-003	5.76282E-001	6.20095E-001	-2.91872E-002	-3.88937E-002	6.63564E-001	-4.31501E-002	-6.29229E-004	4.45814E-005	-6.04308E-003	-6.50252E-003	3.06067E-004	4.07852E-004	-6.95834E-003	4.52486E-004
	23	23	4.99589E-002	-1.01533E-002	0.00000E+000	-5.07250E-004	-9.98773E-002	3.58934E-002	3.15807E+001	11	...........	5.98968E-002	-4.27569E-003	5.76115E-001	6.20118E-001	-2.91929E-002	-3.89028E-002	6.63573E-001	-4.31219E-002	-6.08153E-004	4.34126E-005	-5.84950E-003	-6.29627E-003	2.96406E-004	3.94993E-004	-6.73749E-003	4.37832E-004
	24	24	4.99580E-002	-9.96046E-003	0.00000E+000	-4.97604E-004	-9.79560E-002	3.58572E-002	3.18865E+001	11	...........	5.98311E-002	-4.24958E-003	5.76072E-001	6.20263E-001	-2.91632E-002	-3.88792E-002	6.63679E-001	-4.29931E-002	-5.95945E-004	4.23278E-005	-5.73794E-003	-6.17811E-003	2.90479E-004	3.87254E-004	-6.61055E-003	4.28231E-004
	25	25	4.99563E-002	-9.77848E-003	0.00000E+000	-4.88496E-004	-9.61420E-002	3.59573E-002	3.26987E+001	11	...........	6.00132E-002	-4.23944E-003	5.76229E-001	6.20316E-001	-2.92062E-002	-3.88550E-002	6.63592E-001	-4.30921E-002	-5.86837E-004	4.14553E-005	-5.63464E-003	-6.06575E-003	2.85593E-004	3.79943E-004	-6.48892E-003	4.21375E-004
	26	26	4.99565E-002	-9.54800E-003	0.00000E+000	-4.76985E-004	-9.38493E-002	3.59607E-002	3.18425E+001	11	...........	5.99681E-002	-4.16083E-003	5.76238E-001	6.20322E-001	-2.92124E-002	-3.88729E-002	6.63644E-001	-4.31776E-002	-5.72575E-004	3.97276E-005	-5.50192E-003	-5.92283E-003	2.78920E-004	3.71159E-004	-6.33648E-003	4.12260E-004
	27	27	4.99582E-002	-9.36096E-003	0.00000E+000	-4.67656E-004	-9.19827E-002	3.59945E-002	3.24673E+001	11	...........	6.00578E-002	-4.12736E-003	5.76007E-001	6.20377E-001	-2.92215E-002	-3.88603E-002	6.63675E-001	-4.31211E-002	-5.62198E-004	3.86361E-005	-5.39198E-003	-5.80732E-003	2.73542E-004	3.63769E-004	-6.21263E-003	4.03655E-004
	28	28	4.99584E-002	-9.21132E-003	0.00000E+000	-4.60183E-004	-9.04920E-002	3.59590E-002	3.23234E+001	11	...........	5.99829E-002	-4.21847E-003	5.75963E-001	6.20441E-001	-2.92106E-002	-3.88793E-002	6.63604E-001	-4.30331E-002	-5.52522E-004	3.88577E-005	-5.30538E-003	-5.71508E-003	2.69068E-004	3.58130E-004	-6.11267E-003	3.96391E-004
	29	29	4.99569E-002	-9.01222E-003	0.00000E+000	-4.50223E-004	-8.85207E-002	3.59233E-002	3.21473E+001	11	...........	5.99067E-002	-4.22278E-003	5.75891E-001	6.20372E-001	-2.92025E-002	-3.88815E-002	6.63383E-001	-4.31354E-002	-5.39892E-004	3.80566E-005	-5.19006E-003	-5.59093E-003	2.63179E-004	3.50409E-004	-5.97856E-003	3.88746E-004
	30	30	4.99577E-002	-8.86634E-003	0.00000E+000	-4.42942E-004	-8.70720E-002	3.60260E-002	3.23445E+001	11	...........	6.01318E-002	-4.17736E-003	5.75968E-001	6.20282E-001	-2.92107E-002	-3.89054E-002	6.63435E-001	-4.31715E-002	-5.33149E-004	3.70379E-005	-5.10673E-003	-5.49963E-003	2.58992E-004	3.44949E-004	-5.88224E-003	3.82774E-004
	31	31	4.99570E-002	-8.73034E-003	0.00000E+000	-4.36142E-004	-8.57173E-002	3.60314E-002	3.23835E+001	11	...........	6.00949E-002	-4.21000E-003	5.75912E-001	6.20314E-001	-2.92136E-002	-3.89228E-002	6.63495E-001	-4.30996E-002	-5.24649E-004	3.67547E-005	-5.02790E-003	-5.41555E-003	2.55045E-004	3.39809E-004	-5.79254E-003	3.76274E-004
	32	32	4.99573E-002	-8.49723E-003	0.00000E+000	-4.24499E-004	-8.33980E-002	3.59821E-002	3.14904E+001	11	...........	6.00154E-002	-4.11806E-003	5.75865E-001	6.20391E-001	-2.92154E-002	-3.89272E-002	6.63469E-001	-4.31719E-002	-5.09965E-004	3.49921E-005	-4.89326E-003	-5.27160E-003	2.48250E-004	3.30774E-004	-5.63765E-003	3.66842E-004
	33	33	4.99596E-002	-8.37071E-003	0.00000E+000	-4.18197E-004	-8.21427E-002	3.59856E-002	3.21049E+001	11	...........	6.00403E-002	-4.07111E-003	5.75993E-001	6.20446E-001	-2.92372E-002	-3.89081E-002	6.63512E-001	-4.32554E-002	-5.02580E-004	3.40781E-005	-4.82147E-003	-5.19357E-003	2.44736E-004	3.25688E-004	-5.55407E-003	3.62079E-004
	34	34	4.99593E-002	-8.31401E-003	0.00000E+000	-4.15362E-004	-8.15773E-002	3.60757E-002	3.27552E+001	11	...........	6.01887E-002	-4.03417E-003	5.75951E-001	6.20331E-001	-2.91989E-002	-3.89001E-002	6.63498E-001	-4.32778E-002	-5.00410E-004	3.35401E-005	-4.78846E-003	-5.15744E-003	2.42760E-004	3.23416E-004	-5.51633E-003	3.59812E-004
	35	35	4.99581E-002	-8.16488E-003	0.00000E+000	-4.07902E-004	-8.00893E-002	3.59825E-002	3.23385E+001	11	...........	6.00462E-002	-4.13861E-003	5.75763E-001	6.20346E-001	-2.92215E-002	-3.88814E-002	6.63567E-001	-4.32524E-002	-4.90271E-004	3.37913E-005	-4.70104E-003	-5.06505E-003	2.38590E-004	3.17462E-004	-5.41795E-003	3.53151E-004
	36	36	4.99567E-002	-8.05072E-003	0.00000E+000	-4.02187E-004	-7.89527E-002	3.61170E-002	3.25629E+001	11	...........	6.02625E-002	-4.17569E-003	5.75756E-001	6.20383E-001	-2.91928E-002	-3.88919E-002	6.63545E-001	-4.31475E-002	-4.85157E-004	3.36174E-005	-4.63526E-003	-4.99453E-003	2.35023E-004	3.13108E-004	-5.34202E-003	3.47369E-004
	37	37	4.99600E-002	-7.91758E-003	0.00000E+000	-3.95563E-004	-7.76247E-002	3.60535E-002	3.26154E+001	11	...........	6.01319E-002	-4.26500E-003	5.75655E-001	6.20363E-001	-2.91961E-002	-3.88914E-002	6.63493E-001	-4.32157E-002	-4.76100E-004	3.37685E-005	-4.55780E-003	-4.91178E-003	2.31163E-004	3.07926E-004	-5.25326E-003	3.42164E-004
	38	38	4.99582E-002	-7.78578E-003	0.00000E+000	-3.88964E-004	-7.63413E-002	3.59675E-002	3.25630E+001	11	...........	6.00228E-002	-4.22861E-003	5.75736E-001	6.20414E-001	-2.91685E-002	-3.88785E-002	6.63578E-001	-4.32139E-002	-4.67324E-004	3.29230E-005	-4.48255E-003	-4.83041E-003	2.27099E-004	3.02699E-004	-5.16647E-003	3.36454E-004
	39	39	4.99578E-002	-7.68147E-003	0.00000E+000	-3.83749E-004	-7.52993E-002	3.60837E-002	3.25172E+001	11	...........	6.02181E-002	-4.18806E-003	5.75725E-001	6.20346E-001	-2.91779E-002	-3.88799E-002	6.63535E-001	-4.31136E-002	-4.62563E-004	3.21704E-005	-4.42241E-003	-4.76517E-003	2.24129E-004	2.98655E-004	-5.09692E-003	3.31176E-004
	40	40	4.99584E-002	-7.56025E-003	0.00000E+000	-3.77698E-004	-7.40873E-002	3.60829E-002	3.21457E+001	11	...........	6.02171E-002	-4.25514E-003	5.75692E-001	6.20327E-001	-2.91606E-002	-3.88712E-002	6.63536E-001	-4.31468E-002	-4.55256E-004	3.21699E-005	-4.35238E-003	-4.68983E-003	2.20461E-004	2.93876E-004	-5.01650E-003	3.26200E-004
	41	41	4.99597E-002	-7.43995E-003	0.00000E+000	-3.71697E-004	-7.28873E-002	3.60414E-002	3.27242E+001	11	...........	6.01240E-002	-4.23375E-003	5.75630E-001	6.20205E-001	-2.91781E-002	-3.88549E-002	6.63452E-001	-4.31847E-002	-4.47320E-004	3.14989E-005	-4.28266E-003	-4.61429E-003	2.17083E-004	2.89078E-004	-4.93605E-003	3.21292E-004
	42	42	4.99578E-002	-7.36773E-003	0.00000E+000	-3.68076E-004	-7.21693E-002	3.61041E-002	3.26310E+001	11	...........	6.02279E-002	-4.23278E-003	5.75663E-001	6.20346E-001	-2.91946E-002	-3.88694E-002	6.63408E-001	-4.31824E-002	-4.43743E-004	3.11860E-005	-4.24133E-003	-4.57055E-003	2.15098E-004	2.86380E-004	-4.88781E-003	3.18156E-004
	43	43	4.99582E-002	-7.20842E-003	0.00000E+000	-3.60120E-004	-7.05813E-002	3.60516E-002	3.22460E+001	11	...........	6.01382E-002	-4.20083E-003	5.75487E-001	6.20380E-001	-2.91983E-002	-3.88860E-002	6.63470E-001	-4.32631E-002	-4.33501E-004	3.02814E-005	-4.14836E-003	-4.47196E-003	2.10474E-004	2.80306E-004	-4.78257E-003	3.11858E-004
	44	44	4.99590E-002	-7.11120E-003	0.00000E+000	-3.55269E-004	-6.96127E-002	3.60417E-002	3.24067E+001	11	...........	6.01289E-002	-4.27333E-003	5.75502E-001	6.20342E-001	-2.92089E-002	-3.89114E-002	6.63494E-001	-4.32743E-002	-4.27589E-004	3.03885E-005	-4.09251E-003	-4.41138E-003	2.07710E-004	2.76707E-004	-4.71824E-003	3.07732E-004
	45	45	4.99588E-002	-7.06034E-003	0.00000E+000	-3.52726E-004	-6.91093E-002	3.61262E-002	3.27354E+001	11	...........	6.02939E-002	-4.25806E-003	5.75604E-001	6.20302E-001	-2.92014E-002	-3.89300E-002	6.63463E-001	-4.31771E-002	-4.25695E-004	3.00633E-005	-4.06396E-003	-4.37954E-003	2.06172E-004	2.74859E-004	-4.68427E-003	3.04845E-004
	46	46	4.99585E-002	-6.93173E-003	0.00000E+000	-3.46299E-004	-6.78300E-002	3.61582E-002	3.23968E+001	11	...........	6.03146E-002	-4.15903E-003	5.75688E-001	6.20412E-001	-2.91821E-002	-3.89121E-002	6.63539E-001	-4.31906E-002	-4.18084E-004	2.88293E-005	-3.99052E-003	-4.30053E-003	2.02282E-004	2.69728E-004	-4.59948E-003	2.99385E-004
	47	47	4.99591E-002	-6.83309E-003	0.00000E+000	-3.41375E-004	-6.68440E-002	3.60589E-002	3.23493E+001	11	...........	6.01819E-002	-4.13000E-003	5.75803E-001	6.20372E-001	-2.91544E-002	-3.89058E-002	6.63570E-001	-4.32042E-002	-4.11229E-004	2.82207E-005	-3.93452E-003	-4.23906E-003	1.99215E-004	2.65847E-004	-4.53424E-003	2.95218E-004
	48	48	4.99584E-002	-6.78082E-003	0.00000E+000	-3.38759E-004	-6.63253E-002	3.61672E-002	3.31597E+001	11	...........	6.03422E-002	-4.14236E-003	5.75902E-001	6.20287E-001	-2.91935E-002	-3.89062E-002	6.63564E-001	-4.32289E-002	-4.09170E-004	2.80886E-005	-3.90508E-003	-4.20605E-003	1.97956E-004	2.63816E-004	-4.49951E-003	2.93127E-004
	49	49	4.99593E-002	-6.69184E-003	0.00000E+000	-3.34320E-004	-6.54373E-002	3.60982E-002	3.25755E+001	11	...........	6.02489E-002	-4.14389E-003	5.75926E-001	6.20185E-001	-2.91840E-002	-3.89224E-002	6.63529E-001	-4.31367E-002	-4.03176E-004	2.77303E-005	-3.85400E-003	-4.15018E-003	1.95295E-004	2.60462E-004	-4.44024E-003	2.88664E-004
	50	50	4.99588E-002	-6.61610E-003	0.00000E+000	-3.30532E-004	-6.46773E-002	3.61524E-002	3.31345E+001	11	...........	6.03549E-002	-4.25986E-003	5.75973E-001	6.20269E-001	-2.91792E-002	-3.89507E-002	6.63459E-001	-4.30737E-002	-3.99314E-004	2.81837E-005	-3.81069E-003	-4.10376E-003	1.93052E-004	2.57702E-004	-4.38951E-003	2.84980E-004
	51	51	4.99588E-002	-6.52961E-003	0.00000E+000	-3.26212E-004	-6.38180E-002	3.61282E-002	3.26313E+001	11	...........	6.02976E-002	-4.33069E-003	5.76107E-001	6.20280E-001	-2.91425E-002	-3.89812E-002	6.63494E-001	-4.31250E-002	-3.93720E-004	2.82778E-005	-3.76176E-003	-4.05019E-003	1.90289E-004	2.54533E-004	-4.33236E-003	2.81590E-004
	52	52	4.99588E-002	-6.45246E-003	0.00000E+000	-3.22357E-004	-6.30613E-002	3.61903E-002	3.28278E+001	11	...........	6.03793E-002	-4.27236E-003	5.76060E-001	6.20228E-001	-2.91558E-002	-3.89835E-002	6.63526E-001	-4.31507E-002	-3.89595E-004	2.75672E-005	-3.71700E-003	-4.00199E-003	1.88127E-004	2.51539E-004	-4.28137E-003	2.78428E-004
	53	53	4.99593E-002	-6.38757E-003	0.00000E+000	-3.19118E-004	-6.24200E-002	3.61414E-002	3.31075E+001	11	...........	6.02839E-002	-4.19181E-003	5.75970E-001	6.20215E-001	-2.91771E-002	-3.89968E-002	6.63548E-001	-4.30783E-002	-3.85068E-004	2.67754E-005	-3.67905E-003	-3.96167E-003	1.86371E-004	2.49095E-004	-4.23846E-003	2.75166E-004
	54	54	4.99589E-002	-6.29479E-003	0.00000E+000	-3.14481E-004	-6.14953E-002	3.61177E-002	3.31736E+001	11	...........	6.02767E-002	-4.17542E-003	5.75988E-001	6.20232E-001	-2.91732E-002	-3.90103E-002	6.63521E-001	-4.31508E-002	-3.79429E-004	2.62834E-005	-3.62572E-003	-3.90423E-003	1.83639E-004	2.45561E-004	-4.17672E-003	2.71625E-004
	55	55	4.99585E-002	-6.22410E-003	0.00000E+000	-3.10946E-004	-6.07900E-002	3.62227E-002	3.32058E+001	11	...........	6.04264E-002	-4.16569E-003	5.76019E-001	6.20110E-001	-2.91356E-002	-3.90019E-002	6.63603E-001	-4.32111E-002	-3.76100E-004	2.59277E-005	-3.58520E-003	-3.85963E-003	1.81342E-004	2.42752E-004	-4.13033E-003	2.68950E-004
	56	56	4.99591E-002	-6.10801E-003	0.00000E+000	-3.05151E-004	-5.96340E-002	3.61807E-002	3.27482E+001	11	...........	6.03590E-002	-4.08792E-003	5.76066E-001	6.20094E-001	-2.91508E-002	-3.89961E-002	6.63536E-001	-4.32537E-002	-3.68673E-004	2.49690E-005	-3.51862E-003	-3.78754E-003	1.78053E-004	2.38188E-004	-4.05289E-003	2.64194E-004
	57	57	4.99591E-002	-6.02499E-003	0.00000E+000	-3.01003E-004	-5.88080E-002	3.60670E-002	3.23163E+001	11	...........	6.01746E-002	-4.07694E-003	5.75982E-001	6.20308E-001	-2.91290E-002	-3.89919E-002	6.63530E-001	-4.32194E-002	-3.62552E-004	2.45636E-005	-3.47029E-003	-3.73735E-003	1.75502E-004	2.34926E-004	-3.99777E-003	2.60397E-004
	58	58	4.99585E-002	-5.98574E-003	0.00000E+000	-2.99039E-004	-5.84173E-002	3.62507E-002	3.25020E+001	11	...........	6.04931E-002	-4.20500E-003	5.76158E-001	6.20420E-001	-2.91244E-002	-3.90082E-002	6.63601E-001	-4.31931E-002	-3.62096E-004	2.51700E-005	-3.44874E-003	-3.71367E-003	1.74331E-004	2.33493E-004	-3.97214E-003	2.58543E-004
	59	59	4.99600E-002	-5.93492E-003	0.00000E+000	-2.96509E-004	-5.79107E-002	3.62070E-002	3.30763E+001	11	...........	6.03951E-002	-4.25625E-003	5.76216E-001	6.20491E-001	-2.90667E-002	-3.90082E-002	6.63592E-001	-4.30994E-002	-3.58440E-004	2.52605E-005	-3.41979E-003	-3.68256E-003	1.72508E-004	2.31510E-004	-3.93836E-003	2.55792E-004
	60	60	4.99589E-002	-5.88420E-003	0.00000E+000	-2.93968E-004	-5.74053E-002	3.62315E-002	3.33947E+001	11	...........	6.04358E-002	-4.20444E-003	5.76079E-001	6.20431E-001	-2.90858E-002	-3.90051E-002	6.63613E-001	-4.30887E-002	-3.55616E-004	2.47398E-005	-3.38976E-003	-3.65074E-003	1.71147E-004	2.29514E-004	-3.90483E-003	2.53543E-004
	61	61	4.99591E-002	-5.79162E-003	0.00000E+000	-2.89344E-004	-5.64847E-002	3.61423E-002	3.25366E+001	11	...........	6.02996E-002	-4.36042E-003	5.76041E-001	6.20276E-001	-2.90908E-002	-3.89894E-002	6.63659E-001	-4.29699E-002	-3.49232E-004	2.52539E-005	-3.33621E-003	-3.59240E-003	1.68483E-004	2.25812E-004	-3.84366E-003	2.48865E-004
	62	62	4.99588E-002	-5.74807E-003	0.00000E+000	-2.87167E-004	-5.60533E-002	3.62965E-002	3.33804E+001	11	...........	6.05549E-002	-4.31403E-003	5.75823E-001	6.20158E-001	-2.90404E-002	-3.90042E-002	6.63561E-001	-4.28389E-002	-3.48073E-004	2.47973E-005	-3.30987E-003	-3.56471E-003	1.66926E-004	2.24199E-004	-3.81419E-003	2.46241E-004
	63	63	4.99586E-002	-5.65349E-003	0.00000E+000	-2.82441E-004	-5.51120E-002	3.61856E-002	3.19211E+001	11	...........	6.03717E-002	-4.33556E-003	5.75856E-001	6.20160E-001	-2.90369E-002	-3.90193E-002	6.63514E-001	-4.28885E-002	-3.41311E-004	2.45110E-005	-3.25559E-003	-3.50607E-003	1.64160E-004	2.20595E-004	-3.75117E-003	2.42469E-004
	64	64	4.99600E-002	-5.59159E-003	0.00000E+000	-2.79356E-004	-5.44933E-002	3.62502E-002	3.26165E+001	11	...........	6.04669E-002	-4.24417E-003	5.75962E-001	6.20168E-001	-2.90360E-002	-3.90340E-002	6.63491E-001	-4.30049E-002	-3.38107E-004	2.37317E-005	-3.22054E-003	-3.46773E-003	1.62357E-004	2.18262E-004	-3.70997E-003	2.40466E-004
	65	65	4.99595E-002	-5.56300E-003	0.00000E+000	-2.77925E-004	-5.42113E-002	3.61805E-002	3.33004E+001	11	...........	6.03622E-002	-4.22208E-003	5.75969E-001	6.20060E-001	-2.90239E-002	-3.90132E-002	6.63537E-001	-4.30343E-002	-3.35795E-004	2.34874E-005	-3.20412E-003	-3.44939E-003	1.61460E-004	2.17030E-004	-3.69126E-003	2.39400E-004
	66	66	4.99580E-002	-5.50995E-003	0.00000E+000	-2.75266E-004	-5.36800E-002	3.63121E-002	3.29892E+001	11	...........	6.05821E-002	-4.23847E-003	5.75939E-001	6.20037E-001	-2.90600E-002	-3.90056E-002	6.63653E-001	-4.30400E-002	-3.33804E-004	2.33538E-005	-3.17339E-003	-3.41637E-003	1.60119E-004	2.14919E-004	-3.65670E-003	2.37148E-004
	67	67	4.99602E-002	-5.44713E-003	0.00000E+000	-2.72140E-004	-5.30567E-002	3.62523E-002	3.28033E+001	11	...........	6.04817E-002	-4.13819E-003	5.75937E-001	6.19982E-001	-2.90703E-002	-3.90128E-002	6.63711E-001	-4.31161E-002	-3.29451E-004	2.25413E-005	-3.13720E-003	-3.37712E-003	1.58349E-004	2.12508E-004	-3.61532E-003	2.34859E-004
	68	68	4.99590E-002	-5.37970E-003	0.00000E+000	-2.68765E-004	-5.23873E-002	3.62402E-002	3.32348E+001	11	...........	6.04719E-002	-4.06583E-003	5.75896E-001	6.19995E-001	-2.90433E-002	-3.90014E-002	6.63661E-001	-4.31044E-002	-3.25321E-004	2.18730E-005	-3.09815E-003	-3.33539E-003	1.56245E-004	2.09816E-004	-3.57030E-003	2.31889E-004
	69	69	4.99595E-002	-5.33168E-003	0.00000E+000	-2.66368E-004	-5.19040E-002	3.62002E-002	3.26721E+001	11	...........	6.04082E-002	-4.19056E-003	5.75838E-001	6.19969E-001	-2.90729E-002	-3.90011E-002	6.63777E-001	-4.31550E-002	-3.22077E-004	2.23427E-005	-3.07019E-003	-3.30548E-003	1.55008E-004	2.07942E-004	-3.53905E-003	2.30089E-004
	70	70	4.99595E-002	-5.27062E-003	0.00000E+000	-2.63317E-004	-5.13047E-002	3.62379E-002	3.30015E+001	11	...........	6.04487E-002	-4.16889E-003	5.75870E-001	6.20000E-001	-2.90804E-002	-3.89964E-002	6.63653E-001	-4.31826E-002	-3.18602E-004	2.19726E-005	-3.03519E-003	-3.26778E-003	1.53272E-004	2.05535E-004	-3.49786E-003	2.27599E-004
	71	71	4.99588E-002	-5.24154E-003	0.00000E+000	-2.61861E-004	-5.10240E-002	3.63411E-002	3.33242E+001	11	...........	6.06361E-002	-4.16875E-003	5.75836E-001	6.20122E-001	-2.90879E-002	-3.89818E-002	6.63660E-001	-4.31944E-002	-3.17827E-004	2.18507E-005	-3.01827E-003	-3.25039E-003	1.52466E-004	2.04325E-004	-3.47860E-003	2.26405E-004
	72	72	4.99589E-002	-5.17488E-003	0.00000E+000	-2.58531E-004	-5.03660E-002	3.62588E-002	3.25417E+001	11	...........	6.04943E-002	-4.12042E-003	5.75745E-001	6.20049E-001	-2.91136E-002	-3.89990E-002	6.63713E-001	-4.31494E-002	-3.13051E-004	2.13227E-005	-2.97941E-003	-3.20868E-003	1.50659E-004	2.01815E-004	-3.43463E-003	2.23293E-004
	73	73	4.99597E-002	-5.09435E-003	0.00000E+000	-2.54512E-004	-4.95693E-002	3.62232E-002	3.30446E+001	11	...........	6.04262E-002	-4.20431E-003	5.75722E-001	6.20102E-001	-2.91183E-002	-3.90178E-002	6.63764E-001	-4.31242E-002	-3.07832E-004	2.14182E-005	-2.93293E-003	-3.15901E-003	1.48339E-004	1.98770E-004	-3.38144E-003	2.19689E-004
	74	74	4.99595E-002	-5.08456E-003	0.00000E+000	-2.54022E-004	-4.94713E-002	3.63130E-002	3.28950E+001	11	...........	6.05754E-002	-4.18611E-003	5.75749E-001	6.20085E-001	-2.90646E-002	-3.89897E-002	6.63685E-001	-4.31658E-002	-3.07999E-004	2.12845E-005	-2.92743E-003	-3.15286E-003	1.47781E-004	1.98246E-004	-3.37455E-003	2.19479E-004
	75	74.075	4.99561E-002	-5.05109E-003	0.00000E+000	-2.52332E-004	-4.91333E-002	3.61756E-002	3.32172E+001	11	...........	6.03537E-002	-4.14815E-003	5.75741E-001	6.20156E-001	-2.93611E-002	-3.89074E-002	6.63781E-001	-4.32167E-002	-3.04852E-004	2.09527E-005	-2.90812E-003	-3.13246E-003	1.48306E-004	1.96525E-004	-3.35282E-003	2.18291E-004
STARTTIMEOFFSET	QUANT	836905.8	Start Time Offset (s)
