EXPLAIN
TAG	PWR800_DISCHARGE
TITLE	LABEL	PWR Discharge	Test Identifier
DATE	LABEL	10/16/2022	Date
TIME	LABEL	5:22:02	Time
NOTES	NOTES	1	Notes...
	
PSTAT	PSTAT	REF3000-21114	Potentiostat
CAPACITY	QUANT	5.30000E-002	Capacity (A-hr)
CELLTYPE	SELECTOR	1	Cell Type
WORKINGCONNECTION	SELECTOR	0	Working Connection
MAXDISCHARGETIME	VARIABLEANDUNITS	7.20000E+003	s	2.00000E+000	hour(s)	Max Discharge Time
DISCHARGEMODE	MULTIPARAM	0	1.00000E-001	Discharge Mode	Constant Current	Amp(s)
VOLTAGEFINISH	TWOPARAM	T	5.00000E-003	7.20000E+003	Voltage Finish	I (A) <	Max Time(s)
SAMPLETIME	QUANT	1.00000E+000	Sample Period (s)
DISCHARGESTOPAT1	MULTIPARAM	1	5.00000E-002	Stop At 1	|Voltage| < Limit	V
DISCHARGESTOPAT2	MULTIPARAM	0	0.00000E+000	Stop At 2	None	N/A
AESELECTOR	AESELECTOR	0x1	T	Set Limits	AE Channels
AESBHCSELECTOR	TOGGLE	F	Save Both Half Cells
IRCOMP	TOGGLE	F	IR Measure
EOC	QUANT	0.5414571	Open Circuit (V)
SEQUENCER	TOGGLE	TRUE	Run as Sequence
PSTATMODEL	IQUANT	5	Pstat Model
PSTATSECTION	LABEL	REF3000-21114	Pstat Section
PSTATSERIALNO	LABEL	21114	Pstat Serial Number
CTRLMODE	IQUANT	0	Control Mode
ELECTROMETER	IQUANT	0	RE=0 or CS=1
IESTAB	IQUANT	0	I/E Stability
CASPEED	IQUANT	4	Control Amp Speed
CONVENTION	IQUANT	1	Current Convention
ICHRANGE	IQUANT	2	Ich Range
ICHRANGEMODE	TOGGLE	T	Ich Auto Range
ICHOFFSETENABLE	TOGGLE	F	Ich Offset Enable
ICHOFFSET	QUANT	0	Ich Offset (V)
ICHFILTER	IQUANT	1	Ich Filter
VCHRANGE	IQUANT	3	Vch Range
VCHRANGEMODE	TOGGLE	T	Vch Auto Range
VCHOFFSETENABLE	TOGGLE	F	Vch Offset Enable
VCHOFFSET	QUANT	0	Vch Offset (V)
VCHFILTER	IQUANT	1	Vch Filter
ACHRANGE	IQUANT	2	Ach Range
ACHOFFSETENABLE	TOGGLE	F	Ach Offset Enable
ACHOFFSET	QUANT	0	Ach Offset (V)
ACHFILTER	IQUANT	1	Ach Filter
IERANGELOWERLIMIT	IQUANT	9	I/E Range Lower Limit
IERANGEMODE	TOGGLE	F	I/E AutoRange
IERANGE	IQUANT	9	I/E Range
POSFEEDENABLE	TOGGLE	F	Positive Feedback IR Comp
POSFEEDRESISTANCE	QUANT	0	Positive Feedback Resistance (ohm)
ACHSELECT	IQUANT	1	Ach Select
SENSECABLEID	IQUANT	13	Sense Cable ID
PWRCABLEID	IQUANT	13	Power Cable ID
DCCALDATE	LABEL		DC Calibration Date
ACCALDATE	LABEL		AC Calibration Date
THERMOSELECT	IQUANT	1	Thermo Select
FRAMEWORKVERSION	LABEL	7.8.6	Framework Version
INSTRUMENTVERSION	LABEL	4.50	Instrument Version
COMPLIANCEVOLTAGE	IQUANT	0	Compliance Voltage
CURVE	TABLE	102
	Pt	T	Vf	Im	Vu	Pwr	Sig	Ach	Temp	IERange	Over	Vf1	Vf2	Vf3	Vf4	Vf5	Vf6	Vf7	Vf8	Pwr1	Pwr2	Pwr3	Pwr4	Pwr5	Pwr6	Pwr7	Pwr8
	#	s	V	A	V	W	V	V	deg C	#	bits	V	V	V	V	V	V	V	V	W	W	W	W	W	W	W	W
	0	1	2.99972E-001	-1.00101E-001	0.00000E+000	-3.00275E-002	-9.94000E-001	3.57396E-002	2.92773E+001	11	...........	5.94033E-002	-4.02750E-003	5.77129E-001	6.18276E-001	-2.90332E-002	-3.89319E-002	6.65619E-001	-4.32201E-002	-5.94634E-003	4.03157E-004	-5.77713E-002	-6.18901E-002	2.90625E-003	3.89713E-003	-6.66291E-002	4.32638E-003
	1	2	2.03233E-001	-1.00101E-001	0.00000E+000	-2.03439E-002	-9.94000E-001	3.56442E-002	2.80791E+001	11	...........	5.92668E-002	-4.04750E-003	5.77156E-001	6.18211E-001	-2.90232E-002	-3.89153E-002	6.65658E-001	-4.32183E-002	-5.93268E-003	4.05160E-004	-5.77741E-002	-6.18836E-002	2.90526E-003	3.89547E-003	-6.66332E-002	4.32621E-003
	2	3	1.20576E-001	-1.00102E-001	0.00000E+000	-1.20699E-002	-9.94000E-001	3.56112E-002	2.78366E+001	11	...........	5.92126E-002	-4.15667E-003	5.76979E-001	6.18133E-001	-2.90056E-002	-3.88954E-002	6.65672E-001	-4.32675E-002	-5.92729E-003	4.16089E-004	-5.77566E-002	-6.18762E-002	2.90351E-003	3.89350E-003	-6.66349E-002	4.33115E-003
	3	3.44167	6.60537E-002	-1.00102E-001	0.00000E+000	-6.61210E-003	-9.94000E-001	3.56364E-002	2.71646E+001	11	...........	5.92299E-002	-4.13491E-003	5.76881E-001	6.18140E-001	-2.89972E-002	-3.89000E-002	6.65676E-001	-4.32233E-002	-5.92903E-003	4.13912E-004	-5.77469E-002	-6.18770E-002	2.90267E-003	3.89397E-003	-6.66355E-002	4.32673E-003
	4	4	4.93285E-002	-8.60285E-002	0.00000E+000	-4.24366E-003	-8.54066E-001	3.57282E-002	2.74904E+001	11	...........	5.94090E-002	-4.04179E-003	5.76976E-001	6.18098E-001	-2.90244E-002	-3.88719E-002	6.65673E-001	-4.31823E-002	-5.11086E-003	3.47709E-004	-4.96364E-002	-5.31740E-002	2.49692E-003	3.34409E-003	-5.72669E-002	3.71491E-003
	5	5	4.96202E-002	-6.20322E-002	0.00000E+000	-3.07805E-003	-6.15487E-001	3.58695E-002	2.83347E+001	11	...........	5.96072E-002	-4.02986E-003	5.76986E-001	6.18186E-001	-2.90114E-002	-3.88744E-002	6.65770E-001	-4.31969E-002	-3.69757E-003	2.49981E-004	-3.57917E-002	-3.83475E-002	1.79964E-003	2.41147E-003	-4.12992E-002	2.67960E-003
	6	6	4.97658E-002	-4.52670E-002	0.00000E+000	-2.25275E-003	-4.48813E-001	3.59041E-002	2.95245E+001	11	...........	5.96439E-002	-4.02750E-003	5.77058E-001	6.18308E-001	-2.90237E-002	-3.89124E-002	6.65768E-001	-4.31717E-002	-2.69990E-003	1.82313E-004	-2.61217E-002	-2.79890E-002	1.31382E-003	1.76145E-003	-3.01373E-002	1.95425E-003
	7	7	4.98265E-002	-3.57065E-002	0.00000E+000	-1.77913E-003	-3.53752E-001	3.59298E-002	2.99252E+001	11	...........	5.96815E-002	-4.12389E-003	5.77163E-001	6.18474E-001	-2.90665E-002	-3.89183E-002	6.65812E-001	-4.31981E-002	-2.13102E-003	1.47250E-004	-2.06085E-002	-2.20835E-002	1.03786E-003	1.38964E-003	-2.37738E-002	1.54245E-003
	8	8	4.98685E-002	-2.98075E-002	0.00000E+000	-1.48646E-003	-2.95110E-001	3.59861E-002	3.07242E+001	11	...........	5.98050E-002	-4.16722E-003	5.76973E-001	6.18586E-001	-2.90650E-002	-3.89312E-002	6.65782E-001	-4.31518E-002	-1.78264E-003	1.24215E-004	-1.71981E-002	-1.84385E-002	8.66355E-004	1.16044E-003	-1.98453E-002	1.28625E-003
	9	9	4.98858E-002	-2.59484E-002	0.00000E+000	-1.29446E-003	-2.56737E-001	3.60474E-002	3.12169E+001	11	...........	5.98968E-002	-4.30264E-003	5.77031E-001	6.18544E-001	-2.90753E-002	-3.89256E-002	6.65820E-001	-4.30826E-002	-1.55423E-003	1.11647E-004	-1.49730E-002	-1.60502E-002	7.54457E-004	1.01006E-003	-1.72770E-002	1.11793E-003
	10	10	4.98960E-002	-2.30260E-002	0.00000E+000	-1.14891E-003	-2.27683E-001	3.59860E-002	3.14448E+001	11	...........	5.98078E-002	-4.35306E-003	5.76883E-001	6.18542E-001	-2.90818E-002	-3.89447E-002	6.65824E-001	-4.28890E-002	-1.37714E-003	1.00234E-004	-1.32833E-002	-1.42426E-002	6.69639E-004	8.96743E-004	-1.53313E-002	9.87565E-004
	11	11	4.99038E-002	-2.10049E-002	0.00000E+000	-1.04823E-003	-2.07588E-001	3.61841E-002	3.09277E+001	11	...........	6.01208E-002	-4.26069E-003	5.76837E-001	6.18737E-001	-2.90482E-002	-3.89461E-002	6.65690E-001	-4.29914E-002	-1.26283E-003	8.94956E-005	-1.21164E-002	-1.29965E-002	6.10156E-004	8.18061E-004	-1.39828E-002	9.03032E-004
	12	12	4.99118E-002	-1.93651E-002	0.00000E+000	-9.66548E-004	-1.91285E-001	3.60088E-002	3.12931E+001	11	...........	5.98467E-002	-4.27833E-003	5.76805E-001	6.18730E-001	-2.90454E-002	-3.89660E-002	6.65603E-001	-4.30633E-002	-1.15894E-003	8.28505E-005	-1.11699E-002	-1.19818E-002	5.62468E-004	7.54581E-004	-1.28895E-002	8.33927E-004
	13	13	4.99169E-002	-1.84096E-002	0.00000E+000	-9.18949E-004	-1.81780E-001	3.62127E-002	3.20349E+001	11	...........	6.01576E-002	-4.29431E-003	5.76861E-001	6.18704E-001	-2.90593E-002	-3.89607E-002	6.65591E-001	-4.30281E-002	-1.10748E-003	7.90563E-005	-1.06198E-002	-1.13901E-002	5.34969E-004	7.17250E-004	-1.22532E-002	7.92128E-004
	14	14	4.99171E-002	-1.74581E-002	0.00000E+000	-8.71456E-004	-1.72316E-001	3.61658E-002	3.14069E+001	11	...........	6.01122E-002	-4.25597E-003	5.76814E-001	6.18736E-001	-2.90362E-002	-3.89176E-002	6.65703E-001	-4.30436E-002	-1.04944E-003	7.43011E-005	-1.00701E-002	-1.08019E-002	5.06917E-004	6.79427E-004	-1.16219E-002	7.51459E-004
	15	15	4.99172E-002	-1.65072E-002	0.00000E+000	-8.23991E-004	-1.62863E-001	3.62038E-002	3.19016E+001	11	...........	6.01431E-002	-4.24333E-003	5.76664E-001	6.18743E-001	-2.90572E-002	-3.89042E-002	6.65569E-001	-4.31433E-002	-9.92791E-004	7.00454E-005	-9.51909E-003	-1.02137E-002	4.79652E-004	6.42197E-004	-1.09867E-002	7.12174E-004
	16	16	4.99203E-002	-1.58891E-002	0.00000E+000	-7.93192E-004	-1.56710E-001	3.61737E-002	3.13919E+001	11	...........	6.01056E-002	-4.33875E-003	5.76571E-001	6.18790E-001	-2.90344E-002	-3.88865E-002	6.65700E-001	-4.31385E-002	-9.55026E-004	6.89390E-005	-9.16122E-003	-9.83204E-003	4.61333E-004	6.17874E-004	-1.05774E-002	6.85434E-004
	17	17	4.99242E-002	-1.54743E-002	0.00000E+000	-7.72543E-004	-1.52593E-001	3.62664E-002	3.17661E+001	11	...........	6.02604E-002	-4.42125E-003	5.76427E-001	6.18905E-001	-2.90169E-002	-3.89006E-002	6.65619E-001	-4.31124E-002	-9.32488E-004	6.84158E-005	-8.91981E-003	-9.57713E-003	4.49017E-004	6.01959E-004	-1.03000E-002	6.67134E-004
	18	18	4.99230E-002	-1.50197E-002	0.00000E+000	-7.49830E-004	-1.48063E-001	3.62517E-002	3.21879E+001	11	...........	6.02303E-002	-4.32792E-003	5.76440E-001	6.18879E-001	-2.90056E-002	-3.88937E-002	6.65673E-001	-4.30246E-002	-9.04642E-004	6.50041E-005	-8.65797E-003	-9.29539E-003	4.35655E-004	5.84173E-004	-9.99822E-003	6.46217E-004
	19	19	4.99216E-002	-1.45382E-002	0.00000E+000	-7.25772E-004	-1.43262E-001	3.61950E-002	3.18464E+001	11	...........	6.01539E-002	-4.36333E-003	5.76393E-001	6.18876E-001	-2.89643E-002	-3.88503E-002	6.65636E-001	-4.31285E-002	-8.74531E-004	6.34351E-005	-8.37973E-003	-8.99737E-003	4.21090E-004	5.64814E-004	-9.67716E-003	6.27012E-004
	20	20	4.99254E-002	-1.42211E-002	0.00000E+000	-7.09996E-004	-1.40107E-001	3.62846E-002	3.21097E+001	11	...........	6.04446E-002	-4.40222E-003	5.76490E-001	6.18769E-001	-2.89972E-002	-3.88446E-002	6.65678E-001	-4.31171E-002	-8.59591E-004	6.26047E-005	-8.19835E-003	-8.79961E-003	4.12374E-004	5.52415E-004	-9.46670E-003	6.13174E-004
	21	21	4.99252E-002	-1.39098E-002	0.00000E+000	-6.94450E-004	-1.37029E-001	3.61395E-002	3.24855E+001	11	...........	6.03029E-002	-4.36486E-003	5.76607E-001	6.18798E-001	-2.89843E-002	-3.88199E-002	6.65561E-001	-4.31557E-002	-8.38801E-004	6.07143E-005	-8.02049E-003	-8.60735E-003	4.03166E-004	5.39976E-004	-9.25782E-003	6.00287E-004
	22	22	4.99242E-002	-1.35772E-002	0.00000E+000	-6.77830E-004	-1.33719E-001	3.61437E-002	3.22303E+001	11	...........	6.03169E-002	-4.34472E-003	5.76758E-001	6.18895E-001	-2.89668E-002	-3.88042E-002	6.65593E-001	-4.32544E-002	-8.18935E-004	5.89892E-005	-7.83076E-003	-8.40286E-003	3.93288E-004	5.26852E-004	-9.03689E-003	5.87274E-004
	23	23	4.99241E-002	-1.32832E-002	0.00000E+000	-6.63151E-004	-1.30790E-001	3.62076E-002	3.26045E+001	11	...........	6.03964E-002	-4.22472E-003	5.76936E-001	6.18856E-001	-2.89908E-002	-3.88322E-002	6.65590E-001	-4.31650E-002	-8.02256E-004	5.61177E-005	-7.66355E-003	-8.22037E-003	3.85090E-004	5.15815E-004	-8.84115E-003	5.73369E-004
	24	24	4.99262E-002	-1.30032E-002	0.00000E+000	-6.49202E-004	-1.28011E-001	3.62102E-002	3.19460E+001	11	...........	6.04332E-002	-4.19681E-003	5.76993E-001	6.18728E-001	-2.90224E-002	-3.88368E-002	6.65670E-001	-4.31506E-002	-7.85826E-004	5.45720E-005	-7.50277E-003	-8.04546E-003	3.77384E-004	5.05004E-004	-8.65585E-003	5.61096E-004
	25	25	4.99246E-002	-1.27191E-002	0.00000E+000	-6.34994E-004	-1.25185E-001	3.61405E-002	3.23324E+001	11	...........	6.03225E-002	-4.22861E-003	5.77040E-001	6.18478E-001	-2.90422E-002	-3.88161E-002	6.65794E-001	-4.31786E-002	-7.67245E-004	5.37839E-005	-7.33941E-003	-7.86645E-003	3.69390E-004	4.93704E-004	-8.46827E-003	5.49191E-004
	26	26	4.99266E-002	-1.25407E-002	0.00000E+000	-6.26113E-004	-1.23409E-001	3.62519E-002	3.26320E+001	11	...........	6.04986E-002	-4.36361E-003	5.77062E-001	6.18573E-001	-2.90017E-002	-3.88079E-002	6.65766E-001	-4.31683E-002	-7.58694E-004	5.47227E-005	-7.23675E-003	-7.75732E-003	3.63701E-004	4.86678E-004	-8.34916E-003	5.41360E-004
	27	27	4.99257E-002	-1.23109E-002	0.00000E+000	-6.14630E-004	-1.21120E-001	3.62579E-002	3.25770E+001	11	...........	6.05090E-002	-4.35653E-003	5.77037E-001	6.18629E-001	-2.89915E-002	-3.88274E-002	6.65718E-001	-4.31254E-002	-7.44920E-004	5.36327E-005	-7.10384E-003	-7.61587E-003	3.56911E-004	4.77999E-004	-8.19557E-003	5.30912E-004
	28	28	4.99259E-002	-1.21029E-002	0.00000E+000	-6.04247E-004	-1.19049E-001	3.62230E-002	3.26308E+001	11	...........	6.04529E-002	-4.35097E-003	5.77195E-001	6.18600E-001	-2.89954E-002	-3.88458E-002	6.65655E-001	-4.30678E-002	-7.31654E-004	5.26593E-005	-6.98572E-003	-7.48684E-003	3.50928E-004	4.70146E-004	-8.05634E-003	5.21244E-004
	29	29	4.99246E-002	-1.17915E-002	0.00000E+000	-5.88683E-004	-1.15937E-001	3.62931E-002	3.18464E+001	11	...........	6.05499E-002	-4.33556E-003	5.77379E-001	6.18496E-001	-2.89901E-002	-3.88494E-002	6.65666E-001	-4.30244E-002	-7.13971E-004	5.11225E-005	-6.80814E-003	-7.29296E-003	3.41836E-004	4.58091E-004	-7.84917E-003	5.07321E-004
	30	30	4.99279E-002	-1.14800E-002	0.00000E+000	-5.73171E-004	-1.12866E-001	3.60899E-002	3.15979E+001	11	...........	6.02208E-002	-4.23653E-003	5.77386E-001	6.18604E-001	-2.90074E-002	-3.88507E-002	6.65613E-001	-4.31053E-002	-6.91333E-004	4.86352E-005	-6.62838E-003	-7.10155E-003	3.33003E-004	4.46005E-004	-7.64121E-003	4.94847E-004
	31	31	4.99262E-002	-1.14802E-002	0.00000E+000	-5.73165E-004	-1.12870E-001	3.64171E-002	3.28442E+001	11	...........	6.07653E-002	-4.33083E-003	5.77462E-001	6.18505E-001	-2.90083E-002	-3.88521E-002	6.65639E-001	-4.31554E-002	-6.97600E-004	4.97190E-005	-6.62941E-003	-7.10059E-003	3.33023E-004	4.46031E-004	-7.64169E-003	4.95435E-004
	32	32	4.99238E-002	-1.12911E-002	0.00000E+000	-5.63694E-004	-1.10987E-001	3.63891E-002	3.23293E+001	11	...........	6.07396E-002	-4.33667E-003	5.77457E-001	6.18375E-001	-2.90240E-002	-3.88667E-002	6.65553E-001	-4.31507E-002	-6.85816E-004	4.89657E-005	-6.52012E-003	-6.98213E-003	3.27713E-004	4.38847E-004	-7.51482E-003	4.87219E-004
	33	33	4.99279E-002	-1.10132E-002	0.00000E+000	-5.49869E-004	-1.08215E-001	3.62597E-002	3.25463E+001	11	...........	6.05161E-002	-4.31278E-003	5.77457E-001	6.18237E-001	-2.90501E-002	-3.88618E-002	6.65500E-001	-4.32089E-002	-6.66479E-004	4.74977E-005	-6.35967E-003	-6.80880E-003	3.19936E-004	4.27994E-004	-7.32931E-003	4.75870E-004
	34	34	4.99277E-002	-1.09575E-002	0.00000E+000	-5.47081E-004	-1.07664E-001	3.63795E-002	3.27578E+001	11	...........	6.07017E-002	-4.30667E-003	5.77370E-001	6.18169E-001	-2.90249E-002	-3.88504E-002	6.65437E-001	-4.32807E-002	-6.65137E-004	4.71902E-005	-6.32652E-003	-6.77357E-003	3.18039E-004	4.25702E-004	-7.29151E-003	4.74247E-004
	35	35	4.99259E-002	-1.07102E-002	0.00000E+000	-5.34715E-004	-1.05198E-001	3.62294E-002	3.24072E+001	11	...........	6.04694E-002	-4.23917E-003	5.77262E-001	6.18248E-001	-2.90243E-002	-3.88525E-002	6.65380E-001	-4.32265E-002	-6.47639E-004	4.54023E-005	-6.18259E-003	-6.62156E-003	3.10856E-004	4.16118E-004	-7.12635E-003	4.62964E-004
	36	36	4.99270E-002	-1.05730E-002	0.00000E+000	-5.27876E-004	-1.03837E-001	3.63690E-002	3.29426E+001	11	...........	6.06958E-002	-4.28278E-003	5.77149E-001	6.18342E-001	-2.90325E-002	-3.88560E-002	6.65466E-001	-4.33112E-002	-6.41734E-004	4.52816E-005	-6.10217E-003	-6.53771E-003	3.06959E-004	4.10822E-004	-7.03594E-003	4.57928E-004
	37	37	4.99250E-002	-1.05016E-002	0.00000E+000	-5.24292E-004	-1.03130E-001	3.64433E-002	3.25975E+001	11	...........	6.08175E-002	-4.34542E-003	5.77184E-001	6.18371E-001	-2.90158E-002	-3.88687E-002	6.65442E-001	-4.33494E-002	-6.38681E-004	4.56338E-005	-6.06136E-003	-6.49389E-003	3.04713E-004	4.08184E-004	-6.98821E-003	4.55239E-004
	38	38	4.99277E-002	-1.02360E-002	0.00000E+000	-5.11058E-004	-1.00529E-001	3.63181E-002	3.26777E+001	11	...........	6.06037E-002	-4.29458E-003	5.77045E-001	6.18487E-001	-2.90011E-002	-3.88612E-002	6.65497E-001	-4.33439E-002	-6.20338E-004	4.39592E-005	-5.90661E-003	-6.33081E-003	2.96854E-004	3.97782E-004	-6.81200E-003	4.43666E-004
	39	39	4.99276E-002	-1.01266E-002	0.00000E+000	-5.05599E-004	-9.94367E-002	3.63370E-002	3.30016E+001	11	...........	6.06401E-002	-4.37264E-003	5.77059E-001	6.18483E-001	-2.90247E-002	-3.88756E-002	6.65560E-001	-4.32299E-002	-6.14081E-004	4.42802E-005	-5.84368E-003	-6.26316E-003	2.93923E-004	3.93679E-004	-6.73990E-003	4.37774E-004
	40	40	4.99240E-002	-9.95291E-003	0.00000E+000	-4.96889E-004	-9.77037E-002	3.64465E-002	3.23984E+001	11	...........	6.08110E-002	-4.42417E-003	5.77029E-001	6.18450E-001	-2.90354E-002	-3.88731E-002	6.65735E-001	-4.33142E-002	-6.05246E-004	4.40333E-005	-5.74312E-003	-6.15537E-003	2.88987E-004	3.86900E-004	-6.62600E-003	4.31102E-004
	41	41	4.99290E-002	-9.80999E-003	0.00000E+000	-4.89803E-004	-9.62800E-002	3.62802E-002	3.26029E+001	11	...........	6.05415E-002	-4.20153E-003	5.76905E-001	6.18361E-001	-2.90328E-002	-3.88575E-002	6.65713E-001	-4.31442E-002	-5.93912E-004	4.12170E-005	-5.65944E-003	-6.06612E-003	2.84811E-004	3.81192E-004	-6.53064E-003	4.23244E-004
	42	42	4.99274E-002	-9.74934E-003	0.00000E+000	-4.86759E-004	-9.56717E-002	3.64637E-002	3.32247E+001	11	...........	6.08519E-002	-4.23056E-003	5.76968E-001	6.18312E-001	-2.90606E-002	-3.88717E-002	6.65558E-001	-4.32454E-002	-5.93266E-004	4.12451E-005	-5.62505E-003	-6.02814E-003	2.83321E-004	3.78973E-004	-6.48875E-003	4.21614E-004
	43	43	4.99268E-002	-9.62889E-003	0.00000E+000	-4.80739E-004	-9.44740E-002	3.64336E-002	3.28597E+001	11	...........	6.07893E-002	-4.25028E-003	5.76888E-001	6.18176E-001	-2.90532E-002	-3.88447E-002	6.65660E-001	-4.32881E-002	-5.85334E-004	4.09255E-005	-5.55479E-003	-5.95235E-003	2.79750E-004	3.74032E-004	-6.40957E-003	4.16816E-004
	44	44	4.99272E-002	-9.45296E-003	0.00000E+000	-4.71960E-004	-9.27203E-002	3.63622E-002	3.30213E+001	11	...........	6.06871E-002	-4.19236E-003	5.76947E-001	6.18137E-001	-2.90544E-002	-3.88579E-002	6.65683E-001	-4.32275E-002	-5.73673E-004	3.96302E-005	-5.45386E-003	-5.84323E-003	2.74651E-004	3.67322E-004	-6.29267E-003	4.08628E-004
	45	45	4.99269E-002	-9.38509E-003	0.00000E+000	-4.68568E-004	-9.20443E-002	3.65514E-002	3.31399E+001	11	...........	6.10081E-002	-4.20639E-003	5.77035E-001	6.18129E-001	-2.90654E-002	-3.88833E-002	6.65678E-001	-4.31736E-002	-5.72566E-004	3.94773E-005	-5.41553E-003	-5.80120E-003	2.72782E-004	3.64924E-004	-6.24745E-003	4.05188E-004
	46	46	4.99276E-002	-9.19843E-003	0.00000E+000	-4.59256E-004	-9.01783E-002	3.64317E-002	3.28365E+001	11	...........	6.08253E-002	-4.24542E-003	5.77079E-001	6.18039E-001	-2.90819E-002	-3.88603E-002	6.65739E-001	-4.32393E-002	-5.59497E-004	3.90512E-005	-5.30822E-003	-5.68499E-003	2.67508E-004	3.57454E-004	-6.12376E-003	3.97734E-004
	47	47	4.99262E-002	-9.02489E-003	0.00000E+000	-4.50578E-004	-8.84713E-002	3.63378E-002	3.25665E+001	11	...........	6.06464E-002	-4.28000E-003	5.77074E-001	6.18037E-001	-2.90578E-002	-3.88568E-002	6.65742E-001	-4.32961E-002	-5.47327E-004	3.86265E-005	-5.20803E-003	-5.57771E-003	2.62243E-004	3.50678E-004	-6.00825E-003	3.90743E-004
	48	48	4.99275E-002	-8.95100E-003	0.00000E+000	-4.46901E-004	-8.77497E-002	3.65286E-002	3.30145E+001	11	...........	6.09832E-002	-4.31028E-003	5.77059E-001	6.17979E-001	-2.90544E-002	-3.88412E-002	6.65744E-001	-4.31487E-002	-5.45861E-004	3.85813E-005	-5.16526E-003	-5.53154E-003	2.60066E-004	3.47668E-004	-5.95907E-003	3.86225E-004
	49	49	4.99259E-002	-8.85217E-003	0.00000E+000	-4.41952E-004	-8.67613E-002	3.64652E-002	3.26363E+001	11	...........	6.08543E-002	-4.46861E-003	5.77168E-001	6.17923E-001	-2.90475E-002	-3.88326E-002	6.65646E-001	-4.31583E-002	-5.38692E-004	3.95569E-005	-5.10919E-003	-5.46996E-003	2.57133E-004	3.43753E-004	-5.89241E-003	3.82045E-004
	50	50	4.99279E-002	-8.69908E-003	0.00000E+000	-4.34326E-004	-8.52343E-002	3.64718E-002	3.30377E+001	11	...........	6.08639E-002	-4.33056E-003	5.77412E-001	6.17936E-001	-2.90572E-002	-3.88357E-002	6.65478E-001	-4.31976E-002	-5.29460E-004	3.76719E-005	-5.02295E-003	-5.37547E-003	2.52771E-004	3.37835E-004	-5.78905E-003	3.75780E-004
	51	51	4.99263E-002	-8.52800E-003	0.00000E+000	-4.25772E-004	-8.35270E-002	3.65230E-002	3.26028E+001	11	...........	6.09544E-002	-4.13319E-003	5.77360E-001	6.17805E-001	-2.90514E-002	-3.88332E-002	6.65510E-001	-4.31867E-002	-5.19819E-004	3.52479E-005	-4.92373E-003	-5.26864E-003	2.47750E-004	3.31169E-004	-5.67547E-003	3.68296E-004
	52	52	4.99279E-002	-8.41166E-003	0.00000E+000	-4.19977E-004	-8.23700E-002	3.63515E-002	3.22903E+001	11	...........	6.06517E-002	-4.09542E-003	5.77297E-001	6.17809E-001	-2.90547E-002	-3.88419E-002	6.65590E-001	-4.31122E-002	-5.10181E-004	3.44493E-005	-4.85603E-003	-5.19681E-003	2.44399E-004	3.26725E-004	-5.59872E-003	3.62645E-004
	53	53	4.99279E-002	-8.37362E-003	0.00000E+000	-4.18077E-004	-8.19917E-002	3.65548E-002	3.31610E+001	11	...........	6.10065E-002	-4.12875E-003	5.77260E-001	6.18009E-001	-2.90532E-002	-3.88493E-002	6.65515E-001	-4.31958E-002	-5.10845E-004	3.45726E-005	-4.83376E-003	-5.17497E-003	2.43280E-004	3.25309E-004	-5.57277E-003	3.61705E-004
	54	54	4.99271E-002	-8.28719E-003	0.00000E+000	-4.13756E-004	-8.11327E-002	3.65498E-002	3.27225E+001	11	...........	6.10028E-002	-4.26500E-003	5.77266E-001	6.17988E-001	-2.90417E-002	-3.88493E-002	6.65458E-001	-4.32493E-002	-5.05542E-004	3.53449E-005	-4.78391E-003	-5.12139E-003	2.40674E-004	3.21952E-004	-5.51478E-003	3.58415E-004
	55	55	4.99269E-002	-8.13901E-003	0.00000E+000	-4.06355E-004	-7.96553E-002	3.64947E-002	3.27649E+001	11	...........	6.08964E-002	-4.34681E-003	5.77322E-001	6.18150E-001	-2.90535E-002	-3.88357E-002	6.65404E-001	-4.31931E-002	-4.95636E-004	3.53787E-005	-4.69882E-003	-5.03112E-003	2.36466E-004	3.16084E-004	-5.41572E-003	3.51549E-004
	56	56	4.99269E-002	-8.03796E-003	0.00000E+000	-4.01310E-004	-7.86533E-002	3.65245E-002	3.24929E+001	11	...........	6.09561E-002	-4.30375E-003	5.77393E-001	6.18267E-001	-2.90715E-002	-3.88240E-002	6.65535E-001	-4.32447E-002	-4.89963E-004	3.45934E-005	-4.64106E-003	-4.96961E-003	2.33676E-004	3.12066E-004	-5.34954E-003	3.47599E-004
	57	57	4.99292E-002	-7.96064E-003	0.00000E+000	-3.97468E-004	-7.78820E-002	3.65077E-002	3.30352E+001	11	...........	6.09136E-002	-4.34278E-003	5.77377E-001	6.18296E-001	-2.90925E-002	-3.88339E-002	6.65726E-001	-4.32071E-002	-4.84911E-004	3.45713E-005	-4.59629E-003	-4.92203E-003	2.31595E-004	3.09142E-004	-5.29961E-003	3.43956E-004
	58	58	4.99272E-002	-7.89145E-003	0.00000E+000	-3.93998E-004	-7.72013E-002	3.64737E-002	3.32796E+001	11	...........	6.08621E-002	-4.19750E-003	5.77231E-001	6.18419E-001	-2.90867E-002	-3.88314E-002	6.65777E-001	-4.31447E-002	-4.80290E-004	3.31244E-005	-4.55519E-003	-4.88022E-003	2.29536E-004	3.06436E-004	-5.25394E-003	3.40474E-004
	59	59	4.99268E-002	-7.78215E-003	0.00000E+000	-3.88537E-004	-7.61280E-002	3.65991E-002	3.30036E+001	11	...........	6.10829E-002	-4.20167E-003	5.77217E-001	6.18697E-001	-2.90897E-002	-3.88143E-002	6.65868E-001	-4.31833E-002	-4.75356E-004	3.26980E-005	-4.49199E-003	-4.81479E-003	2.26381E-004	3.02059E-004	-5.18188E-003	3.36059E-004
	60	60	4.99286E-002	-7.68163E-003	0.00000E+000	-3.83533E-004	-7.51237E-002	3.66284E-002	3.31264E+001	11	...........	6.11272E-002	-4.32875E-003	5.77283E-001	6.18400E-001	-2.90806E-002	-3.87929E-002	6.65792E-001	-4.32404E-002	-4.69557E-004	3.32519E-005	-4.43448E-003	-4.75032E-003	2.23386E-004	2.97993E-004	-5.11437E-003	3.32157E-004
	61	61	4.99278E-002	-7.58339E-003	0.00000E+000	-3.78622E-004	-7.41417E-002	3.64657E-002	3.29922E+001	11	...........	6.08557E-002	-4.34667E-003	5.77296E-001	6.18359E-001	-2.90625E-002	-3.88040E-002	6.65796E-001	-4.32710E-002	-4.61492E-004	3.29625E-005	-4.37786E-003	-4.68926E-003	2.20392E-004	2.94266E-004	-5.04899E-003	3.28141E-004
	62	62	4.99271E-002	-7.51001E-003	0.00000E+000	-3.74953E-004	-7.34083E-002	3.65262E-002	3.28948E+001	11	...........	6.09560E-002	-4.39611E-003	5.77377E-001	6.18629E-001	-2.90703E-002	-3.88322E-002	6.65697E-001	-4.32389E-002	-4.57780E-004	3.30148E-005	-4.33610E-003	-4.64591E-003	2.18318E-004	2.91630E-004	-4.99939E-003	3.24724E-004
	63	63	4.99279E-002	-7.44062E-003	0.00000E+000	-3.71494E-004	-7.27187E-002	3.65983E-002	3.33339E+001	11	...........	6.10675E-002	-4.42861E-003	5.77461E-001	6.18786E-001	-2.90507E-002	-3.88469E-002	6.65727E-001	-4.32428E-002	-4.54380E-004	3.29516E-005	-4.29666E-003	-4.60415E-003	2.16155E-004	2.89045E-004	-4.95342E-003	3.21753E-004
	64	64	4.99267E-002	-7.36658E-003	0.00000E+000	-3.67789E-004	-7.19797E-002	3.66637E-002	3.32841E+001	11	...........	6.11868E-002	-4.46917E-003	5.77312E-001	6.18735E-001	-2.90499E-002	-3.88625E-002	6.65727E-001	-4.32821E-002	-4.50737E-004	3.29225E-005	-4.25281E-003	-4.55796E-003	2.13998E-004	2.86284E-004	-4.90413E-003	3.18841E-004
	65	65	4.99272E-002	-7.19220E-003	0.00000E+000	-3.59086E-004	-7.02377E-002	3.65147E-002	3.25863E+001	11	...........	6.09408E-002	-4.42042E-003	5.77125E-001	6.18756E-001	-2.90375E-002	-3.88618E-002	6.65634E-001	-4.34418E-002	-4.38299E-004	3.17925E-005	-4.15080E-003	-4.45022E-003	2.08843E-004	2.79502E-004	-4.78737E-003	3.12442E-004
	66	66	4.99282E-002	-7.10688E-003	0.00000E+000	-3.54834E-004	-6.93897E-002	3.65672E-002	3.24387E+001	11	...........	6.10343E-002	-4.32153E-003	5.77207E-001	6.18822E-001	-2.90535E-002	-3.88392E-002	6.65758E-001	-4.33443E-002	-4.33763E-004	3.07126E-005	-4.10214E-003	-4.39790E-003	2.06480E-004	2.76025E-004	-4.73146E-003	3.08043E-004
	67	67	4.99278E-002	-7.04852E-003	0.00000E+000	-3.51917E-004	-6.88143E-002	3.65629E-002	3.29321E+001	11	...........	6.10060E-002	-4.40694E-003	5.77145E-001	6.18733E-001	-2.90586E-002	-3.88465E-002	6.65869E-001	-4.33826E-002	-4.30002E-004	3.10624E-005	-4.06801E-003	-4.36115E-003	2.04820E-004	2.73810E-004	-4.69339E-003	3.05783E-004
	68	68	4.99267E-002	-7.01287E-003	0.00000E+000	-3.50129E-004	-6.84603E-002	3.66430E-002	3.29156E+001	11	...........	6.11501E-002	-4.39111E-003	5.77147E-001	6.18590E-001	-2.90385E-002	-3.88506E-002	6.65890E-001	-4.33410E-002	-4.28838E-004	3.07943E-005	-4.04745E-003	-4.33809E-003	2.03643E-004	2.72454E-004	-4.66980E-003	3.03944E-004
	69	69	4.99290E-002	-6.93155E-003	0.00000E+000	-3.46086E-004	-6.76470E-002	3.66608E-002	3.29785E+001	11	...........	6.11799E-002	-4.31111E-003	5.77270E-001	6.18475E-001	-2.90315E-002	-3.88521E-002	6.65880E-001	-4.32017E-002	-4.24072E-004	2.98827E-005	-4.00138E-003	-4.28699E-003	2.01234E-004	2.69305E-004	-4.61558E-003	2.99455E-004
	70	70	4.99273E-002	-6.81580E-003	0.00000E+000	-3.40295E-004	-6.64887E-002	3.65086E-002	3.25157E+001	11	...........	6.09435E-002	-4.30347E-003	5.77328E-001	6.18431E-001	-2.90475E-002	-3.88764E-002	6.65756E-001	-4.31581E-002	-4.15379E-004	2.93316E-005	-3.93496E-003	-4.21510E-003	1.97982E-004	2.64974E-004	-4.53767E-003	2.94157E-004
	71	71	4.99288E-002	-6.79349E-003	0.00000E+000	-3.39191E-004	-6.62687E-002	3.66782E-002	3.35337E+001	11	...........	6.12162E-002	-4.22500E-003	5.77533E-001	6.18405E-001	-2.90396E-002	-3.88957E-002	6.65737E-001	-4.32261E-002	-4.15872E-004	2.87025E-005	-3.92347E-003	-4.20113E-003	1.97280E-004	2.64237E-004	-4.52267E-003	2.93656E-004
	72	72	4.99266E-002	-6.74508E-003	0.00000E+000	-3.36759E-004	-6.57860E-002	3.67323E-002	3.32341E+001	11	...........	6.13190E-002	-4.27528E-003	5.77421E-001	6.18610E-001	-2.90268E-002	-3.89046E-002	6.65716E-001	-4.32910E-002	-4.13601E-004	2.88371E-005	-3.89475E-003	-4.17257E-003	1.95788E-004	2.62414E-004	-4.49031E-003	2.92001E-004
	73	73	4.99274E-002	-6.60892E-003	0.00000E+000	-3.29966E-004	-6.44267E-002	3.65241E-002	3.26110E+001	11	...........	6.09411E-002	-4.32472E-003	5.77099E-001	6.18707E-001	-2.90342E-002	-3.89101E-002	6.65783E-001	-4.33196E-002	-4.02755E-004	2.85817E-005	-3.81400E-003	-4.08898E-003	1.91884E-004	2.57154E-004	-4.40010E-003	2.86296E-004
	74	74	4.99282E-002	-6.52734E-003	0.00000E+000	-3.25898E-004	-6.36167E-002	3.67667E-002	3.23681E+001	11	...........	6.13483E-002	-4.45014E-003	5.77227E-001	6.18679E-001	-2.89971E-002	-3.89082E-002	6.65823E-001	-4.32850E-002	-4.00441E-004	2.90476E-005	-3.76775E-003	-4.03833E-003	1.89274E-004	2.53967E-004	-4.34605E-003	2.82536E-004
	75	75	4.99280E-002	-6.47040E-003	0.00000E+000	-3.23054E-004	-6.30590E-002	3.66021E-002	3.27393E+001	11	...........	6.10790E-002	-4.34500E-003	5.77303E-001	6.18682E-001	-2.90001E-002	-3.89028E-002	6.65764E-001	-4.32458E-002	-3.95206E-004	2.81139E-005	-3.73539E-003	-4.00312E-003	1.87643E-004	2.51717E-004	-4.30776E-003	2.79818E-004
	76	76	4.99281E-002	-6.41060E-003	0.00000E+000	-3.20069E-004	-6.24823E-002	3.66356E-002	3.31546E+001	11	...........	6.11279E-002	-4.24931E-003	5.77384E-001	6.18364E-001	-2.89887E-002	-3.88929E-002	6.65612E-001	-4.32960E-002	-3.91866E-004	2.72406E-005	-3.70138E-003	-3.96408E-003	1.85835E-004	2.49327E-004	-4.26697E-003	2.77553E-004
	77	77	4.99274E-002	-6.34465E-003	0.00000E+000	-3.16772E-004	-6.18283E-002	3.66731E-002	3.33203E+001	11	...........	6.12119E-002	-4.22736E-003	5.77517E-001	6.18244E-001	-2.90158E-002	-3.88915E-002	6.65673E-001	-4.33331E-002	-3.88368E-004	2.68211E-005	-3.66414E-003	-3.92254E-003	1.84095E-004	2.46753E-004	-4.22346E-003	2.74933E-004
	78	78	4.99270E-002	-6.26902E-003	0.00000E+000	-3.12993E-004	-6.10717E-002	3.67417E-002	3.36300E+001	11	...........	6.13207E-002	-4.20167E-003	5.77416E-001	6.18221E-001	-2.90232E-002	-3.88790E-002	6.65701E-001	-4.32831E-002	-3.84421E-004	2.63404E-005	-3.61984E-003	-3.87564E-003	1.81947E-004	2.43734E-004	-4.17329E-003	2.71343E-004
	79	79	4.99276E-002	-6.15944E-003	0.00000E+000	-3.07526E-004	-5.99790E-002	3.66001E-002	3.18958E+001	11	...........	6.10817E-002	-4.13139E-003	5.77281E-001	6.18171E-001	-2.90269E-002	-3.88736E-002	6.65673E-001	-4.32686E-002	-3.76229E-004	2.54470E-005	-3.55573E-003	-3.80759E-003	1.78790E-004	2.39440E-004	-4.10017E-003	2.66510E-004
	80	80	4.99295E-002	-6.14055E-003	0.00000E+000	-3.06594E-004	-5.97917E-002	3.67532E-002	3.29014E+001	11	...........	6.13407E-002	-4.28875E-003	5.77065E-001	6.18116E-001	-2.90414E-002	-3.88544E-002	6.65669E-001	-4.33450E-002	-3.76665E-004	2.63353E-005	-3.54349E-003	-3.79557E-003	1.78330E-004	2.38587E-004	-4.08757E-003	2.66162E-004
	81	81	4.99280E-002	-6.09387E-003	0.00000E+000	-3.04255E-004	-5.93270E-002	3.66147E-002	3.35421E+001	11	...........	6.11165E-002	-4.34403E-003	5.76866E-001	6.18049E-001	-2.90299E-002	-3.88593E-002	6.65777E-001	-4.33878E-002	-3.72436E-004	2.64719E-005	-3.51535E-003	-3.76631E-003	1.76904E-004	2.36804E-004	-4.05716E-003	2.64399E-004
	82	82	4.99279E-002	-6.04852E-003	0.00000E+000	-3.01990E-004	-5.88780E-002	3.67477E-002	3.34876E+001	11	...........	6.13310E-002	-4.14931E-003	5.76997E-001	6.18138E-001	-2.90464E-002	-3.88690E-002	6.65799E-001	-4.33765E-002	-3.70962E-004	2.50972E-005	-3.48998E-003	-3.73882E-003	1.75688E-004	2.35100E-004	-4.02710E-003	2.62364E-004
	83	83	4.99278E-002	-5.97746E-003	0.00000E+000	-2.98441E-004	-5.81683E-002	3.67024E-002	3.32376E+001	11	...........	6.12532E-002	-4.13486E-003	5.77030E-001	6.18123E-001	-2.90243E-002	-3.88389E-002	6.65750E-001	-4.33690E-002	-3.66138E-004	2.47160E-005	-3.44917E-003	-3.69480E-003	1.73492E-004	2.32158E-004	-3.97949E-003	2.59236E-004
	84	84	4.99281E-002	-5.89997E-003	0.00000E+000	-2.94574E-004	-5.73880E-002	3.66862E-002	3.30291E+001	11	...........	6.12287E-002	-4.17111E-003	5.77073E-001	6.17966E-001	-2.90260E-002	-3.88308E-002	6.65721E-001	-4.33254E-002	-3.61248E-004	2.46094E-005	-3.40471E-003	-3.64598E-003	1.71252E-004	2.29101E-004	-3.92773E-003	2.55619E-004
	85	85	4.99282E-002	-5.84112E-003	0.00000E+000	-2.91636E-004	-5.68057E-002	3.66078E-002	3.31447E+001	11	...........	6.10953E-002	-4.08750E-003	5.77231E-001	6.17782E-001	-2.90433E-002	-3.88417E-002	6.65696E-001	-4.32733E-002	-3.56865E-004	2.38756E-005	-3.37168E-003	-3.60854E-003	1.69646E-004	2.26879E-004	-3.88841E-003	2.52765E-004
	86	86	4.99283E-002	-5.82865E-003	0.00000E+000	-2.91014E-004	-5.66837E-002	3.68262E-002	3.36209E+001	11	...........	6.14665E-002	-4.16792E-003	5.77133E-001	6.17743E-001	-2.90508E-002	-3.88385E-002	6.65881E-001	-4.32351E-002	-3.58267E-004	2.42933E-005	-3.36390E-003	-3.60061E-003	1.69327E-004	2.26376E-004	-3.88119E-003	2.52002E-004
	87	87	4.99273E-002	-5.75486E-003	0.00000E+000	-2.87325E-004	-5.59527E-002	3.66724E-002	3.32046E+001	11	...........	6.12035E-002	-4.10861E-003	5.77032E-001	6.17803E-001	-2.90617E-002	-3.88610E-002	6.65730E-001	-4.32514E-002	-3.52218E-004	2.36445E-005	-3.32074E-003	-3.55537E-003	1.67246E-004	2.23640E-004	-3.83118E-003	2.48906E-004
	88	88	4.99276E-002	-5.66124E-003	0.00000E+000	-2.82652E-004	-5.50173E-002	3.67388E-002	3.35142E+001	11	...........	6.13092E-002	-4.08472E-003	5.77075E-001	6.17908E-001	-2.90071E-002	-3.88568E-002	6.65700E-001	-4.32589E-002	-3.47086E-004	2.31246E-005	-3.26696E-003	-3.49813E-003	1.64216E-004	2.19978E-004	-3.76869E-003	2.44899E-004
	89	89	4.99282E-002	-5.60009E-003	0.00000E+000	-2.79602E-004	-5.44053E-002	3.66737E-002	3.25722E+001	11	...........	6.12042E-002	-4.06792E-003	5.77058E-001	6.18026E-001	-2.90065E-002	-3.88897E-002	6.65664E-001	-4.32517E-002	-3.42749E-004	2.27807E-005	-3.23157E-003	-3.46100E-003	1.62439E-004	2.17786E-004	-3.72778E-003	2.42213E-004
	90	90	4.99281E-002	-5.58429E-003	0.00000E+000	-2.78813E-004	-5.42470E-002	3.67868E-002	3.36120E+001	11	...........	6.13979E-002	-4.09333E-003	5.77056E-001	6.18063E-001	-2.90175E-002	-3.89028E-002	6.65703E-001	-4.33669E-002	-3.42864E-004	2.28584E-005	-3.22245E-003	-3.45145E-003	1.62042E-004	2.17244E-004	-3.71748E-003	2.42174E-004
	91	91	4.99281E-002	-5.53721E-003	0.00000E+000	-2.76462E-004	-5.37793E-002	3.67300E-002	3.32506E+001	11	...........	6.13106E-002	-4.21667E-003	5.77029E-001	6.18134E-001	-2.89929E-002	-3.89025E-002	6.65756E-001	-4.32482E-002	-3.39489E-004	2.33485E-005	-3.19513E-003	-3.42274E-003	1.60540E-004	2.15411E-004	-3.68643E-003	2.39474E-004
	92	92	4.99280E-002	-5.45779E-003	0.00000E+000	-2.72497E-004	-5.29900E-002	3.67315E-002	3.36073E+001	11	...........	6.13033E-002	-4.32875E-003	5.76979E-001	6.18047E-001	-2.90000E-002	-3.88806E-002	6.65673E-001	-4.32746E-002	-3.34581E-004	2.36254E-005	-3.14903E-003	-3.37317E-003	1.58276E-004	2.12202E-004	-3.63310E-003	2.36184E-004
	93	93	4.99280E-002	-5.38887E-003	0.00000E+000	-2.69055E-004	-5.23050E-002	3.67607E-002	3.28682E+001	11	...........	6.13590E-002	-4.36972E-003	5.77098E-001	6.18095E-001	-2.90076E-002	-3.88683E-002	6.65806E-001	-4.32319E-002	-3.30656E-004	2.35479E-005	-3.10991E-003	-3.33083E-003	1.56318E-004	2.09456E-004	-3.58794E-003	2.32971E-004
	94	94	4.99281E-002	-5.31676E-003	0.00000E+000	-2.65456E-004	-5.15837E-002	3.65745E-002	3.28475E+001	11	...........	6.10321E-002	-4.26208E-003	5.77233E-001	6.18076E-001	-2.89751E-002	-3.88664E-002	6.65696E-001	-4.32431E-002	-3.24493E-004	2.26605E-005	-3.06901E-003	-3.28616E-003	1.54054E-004	2.06643E-004	-3.53935E-003	2.29913E-004
	95	95	4.99285E-002	-5.32978E-003	0.00000E+000	-2.66108E-004	-5.17183E-002	3.68997E-002	3.38020E+001	11	...........	6.15869E-002	-4.38472E-003	5.77330E-001	6.18063E-001	-2.89872E-002	-3.88642E-002	6.65592E-001	-4.31717E-002	-3.28245E-004	2.33696E-005	-3.07704E-003	-3.29414E-003	1.54496E-004	2.07137E-004	-3.54746E-003	2.30095E-004
	96	96	4.99270E-002	-5.27225E-003	0.00000E+000	-2.63228E-004	-5.11513E-002	3.67097E-002	3.32206E+001	11	...........	6.13529E-002	-4.24528E-003	5.77399E-001	6.18056E-001	-2.90261E-002	-3.88757E-002	6.65685E-001	-4.31372E-002	-3.23468E-004	2.23822E-005	-3.04419E-003	-3.25854E-003	1.53033E-004	2.04962E-004	-3.50966E-003	2.27430E-004
	97	97	4.99290E-002	-5.21481E-003	0.00000E+000	-2.60370E-004	-5.05917E-002	3.67468E-002	3.34134E+001	11	...........	6.13281E-002	-4.27569E-003	5.77366E-001	6.18113E-001	-2.90281E-002	-3.89015E-002	6.65711E-001	-4.31415E-002	-3.19814E-004	2.22969E-005	-3.01086E-003	-3.22334E-003	1.51376E-004	2.02864E-004	-3.47155E-003	2.24975E-004
	98	98	4.99273E-002	-5.16685E-003	0.00000E+000	-2.57967E-004	-5.01147E-002	3.67678E-002	3.36180E+001	11	...........	6.13599E-002	-4.29500E-003	5.77478E-001	6.18142E-001	-2.90471E-002	-3.89093E-002	6.65806E-001	-4.30574E-002	-3.17037E-004	2.21916E-005	-2.98374E-003	-3.19385E-003	1.50082E-004	2.01039E-004	-3.44012E-003	2.22471E-004
	99	99	4.99287E-002	-5.10194E-003	0.00000E+000	-2.54734E-004	-4.94700E-002	3.67336E-002	3.25931E+001	11	...........	6.13036E-002	-4.38542E-003	5.77456E-001	6.18037E-001	-2.90317E-002	-3.88774E-002	6.65800E-001	-4.31307E-002	-3.12768E-004	2.23741E-005	-2.94615E-003	-3.15319E-003	1.48118E-004	1.98350E-004	-3.39687E-003	2.20050E-004
	100	100	4.99284E-002	-5.07709E-003	0.00000E+000	-2.53491E-004	-4.92210E-002	3.67779E-002	3.35824E+001	11	...........	6.13814E-002	-4.31500E-003	5.77361E-001	6.17896E-001	-2.90442E-002	-3.88800E-002	6.65767E-001	-4.31682E-002	-3.11639E-004	2.19076E-005	-2.93131E-003	-3.13711E-003	1.47460E-004	1.97397E-004	-3.38016E-003	2.19169E-004
	101	100.747	4.99281E-002	-5.06297E-003	0.00000E+000	-2.52784E-004	-4.90808E-002	3.68911E-002	3.33013E+001	11	...........	6.15662E-002	-4.38225E-003	5.77287E-001	6.18018E-001	-2.90383E-002	-3.88824E-002	6.65792E-001	-4.31536E-002	-3.11708E-004	2.21872E-005	-2.92279E-003	-3.12901E-003	1.47020E-004	1.96861E-004	-3.37089E-003	2.18486E-004
STARTTIMEOFFSET	QUANT	810650.7	Start Time Offset (s)
