EXPLAIN
TAG	PWR800_DISCHARGE
TITLE	LABEL	PWR Discharge	Test Identifier
DATE	LABEL	10/18/2022	Date
TIME	LABEL	9:58:05	Time
NOTES	NOTES	1	Notes...
	
PSTAT	PSTAT	REF3000-21114	Potentiostat
CAPACITY	QUANT	5.30000E-002	Capacity (A-hr)
CELLTYPE	SELECTOR	1	Cell Type
WORKINGCONNECTION	SELECTOR	0	Working Connection
MAXDISCHARGETIME	VARIABLEANDUNITS	7.20000E+003	s	2.00000E+000	hour(s)	Max Discharge Time
DISCHARGEMODE	MULTIPARAM	0	1.00000E-001	Discharge Mode	Constant Current	Amp(s)
VOLTAGEFINISH	TWOPARAM	T	5.00000E-003	7.20000E+003	Voltage Finish	I (A) <	Max Time(s)
SAMPLETIME	QUANT	1.00000E+000	Sample Period (s)
DISCHARGESTOPAT1	MULTIPARAM	1	5.00000E-002	Stop At 1	|Voltage| < Limit	V
DISCHARGESTOPAT2	MULTIPARAM	0	0.00000E+000	Stop At 2	None	N/A
AESELECTOR	AESELECTOR	0x1	T	Set Limits	AE Channels
AESBHCSELECTOR	TOGGLE	F	Save Both Half Cells
IRCOMP	TOGGLE	F	IR Measure
EOC	QUANT	0.5054874	Open Circuit (V)
SEQUENCER	TOGGLE	TRUE	Run as Sequence
PSTATMODEL	IQUANT	5	Pstat Model
PSTATSECTION	LABEL	REF3000-21114	Pstat Section
PSTATSERIALNO	LABEL	21114	Pstat Serial Number
CTRLMODE	IQUANT	0	Control Mode
ELECTROMETER	IQUANT	0	RE=0 or CS=1
IESTAB	IQUANT	0	I/E Stability
CASPEED	IQUANT	4	Control Amp Speed
CONVENTION	IQUANT	1	Current Convention
ICHRANGE	IQUANT	2	Ich Range
ICHRANGEMODE	TOGGLE	T	Ich Auto Range
ICHOFFSETENABLE	TOGGLE	F	Ich Offset Enable
ICHOFFSET	QUANT	0	Ich Offset (V)
ICHFILTER	IQUANT	1	Ich Filter
VCHRANGE	IQUANT	3	Vch Range
VCHRANGEMODE	TOGGLE	T	Vch Auto Range
VCHOFFSETENABLE	TOGGLE	F	Vch Offset Enable
VCHOFFSET	QUANT	0	Vch Offset (V)
VCHFILTER	IQUANT	1	Vch Filter
ACHRANGE	IQUANT	2	Ach Range
ACHOFFSETENABLE	TOGGLE	F	Ach Offset Enable
ACHOFFSET	QUANT	0	Ach Offset (V)
ACHFILTER	IQUANT	1	Ach Filter
IERANGELOWERLIMIT	IQUANT	9	I/E Range Lower Limit
IERANGEMODE	TOGGLE	F	I/E AutoRange
IERANGE	IQUANT	9	I/E Range
POSFEEDENABLE	TOGGLE	F	Positive Feedback IR Comp
POSFEEDRESISTANCE	QUANT	0	Positive Feedback Resistance (ohm)
ACHSELECT	IQUANT	1	Ach Select
SENSECABLEID	IQUANT	13	Sense Cable ID
PWRCABLEID	IQUANT	13	Power Cable ID
DCCALDATE	LABEL		DC Calibration Date
ACCALDATE	LABEL		AC Calibration Date
THERMOSELECT	IQUANT	1	Thermo Select
FRAMEWORKVERSION	LABEL	7.8.6	Framework Version
INSTRUMENTVERSION	LABEL	4.50	Instrument Version
COMPLIANCEVOLTAGE	IQUANT	0	Compliance Voltage
CURVE	TABLE	46
	Pt	T	Vf	Im	Vu	Pwr	Sig	Ach	Temp	IERange	Over	Vf1	Vf2	Vf3	Vf4	Vf5	Vf6	Vf7	Vf8	Pwr1	Pwr2	Pwr3	Pwr4	Pwr5	Pwr6	Pwr7	Pwr8
	#	s	V	A	V	W	V	V	deg C	#	bits	V	V	V	V	V	V	V	V	W	W	W	W	W	W	W	W
	0	1	2.61576E-001	-1.00104E-001	0.00000E+000	-2.61847E-002	-9.94000E-001	3.49258E-002	2.85865E+001	11	...........	5.78586E-002	-4.92458E-003	6.04676E-001	5.29734E-001	-2.68622E-002	-3.80779E-002	7.04190E-001	-4.38807E-002	-5.79186E-003	4.92969E-004	-6.05302E-002	-5.30283E-002	2.68901E-003	3.81174E-003	-7.04920E-002	4.39262E-003
	1	2	1.61380E-001	-1.00104E-001	0.00000E+000	-1.61548E-002	-9.94000E-001	3.49379E-002	2.78296E+001	11	...........	5.78847E-002	-4.93389E-003	6.04509E-001	5.30008E-001	-2.68746E-002	-3.80557E-002	7.04260E-001	-4.38835E-002	-5.79449E-003	4.93902E-004	-6.05137E-002	-5.30559E-002	2.69025E-003	3.80953E-003	-7.04993E-002	4.39291E-003
	2	2.78333	8.21299E-002	-1.00104E-001	0.00000E+000	-8.22154E-003	-9.94000E-001	3.48168E-002	2.72520E+001	11	...........	5.76920E-002	-5.04486E-003	6.04423E-001	5.30010E-001	-2.68941E-002	-3.80477E-002	7.04371E-001	-4.38895E-002	-5.77521E-003	5.05011E-004	-6.05052E-002	-5.30562E-002	2.69221E-003	3.80873E-003	-7.05105E-002	4.39352E-003
	3	3	4.91322E-002	-9.35456E-002	0.00000E+000	-4.59610E-003	-9.28782E-001	3.49604E-002	2.71727E+001	11	...........	5.79282E-002	-5.12949E-003	6.04285E-001	5.30048E-001	-2.68577E-002	-3.80865E-002	7.04428E-001	-4.39141E-002	-5.41893E-003	4.79841E-004	-5.65282E-002	-4.95837E-002	2.51242E-003	3.56283E-003	-6.58961E-002	4.10797E-003
	4	4	4.94765E-002	-6.86647E-002	0.00000E+000	-3.39729E-003	-6.81410E-001	3.51126E-002	2.81168E+001	11	...........	5.81507E-002	-5.26306E-003	6.04363E-001	5.29991E-001	-2.68947E-002	-3.80737E-002	7.04449E-001	-4.38183E-002	-3.99290E-003	3.61386E-004	-4.14984E-002	-3.63916E-002	1.84672E-003	2.61432E-003	-4.83707E-002	3.00877E-003
	5	5	4.97121E-002	-4.55681E-002	0.00000E+000	-2.26529E-003	-4.51787E-001	3.51541E-002	2.98950E+001	11	...........	5.82049E-002	-5.28361E-003	6.04397E-001	5.29970E-001	-2.69011E-002	-3.80574E-002	7.04355E-001	-4.36542E-002	-2.65229E-003	2.40764E-004	-2.75412E-002	-2.41497E-002	1.22583E-003	1.73420E-003	-3.20961E-002	1.98924E-003
	6	6	4.98014E-002	-3.31358E-002	0.00000E+000	-1.65021E-003	-3.28185E-001	3.52001E-002	2.94660E+001	11	...........	5.82862E-002	-5.23861E-003	6.04328E-001	5.30105E-001	-2.68864E-002	-3.80499E-002	7.04332E-001	-4.37782E-002	-1.93136E-003	1.73585E-004	-2.00249E-002	-1.75654E-002	8.90901E-004	1.26081E-003	-2.33386E-002	1.45062E-003
	7	7	4.98558E-002	-2.57562E-002	0.00000E+000	-1.28410E-003	-2.54817E-001	3.52351E-002	3.02327E+001	11	...........	5.83519E-002	-5.21444E-003	6.04304E-001	5.30125E-001	-2.68932E-002	-3.80419E-002	7.04360E-001	-4.38897E-002	-1.50293E-003	1.34305E-004	-1.55646E-002	-1.36540E-002	6.92668E-004	9.79818E-004	-1.81417E-002	1.13043E-003
	8	8	4.98774E-002	-2.08737E-002	0.00000E+000	-1.04112E-003	-2.06268E-001	3.52619E-002	3.06775E+001	11	...........	5.83861E-002	-5.19958E-003	6.04458E-001	5.30053E-001	-2.68962E-002	-3.80135E-002	7.04427E-001	-4.39050E-002	-1.21873E-003	1.08534E-004	-1.26172E-002	-1.10642E-002	5.61423E-004	7.93480E-004	-1.47040E-002	9.16458E-004
	9	9	4.98931E-002	-1.75438E-002	0.00000E+000	-8.75315E-004	-1.73156E-001	3.53662E-002	3.06154E+001	11	...........	5.85565E-002	-5.10208E-003	6.04650E-001	5.29993E-001	-2.69085E-002	-3.79944E-002	7.04491E-001	-4.38487E-002	-1.02731E-003	8.95100E-005	-1.06079E-002	-9.29810E-003	4.72077E-004	6.66568E-004	-1.23595E-002	7.69274E-004
	10	10	4.99091E-002	-1.52215E-002	0.00000E+000	-7.59691E-004	-1.50055E-001	3.53127E-002	3.10798E+001	11	...........	5.84536E-002	-5.12514E-003	6.04550E-001	5.29962E-001	-2.69092E-002	-3.79790E-002	7.04444E-001	-4.38526E-002	-8.89751E-004	7.80122E-005	-9.20216E-003	-8.06682E-003	4.09598E-004	5.78097E-004	-1.07227E-002	6.67503E-004
	11	11	4.99129E-002	-1.35282E-002	0.00000E+000	-6.75234E-004	-1.33219E-001	3.53418E-002	3.14158E+001	11	...........	5.84918E-002	-5.20444E-003	6.04691E-001	5.29894E-001	-2.69379E-002	-3.79869E-002	7.04303E-001	-4.38747E-002	-7.91291E-004	7.04069E-005	-8.18040E-003	-7.16852E-003	3.64422E-004	5.13896E-004	-9.52798E-003	5.93547E-004
	12	12	4.99173E-002	-1.22084E-002	0.00000E+000	-6.09410E-004	-1.20087E-001	3.53642E-002	3.09930E+001	11	...........	5.85422E-002	-5.17319E-003	6.04677E-001	5.29939E-001	-2.69336E-002	-3.79819E-002	7.04320E-001	-4.38801E-002	-7.14707E-004	6.31564E-005	-7.38213E-003	-6.46971E-003	3.28816E-004	4.63699E-004	-8.59862E-003	5.35706E-004
	13	13	4.99224E-002	-1.12483E-002	0.00000E+000	-5.61542E-004	-1.10548E-001	3.54173E-002	3.16145E+001	11	...........	5.86582E-002	-5.19236E-003	6.04545E-001	5.29942E-001	-2.69228E-002	-3.79896E-002	7.04437E-001	-4.38328E-002	-6.59806E-004	5.84053E-005	-6.80011E-003	-5.96095E-003	3.02836E-004	4.27319E-004	-7.92373E-003	4.93045E-004
	14	14	4.99228E-002	-1.04698E-002	0.00000E+000	-5.22680E-004	-1.02814E-001	3.53635E-002	3.17123E+001	11	...........	5.85533E-002	-5.28056E-003	6.04453E-001	5.30057E-001	-2.69285E-002	-3.79771E-002	7.04465E-001	-4.38599E-002	-6.13041E-004	5.52863E-005	-6.32849E-003	-5.54958E-003	2.81935E-004	3.97612E-004	-7.37559E-003	4.59203E-004
	15	15	4.99268E-002	-9.82540E-003	0.00000E+000	-4.90551E-004	-9.64207E-002	3.54232E-002	3.11624E+001	11	...........	5.86544E-002	-5.26958E-003	6.04381E-001	5.30024E-001	-2.69156E-002	-3.80119E-002	7.04422E-001	-4.38435E-002	-5.76303E-004	5.17758E-005	-5.93829E-003	-5.20769E-003	2.64456E-004	3.73482E-004	-6.92123E-003	4.30780E-004
	16	16	4.99283E-002	-9.33611E-003	0.00000E+000	-4.66136E-004	-9.15400E-002	3.54004E-002	3.15304E+001	11	...........	5.86244E-002	-5.21736E-003	6.04525E-001	5.29818E-001	-2.69144E-002	-3.80269E-002	7.04404E-001	-4.38106E-002	-5.47324E-004	4.87099E-005	-5.64391E-003	-4.94644E-003	2.51276E-004	3.55024E-004	-6.57639E-003	4.09020E-004
	17	17	4.99289E-002	-8.92792E-003	0.00000E+000	-4.45761E-004	-8.74980E-002	3.54534E-002	3.15405E+001	11	...........	5.87026E-002	-5.18083E-003	6.04552E-001	5.29846E-001	-2.69142E-002	-3.80076E-002	7.04392E-001	-4.38626E-002	-5.24092E-004	4.62541E-005	-5.39739E-003	-4.73042E-003	2.40288E-004	3.39329E-004	-6.28875E-003	3.91602E-004
	18	18	4.99281E-002	-8.53166E-003	0.00000E+000	-4.25969E-004	-8.35607E-002	3.54358E-002	3.15276E+001	11	...........	5.86714E-002	-5.17222E-003	6.04631E-001	5.29890E-001	-2.68874E-002	-3.80029E-002	7.04399E-001	-4.39096E-002	-5.00564E-004	4.41276E-005	-5.15851E-003	-4.52084E-003	2.29394E-004	3.24228E-004	-6.00969E-003	3.74622E-004
	19	19	4.99305E-002	-8.25634E-003	0.00000E+000	-4.12243E-004	-8.08160E-002	3.55130E-002	3.18064E+001	11	...........	5.88071E-002	-5.20264E-003	6.04697E-001	5.29961E-001	-2.69037E-002	-3.80200E-002	7.04506E-001	-4.38819E-002	-4.85531E-004	4.29547E-005	-4.99258E-003	-4.37554E-003	2.22126E-004	3.13906E-004	-5.81664E-003	3.62304E-004
	20	20	4.99302E-002	-7.98234E-003	0.00000E+000	-3.98559E-004	-7.80880E-002	3.53560E-002	3.20745E+001	11	...........	5.87522E-002	-5.22458E-003	6.04713E-001	5.29791E-001	-2.68918E-002	-3.80158E-002	7.04629E-001	-4.39379E-002	-4.68980E-004	4.17044E-005	-4.82702E-003	-4.22897E-003	2.14659E-004	3.03455E-004	-5.62458E-003	3.50727E-004
	21	21	4.99300E-002	-7.73574E-003	0.00000E+000	-3.86245E-004	-7.56493E-002	3.52922E-002	3.14054E+001	11	...........	5.87679E-002	-5.27597E-003	6.04809E-001	5.29776E-001	-2.68983E-002	-3.80350E-002	7.04716E-001	-4.38969E-002	-4.54613E-004	4.08135E-005	-4.67864E-003	-4.09821E-003	2.08078E-004	2.94229E-004	-5.45150E-003	3.39575E-004
	22	22	4.99313E-002	-7.52316E-003	0.00000E+000	-3.75641E-004	-7.35253E-002	3.52907E-002	3.14740E+001	11	...........	5.87929E-002	-5.23403E-003	6.04841E-001	5.29756E-001	-2.69111E-002	-3.80587E-002	7.04749E-001	-4.39340E-002	-4.42308E-004	3.93764E-005	-4.55032E-003	-3.98544E-003	2.02457E-004	2.86322E-004	-5.30194E-003	3.30523E-004
	23	23	4.99318E-002	-7.35546E-003	0.00000E+000	-3.67272E-004	-7.18527E-002	3.53344E-002	3.20136E+001	11	...........	5.88604E-002	-5.18653E-003	6.04986E-001	5.29823E-001	-2.69297E-002	-3.80799E-002	7.04665E-001	-4.38761E-002	-4.32946E-004	3.81493E-005	-4.44995E-003	-3.89709E-003	1.98081E-004	2.80095E-004	-5.18314E-003	3.22729E-004
	24	24	4.99310E-002	-7.17793E-003	0.00000E+000	-3.58401E-004	-7.00847E-002	3.53083E-002	3.22257E+001	11	...........	5.88253E-002	-5.20806E-003	6.05105E-001	5.29882E-001	-2.69428E-002	-3.80732E-002	7.04682E-001	-4.37381E-002	-4.22243E-004	3.73830E-005	-4.34340E-003	-3.80345E-003	1.93393E-004	2.73287E-004	-5.05816E-003	3.13949E-004
	25	25	4.99312E-002	-7.01355E-003	0.00000E+000	-3.50195E-004	-6.84473E-002	3.53862E-002	3.20688E+001	11	...........	5.89375E-002	-5.24722E-003	6.05090E-001	5.29864E-001	-2.69547E-002	-3.80758E-002	7.04511E-001	-4.37494E-002	-4.13361E-004	3.68016E-005	-4.24383E-003	-3.71623E-003	1.89048E-004	2.67047E-004	-4.94112E-003	3.06839E-004
	26	26	4.99322E-002	-6.84725E-003	0.00000E+000	-3.41898E-004	-6.67880E-002	3.53082E-002	3.19917E+001	11	...........	5.88275E-002	-5.23361E-003	6.04982E-001	5.29992E-001	-2.69558E-002	-3.81007E-002	7.04436E-001	-4.38347E-002	-4.02807E-004	3.58358E-005	-4.14247E-003	-3.62899E-003	1.84573E-004	2.60885E-004	-4.82345E-003	3.00147E-004
	27	27	4.99323E-002	-6.70629E-003	0.00000E+000	-3.34860E-004	-6.53813E-002	3.53554E-002	3.19040E+001	11	...........	5.88808E-002	-5.18236E-003	6.04864E-001	5.30049E-001	-2.69639E-002	-3.81089E-002	7.04619E-001	-4.38489E-002	-3.94872E-004	3.47544E-005	-4.05639E-003	-3.55466E-003	1.80828E-004	2.55569E-004	-4.72537E-003	2.94063E-004
	28	28	4.99320E-002	-6.59018E-003	0.00000E+000	-3.29061E-004	-6.42240E-002	3.53607E-002	3.22866E+001	11	...........	5.89100E-002	-5.19528E-003	6.04683E-001	5.29827E-001	-2.69590E-002	-3.81269E-002	7.04457E-001	-4.38544E-002	-3.88227E-004	3.42378E-005	-3.98497E-003	-3.49166E-003	1.77665E-004	2.51263E-004	-4.64249E-003	2.89009E-004
	29	29	4.99311E-002	-6.47171E-003	0.00000E+000	-3.23140E-004	-6.30533E-002	3.54151E-002	3.21578E+001	11	...........	5.90021E-002	-5.21861E-003	6.04545E-001	5.29686E-001	-2.69540E-002	-3.81211E-002	7.04513E-001	-4.38537E-002	-3.81844E-004	3.37733E-005	-3.91244E-003	-3.42798E-003	1.74439E-004	2.46709E-004	-4.55941E-003	2.83809E-004
	30	30	4.99329E-002	-6.34836E-003	0.00000E+000	-3.16992E-004	-6.18453E-002	3.53858E-002	3.21672E+001	11	...........	5.89471E-002	-5.18125E-003	6.04594E-001	5.29499E-001	-2.69379E-002	-3.81047E-002	7.04634E-001	-4.37854E-002	-3.74218E-004	3.28925E-005	-3.83818E-003	-3.36145E-003	1.71012E-004	2.41903E-004	-4.47327E-003	2.77966E-004
	31	31	4.99322E-002	-6.23701E-003	0.00000E+000	-3.11428E-004	-6.07360E-002	3.53855E-002	3.21193E+001	11	...........	5.89439E-002	-5.26208E-003	6.04740E-001	5.29394E-001	-2.69556E-002	-3.81064E-002	7.04657E-001	-4.37872E-002	-3.67634E-004	3.28197E-005	-3.77177E-003	-3.30183E-003	1.68122E-004	2.37670E-004	-4.39495E-003	2.73101E-004
	32	32	4.99320E-002	-6.12465E-003	0.00000E+000	-3.05816E-004	-5.96180E-002	3.53738E-002	3.20926E+001	11	...........	5.89299E-002	-5.31097E-003	6.04796E-001	5.29425E-001	-2.69683E-002	-3.80815E-002	7.04625E-001	-4.37994E-002	-3.60925E-004	3.25278E-005	-3.70416E-003	-3.24254E-003	1.65171E-004	2.33236E-004	-4.31558E-003	2.68256E-004
	33	33	4.99319E-002	-6.02191E-003	0.00000E+000	-3.00686E-004	-5.85940E-002	3.54642E-002	3.20259E+001	11	...........	5.90665E-002	-5.23056E-003	6.04775E-001	5.29508E-001	-2.69933E-002	-3.80758E-002	7.04676E-001	-4.37551E-002	-3.55693E-004	3.14980E-005	-3.64190E-003	-3.18865E-003	1.62551E-004	2.29289E-004	-4.24350E-003	2.63490E-004
	34	34	4.99330E-002	-5.92777E-003	0.00000E+000	-2.95991E-004	-5.76567E-002	3.54348E-002	3.21808E+001	11	...........	5.90372E-002	-5.24556E-003	6.04861E-001	5.29596E-001	-2.69946E-002	-3.80415E-002	7.04731E-001	-4.38210E-002	-3.49959E-004	3.10944E-005	-3.58548E-003	-3.13932E-003	1.60018E-004	2.25501E-004	-4.17748E-003	2.59761E-004
	35	35	4.99327E-002	-5.84302E-003	0.00000E+000	-2.91758E-004	-5.68127E-002	3.54477E-002	3.23679E+001	11	...........	5.90554E-002	-5.26653E-003	6.04756E-001	5.29715E-001	-2.70104E-002	-3.80096E-002	7.04703E-001	-4.38640E-002	-3.45062E-004	3.07724E-005	-3.53360E-003	-3.09513E-003	1.57822E-004	2.22091E-004	-4.11759E-003	2.56298E-004
	36	36	4.99311E-002	-5.70882E-003	0.00000E+000	-2.85048E-004	-5.54773E-002	3.53193E-002	3.23670E+001	11	...........	5.89543E-002	-5.24486E-003	6.04845E-001	5.29935E-001	-2.70210E-002	-3.80019E-002	7.04743E-001	-4.37647E-002	-3.36560E-004	2.99420E-005	-3.45295E-003	-3.02530E-003	1.54258E-004	2.16946E-004	-4.02325E-003	2.49845E-004
	37	37	4.99329E-002	-5.59617E-003	0.00000E+000	-2.79433E-004	-5.43527E-002	3.54808E-002	3.10387E+001	11	...........	5.91107E-002	-5.29167E-003	6.04841E-001	5.29849E-001	-2.70043E-002	-3.79807E-002	7.04718E-001	-4.37983E-002	-3.30793E-004	2.96131E-005	-3.38479E-003	-2.96512E-003	1.51121E-004	2.12546E-004	-3.94372E-003	2.45103E-004
	38	38	4.99329E-002	-5.54022E-003	0.00000E+000	-2.76640E-004	-5.37960E-002	3.54342E-002	3.18066E+001	11	...........	5.90218E-002	-5.25014E-003	6.04828E-001	5.29823E-001	-2.70399E-002	-3.79808E-002	7.04633E-001	-4.38196E-002	-3.26994E-004	2.90869E-005	-3.35088E-003	-2.93534E-003	1.49807E-004	2.10422E-004	-3.90382E-003	2.42770E-004
	39	39	4.99336E-002	-5.50569E-003	0.00000E+000	-2.74919E-004	-5.34553E-002	3.56097E-002	3.19756E+001	11	...........	5.93161E-002	-5.28264E-003	6.04993E-001	5.29723E-001	-2.70246E-002	-3.79707E-002	7.04549E-001	-4.38214E-002	-3.26576E-004	2.90846E-005	-3.33091E-003	-2.91649E-003	1.48789E-004	2.09055E-004	-3.87903E-003	2.41267E-004
	40	40	4.99322E-002	-5.38894E-003	0.00000E+000	-2.69082E-004	-5.22907E-002	3.54466E-002	3.19794E+001	11	...........	5.90639E-002	-5.24417E-003	6.05015E-001	5.29811E-001	-2.70140E-002	-3.79728E-002	7.04475E-001	-4.38858E-002	-3.18292E-004	2.82605E-005	-3.26039E-003	-2.85512E-003	1.45577E-004	2.04633E-004	-3.79637E-003	2.36498E-004
	41	41	4.99328E-002	-5.31890E-003	0.00000E+000	-2.65587E-004	-5.15960E-002	3.55418E-002	3.21040E+001	11	...........	5.92039E-002	-5.18306E-003	6.05071E-001	5.29708E-001	-2.70067E-002	-3.79674E-002	7.04446E-001	-4.39069E-002	-3.14899E-004	2.75681E-005	-3.21831E-003	-2.81746E-003	1.43646E-004	2.01944E-004	-3.74688E-003	2.33536E-004
	42	42	4.99325E-002	-5.23742E-003	0.00000E+000	-2.61518E-004	-5.08013E-002	3.55738E-002	3.17068E+001	11	...........	5.92667E-002	-5.19181E-003	6.05030E-001	5.29563E-001	-2.69985E-002	-3.79712E-002	7.04470E-001	-4.39767E-002	-3.10404E-004	2.71917E-005	-3.16879E-003	-2.77354E-003	1.41402E-004	1.98871E-004	-3.68961E-003	2.30324E-004
	43	43	4.99332E-002	-5.17996E-003	0.00000E+000	-2.58652E-004	-5.02327E-002	3.54364E-002	3.19510E+001	11	...........	5.90467E-002	-5.25778E-003	6.05109E-001	5.29600E-001	-2.69881E-002	-3.79710E-002	7.04537E-001	-4.40022E-002	-3.05859E-004	2.72351E-005	-3.13444E-003	-2.74330E-003	1.39797E-004	1.96688E-004	-3.64947E-003	2.27930E-004
	44	44	4.99330E-002	-5.12593E-003	0.00000E+000	-2.55953E-004	-4.96920E-002	3.55531E-002	3.22504E+001	11	...........	5.92267E-002	-5.19278E-003	6.05037E-001	5.29799E-001	-2.70172E-002	-3.79801E-002	7.04645E-001	-4.39207E-002	-3.03592E-004	2.66178E-005	-3.10138E-003	-2.71572E-003	1.38489E-004	1.94684E-004	-3.61196E-003	2.25135E-004
	45	44.7983	4.99322E-002	-5.07500E-003	0.00000E+000	-2.53406E-004	-4.91866E-002	3.55883E-002	3.21421E+001	11	...........	5.92827E-002	-5.22025E-003	6.05033E-001	5.29733E-001	-2.69715E-002	-3.79788E-002	7.04656E-001	-4.39591E-002	-3.00860E-004	2.64928E-005	-3.07054E-003	-2.68839E-003	1.36880E-004	1.92742E-004	-3.57613E-003	2.23093E-004
STARTTIMEOFFSET	QUANT	999964	Start Time Offset (s)
