EXPLAIN
TAG	PWR800_DISCHARGE
TITLE	LABEL	PWR Discharge	Test Identifier
DATE	LABEL	10/13/2022	Date
TIME	LABEL	21:04:22	Time
NOTES	NOTES	1	Notes...
	
PSTAT	PSTAT	REF3000-21114	Potentiostat
CAPACITY	QUANT	5.30000E-002	Capacity (A-hr)
CELLTYPE	SELECTOR	1	Cell Type
WORKINGCONNECTION	SELECTOR	0	Working Connection
MAXDISCHARGETIME	VARIABLEANDUNITS	7.20000E+003	s	2.00000E+000	hour(s)	Max Discharge Time
DISCHARGEMODE	MULTIPARAM	0	1.00000E-001	Discharge Mode	Constant Current	Amp(s)
VOLTAGEFINISH	TWOPARAM	T	5.00000E-003	7.20000E+003	Voltage Finish	I (A) <	Max Time(s)
SAMPLETIME	QUANT	1.00000E+000	Sample Period (s)
DISCHARGESTOPAT1	MULTIPARAM	1	5.00000E-002	Stop At 1	|Voltage| < Limit	V
DISCHARGESTOPAT2	MULTIPARAM	0	0.00000E+000	Stop At 2	None	N/A
AESELECTOR	AESELECTOR	0x1	T	Set Limits	AE Channels
AESBHCSELECTOR	TOGGLE	F	Save Both Half Cells
IRCOMP	TOGGLE	F	IR Measure
EOC	QUANT	0.5734296	Open Circuit (V)
SEQUENCER	TOGGLE	TRUE	Run as Sequence
PSTATMODEL	IQUANT	5	Pstat Model
PSTATSECTION	LABEL	REF3000-21114	Pstat Section
PSTATSERIALNO	LABEL	21114	Pstat Serial Number
CTRLMODE	IQUANT	0	Control Mode
ELECTROMETER	IQUANT	0	RE=0 or CS=1
IESTAB	IQUANT	0	I/E Stability
CASPEED	IQUANT	4	Control Amp Speed
CONVENTION	IQUANT	1	Current Convention
ICHRANGE	IQUANT	2	Ich Range
ICHRANGEMODE	TOGGLE	T	Ich Auto Range
ICHOFFSETENABLE	TOGGLE	F	Ich Offset Enable
ICHOFFSET	QUANT	0	Ich Offset (V)
ICHFILTER	IQUANT	1	Ich Filter
VCHRANGE	IQUANT	3	Vch Range
VCHRANGEMODE	TOGGLE	T	Vch Auto Range
VCHOFFSETENABLE	TOGGLE	F	Vch Offset Enable
VCHOFFSET	QUANT	0	Vch Offset (V)
VCHFILTER	IQUANT	1	Vch Filter
ACHRANGE	IQUANT	2	Ach Range
ACHOFFSETENABLE	TOGGLE	F	Ach Offset Enable
ACHOFFSET	QUANT	0	Ach Offset (V)
ACHFILTER	IQUANT	1	Ach Filter
IERANGELOWERLIMIT	IQUANT	9	I/E Range Lower Limit
IERANGEMODE	TOGGLE	F	I/E AutoRange
IERANGE	IQUANT	9	I/E Range
POSFEEDENABLE	TOGGLE	F	Positive Feedback IR Comp
POSFEEDRESISTANCE	QUANT	0	Positive Feedback Resistance (ohm)
ACHSELECT	IQUANT	1	Ach Select
SENSECABLEID	IQUANT	13	Sense Cable ID
PWRCABLEID	IQUANT	13	Power Cable ID
DCCALDATE	LABEL		DC Calibration Date
ACCALDATE	LABEL		AC Calibration Date
THERMOSELECT	IQUANT	1	Thermo Select
FRAMEWORKVERSION	LABEL	7.8.6	Framework Version
INSTRUMENTVERSION	LABEL	4.50	Instrument Version
COMPLIANCEVOLTAGE	IQUANT	0	Compliance Voltage
CURVE	TABLE	252
	Pt	T	Vf	Im	Vu	Pwr	Sig	Ach	Temp	IERange	Over	Vf1	Vf2	Vf3	Vf4	Vf5	Vf6	Vf7	Vf8	Pwr1	Pwr2	Pwr3	Pwr4	Pwr5	Pwr6	Pwr7	Pwr8
	#	s	V	A	V	W	V	V	deg C	#	bits	V	V	V	V	V	V	V	V	W	W	W	W	W	W	W	W
	0	1	3.51109E-001	-1.00105E-001	0.00000E+000	-3.51477E-002	-9.94000E-001	3.73547E-002	3.18075E+001	11	...........	6.20239E-002	-5.34694E-003	6.04952E-001	5.36622E-001	-2.72611E-002	-3.83358E-002	7.03337E-001	-4.39488E-002	-6.20889E-003	5.35255E-004	-6.05586E-002	-5.37184E-002	2.72897E-003	3.83760E-003	-7.04074E-002	4.39948E-003
	1	2	2.65969E-001	-1.00105E-001	0.00000E+000	-2.66249E-002	-9.94000E-001	3.74245E-002	3.09887E+001	11	...........	6.21500E-002	-5.45792E-003	6.04870E-001	5.36564E-001	-2.72508E-002	-3.83369E-002	7.03296E-001	-4.40392E-002	-6.22154E-003	5.46366E-004	-6.05507E-002	-5.37128E-002	2.72795E-003	3.83773E-003	-7.04036E-002	4.40855E-003
	2	3	2.03512E-001	-1.00106E-001	0.00000E+000	-2.03727E-002	-9.94000E-001	3.73677E-002	3.02930E+001	11	...........	6.20782E-002	-5.38250E-003	6.04710E-001	5.36721E-001	-2.72418E-002	-3.83344E-002	7.03254E-001	-4.41304E-002	-6.21438E-003	5.38819E-004	-6.05348E-002	-5.37288E-002	2.72706E-003	3.83749E-003	-7.03997E-002	4.41770E-003
	3	4	1.54419E-001	-1.00106E-001	0.00000E+000	-1.54582E-002	-9.94000E-001	3.73521E-002	2.97257E+001	11	...........	6.20544E-002	-5.52139E-003	6.04604E-001	5.36634E-001	-2.72107E-002	-3.83147E-002	7.03310E-001	-4.40657E-002	-6.21199E-003	5.52722E-004	-6.05242E-002	-5.37200E-002	2.72394E-003	3.83552E-003	-7.04052E-002	4.41122E-003
	4	5	1.14492E-001	-1.00106E-001	0.00000E+000	-1.14613E-002	-9.94000E-001	3.73267E-002	2.92683E+001	11	...........	6.20140E-002	-5.41250E-003	6.04721E-001	5.36739E-001	-2.72118E-002	-3.83378E-002	7.03192E-001	-4.39958E-002	-6.20797E-003	5.41823E-004	-6.05362E-002	-5.37308E-002	2.72406E-003	3.83784E-003	-7.03936E-002	4.40424E-003
	5	6	8.42147E-002	-1.00106E-001	0.00000E+000	-8.43037E-003	-9.94000E-001	3.73462E-002	2.84384E+001	11	...........	6.20597E-002	-5.43542E-003	6.04666E-001	5.36833E-001	-2.72215E-002	-3.83251E-002	7.03223E-001	-4.39026E-002	-6.21253E-003	5.44116E-004	-6.05306E-002	-5.37400E-002	2.72503E-003	3.83657E-003	-7.03967E-002	4.39491E-003
	6	6.98	5.88943E-002	-1.00106E-001	0.00000E+000	-5.89567E-003	-9.94000E-001	3.73467E-002	2.85662E+001	11	...........	6.20598E-002	-5.40887E-003	6.04660E-001	5.36850E-001	-2.72429E-002	-3.83367E-002	7.03463E-001	-4.39493E-002	-6.21255E-003	5.41460E-004	-6.05300E-002	-5.37419E-002	2.72718E-003	3.83773E-003	-7.04208E-002	4.39958E-003
	7	7	5.16962E-002	-9.76259E-002	0.00000E+000	-5.04689E-003	-9.69333E-001	3.75625E-002	2.88167E+001	11	...........	6.23472E-002	-5.41667E-003	6.04514E-001	5.36646E-001	-2.75556E-002	-3.82569E-002	7.03437E-001	-4.38819E-002	-6.08670E-003	5.28807E-004	-5.90162E-002	-5.23905E-002	2.69014E-003	3.73487E-003	-6.86737E-002	4.28401E-003
	8	8	4.98313E-002	-9.38434E-002	0.00000E+000	-4.67634E-003	-9.31722E-001	3.75198E-002	2.90057E+001	11	...........	6.23244E-002	-5.32958E-003	6.04506E-001	5.36770E-001	-2.72590E-002	-3.83462E-002	7.03365E-001	-4.39462E-002	-5.84874E-003	5.00146E-004	-5.67289E-002	-5.03724E-002	2.55808E-003	3.59854E-003	-6.60062E-002	4.12407E-003
	9	9	4.99262E-002	-8.60568E-002	0.00000E+000	-4.29649E-003	-8.54301E-001	3.75982E-002	2.94201E+001	11	...........	6.24614E-002	-5.36889E-003	6.04680E-001	5.36688E-001	-2.72442E-002	-3.83529E-002	7.03386E-001	-4.39290E-002	-5.37523E-003	4.62030E-004	-5.20369E-002	-4.61857E-002	2.34455E-003	3.30053E-003	-6.05311E-002	3.78039E-003
	10	10	4.99397E-002	-8.15128E-002	0.00000E+000	-4.07073E-003	-8.09138E-001	3.77222E-002	2.97007E+001	11	...........	6.26774E-002	-5.46847E-003	6.04586E-001	5.36720E-001	-2.72040E-002	-3.83596E-002	7.03415E-001	-4.39557E-002	-5.10901E-003	4.45750E-004	-4.92815E-002	-4.37495E-002	2.21748E-003	3.12680E-003	-5.73373E-002	3.58295E-003
	11	11	4.99658E-002	-7.78916E-002	0.00000E+000	-3.89192E-003	-7.73128E-001	3.78167E-002	2.99156E+001	11	...........	6.28226E-002	-5.51389E-003	6.04505E-001	5.36859E-001	-2.71739E-002	-3.83643E-002	7.03403E-001	-4.39085E-002	-4.89335E-003	4.29485E-004	-4.70858E-002	-4.18167E-002	2.11662E-003	2.98826E-003	-5.47892E-002	3.42010E-003
	12	12	4.99682E-002	-7.57231E-002	0.00000E+000	-3.78374E-003	-7.51563E-001	3.79323E-002	3.01116E+001	11	...........	6.29930E-002	-5.60097E-003	6.04442E-001	5.36839E-001	-2.71542E-002	-3.83956E-002	7.03410E-001	-4.39251E-002	-4.77003E-003	4.24123E-004	-4.57702E-002	-4.06511E-002	2.05620E-003	2.90743E-003	-5.32644E-002	3.32615E-003
	13	13	4.99702E-002	-7.32967E-002	0.00000E+000	-3.66266E-003	-7.27444E-001	3.80193E-002	3.02053E+001	11	...........	6.31543E-002	-5.50444E-003	6.04354E-001	5.36814E-001	-2.71521E-002	-3.83739E-002	7.03339E-001	-4.39517E-002	-4.62900E-003	4.03458E-004	-4.42972E-002	-3.93467E-002	1.99016E-003	2.81268E-003	-5.15525E-002	3.22151E-003
	14	14	4.99695E-002	-7.17637E-002	0.00000E+000	-3.58600E-003	-7.12230E-001	3.81015E-002	2.97143E+001	11	...........	6.33072E-002	-5.42806E-003	6.04365E-001	5.36683E-001	-2.71607E-002	-3.83786E-002	7.03341E-001	-4.39892E-002	-4.54316E-003	3.89537E-004	-4.33715E-002	-3.85144E-002	1.94915E-003	2.75419E-003	-5.04744E-002	3.15683E-003
	15	15	4.99990E-002	-7.02577E-002	0.00000E+000	-3.51282E-003	-6.97267E-001	3.81697E-002	3.02007E+001	11	...........	6.34107E-002	-5.43306E-003	6.04389E-001	5.36630E-001	-2.71662E-002	-3.83778E-002	7.03307E-001	-4.40287E-002	-4.45509E-003	3.81714E-004	-4.24630E-002	-3.77024E-002	1.90864E-003	2.69633E-003	-4.94128E-002	3.09336E-003
	16	16	4.99887E-002	-6.97259E-002	0.00000E+000	-3.48551E-003	-6.91975E-001	3.82981E-002	3.00722E+001	11	...........	6.36222E-002	-5.52681E-003	6.04541E-001	5.36487E-001	-2.71750E-002	-3.83578E-002	7.03258E-001	-4.39046E-002	-4.43612E-003	3.85362E-004	-4.21522E-002	-3.74070E-002	1.89480E-003	2.67453E-003	-4.90353E-002	3.06129E-003
	17	17	4.99682E-002	-6.78737E-002	0.00000E+000	-3.39153E-003	-6.73561E-001	3.82950E-002	3.00520E+001	11	...........	6.35957E-002	-5.59222E-003	6.04676E-001	5.36489E-001	-2.71860E-002	-3.83557E-002	7.03417E-001	-4.39278E-002	-4.31648E-003	3.79565E-004	-4.10416E-002	-3.64135E-002	1.84521E-003	2.60334E-003	-4.77436E-002	2.98154E-003
	18	18	4.99932E-002	-6.75426E-002	0.00000E+000	-3.37667E-003	-6.70264E-001	3.85086E-002	3.05633E+001	11	...........	6.39679E-002	-5.69222E-003	6.04722E-001	5.36534E-001	-2.72133E-002	-3.83579E-002	7.03292E-001	-4.40475E-002	-4.32056E-003	3.84467E-004	-4.08445E-002	-3.62389E-002	1.83806E-003	2.59079E-003	-4.75022E-002	2.97508E-003
	19	19	4.99861E-002	-6.67800E-002	0.00000E+000	-3.33807E-003	-6.62677E-001	3.85011E-002	3.06864E+001	11	...........	6.39621E-002	-5.63875E-003	6.04592E-001	5.36661E-001	-2.72350E-002	-3.83543E-002	7.03299E-001	-4.42049E-002	-4.27139E-003	3.76556E-004	-4.03746E-002	-3.58382E-002	1.81875E-003	2.56130E-003	-4.69663E-002	2.95200E-003
	20	20	4.99914E-002	-6.60011E-002	0.00000E+000	-3.29949E-003	-6.54920E-001	3.84630E-002	3.07513E+001	11	...........	6.40669E-002	-5.48431E-003	6.04479E-001	5.36664E-001	-2.72639E-002	-3.83528E-002	7.03334E-001	-4.41439E-002	-4.22849E-003	3.61970E-004	-3.98963E-002	-3.54205E-002	1.79945E-003	2.53133E-003	-4.64208E-002	2.91355E-003
	21	21	4.99878E-002	-6.56577E-002	0.00000E+000	-3.28208E-003	-6.51513E-001	3.85127E-002	3.07828E+001	11	...........	6.42467E-002	-5.49861E-003	6.04412E-001	5.36703E-001	-2.72635E-002	-3.83664E-002	7.03315E-001	-4.41560E-002	-4.21828E-003	3.61026E-004	-3.96843E-002	-3.52386E-002	1.79006E-003	2.51905E-003	-4.61780E-002	2.89918E-003
	22	22	4.99827E-002	-6.48253E-002	0.00000E+000	-3.24014E-003	-6.43243E-001	3.86005E-002	3.09125E+001	11	...........	6.43886E-002	-5.55514E-003	6.04372E-001	5.36793E-001	-2.72592E-002	-3.83782E-002	7.03551E-001	-4.41132E-002	-4.17401E-003	3.60113E-004	-3.91786E-002	-3.47977E-002	1.76708E-003	2.48788E-003	-4.56079E-002	2.85965E-003
	23	23	4.99905E-002	-6.40040E-002	0.00000E+000	-3.19959E-003	-6.35077E-001	3.86707E-002	3.09880E+001	11	...........	6.45086E-002	-5.45153E-003	6.04341E-001	5.36965E-001	-2.72753E-002	-3.83932E-002	7.03463E-001	-4.42283E-002	-4.12881E-003	3.48920E-004	-3.86803E-002	-3.43679E-002	1.74573E-003	2.45732E-003	-4.50245E-002	2.83079E-003
	24	24	4.99855E-002	-6.32190E-002	0.00000E+000	-3.16003E-003	-6.27265E-001	3.87537E-002	3.10366E+001	11	...........	6.46532E-002	-5.41097E-003	6.04525E-001	5.36851E-001	-2.73053E-002	-3.84054E-002	7.03334E-001	-4.43162E-002	-4.08731E-003	3.42076E-004	-3.82175E-002	-3.39392E-002	1.72621E-003	2.42795E-003	-4.44641E-002	2.80163E-003
	25	25	4.99873E-002	-6.24529E-002	0.00000E+000	-3.12185E-003	-6.19655E-001	3.88222E-002	3.11033E+001	11	...........	6.47658E-002	-5.46444E-003	6.04648E-001	5.36827E-001	-2.73193E-002	-3.84114E-002	7.03408E-001	-4.42576E-002	-4.04482E-003	3.41271E-004	-3.77620E-002	-3.35264E-002	1.70617E-003	2.39890E-003	-4.39299E-002	2.76402E-003
	26	26	4.99913E-002	-6.20097E-002	0.00000E+000	-3.09995E-003	-6.15250E-001	3.88926E-002	3.07771E+001	11	...........	6.48736E-002	-5.42875E-003	6.04773E-001	5.36782E-001	-2.73349E-002	-3.84183E-002	7.03421E-001	-4.42304E-002	-4.02279E-003	3.36635E-004	-3.75018E-002	-3.32857E-002	1.69503E-003	2.38231E-003	-4.36189E-002	2.74272E-003
	27	27	4.99812E-002	-6.07049E-002	0.00000E+000	-3.03410E-003	-6.02287E-001	3.88690E-002	3.08511E+001	11	...........	6.48514E-002	-5.39903E-003	6.04771E-001	5.36925E-001	-2.73351E-002	-3.84082E-002	7.03393E-001	-4.41304E-002	-3.93679E-003	3.27747E-004	-3.67126E-002	-3.25939E-002	1.65938E-003	2.33156E-003	-4.26994E-002	2.67893E-003
	28	28	4.99940E-002	-6.05559E-002	0.00000E+000	-3.02743E-003	-6.00796E-001	3.90430E-002	3.12065E+001	11	...........	6.51289E-002	-5.51431E-003	6.04754E-001	5.37005E-001	-2.73297E-002	-3.84090E-002	7.03530E-001	-4.41142E-002	-3.94394E-003	3.33924E-004	-3.66214E-002	-3.25188E-002	1.65498E-003	2.32589E-003	-4.26029E-002	2.67137E-003
	29	29	4.99861E-002	-5.99675E-002	0.00000E+000	-2.99754E-003	-5.94959E-001	3.90281E-002	3.13138E+001	11	...........	6.50908E-002	-5.46931E-003	6.04750E-001	5.36834E-001	-2.73392E-002	-3.84092E-002	7.03424E-001	-4.41872E-002	-3.90333E-003	3.27981E-004	-3.62653E-002	-3.21926E-002	1.63946E-003	2.30330E-003	-4.21826E-002	2.64980E-003
	30	30	4.99877E-002	-5.93011E-002	0.00000E+000	-2.96433E-003	-5.88336E-001	3.90937E-002	3.12281E+001	11	...........	6.52062E-002	-5.54778E-003	6.04988E-001	5.36847E-001	-2.73443E-002	-3.84033E-002	7.03406E-001	-4.41511E-002	-3.86680E-003	3.28990E-004	-3.58765E-002	-3.18356E-002	1.62155E-003	2.27736E-003	-4.17128E-002	2.61821E-003
	31	31	4.99848E-002	-5.82015E-002	0.00000E+000	-2.90919E-003	-5.77397E-001	3.91351E-002	3.12398E+001	11	...........	6.52783E-002	-5.51361E-003	6.04955E-001	5.36710E-001	-2.73478E-002	-3.84149E-002	7.03484E-001	-4.40461E-002	-3.79929E-003	3.20900E-004	-3.52093E-002	-3.12373E-002	1.59168E-003	2.23580E-003	-4.09438E-002	2.56355E-003
	32	32	4.99841E-002	-5.80410E-002	0.00000E+000	-2.90113E-003	-5.75780E-001	3.92711E-002	3.08031E+001	11	...........	6.55133E-002	-5.45153E-003	6.05075E-001	5.36515E-001	-2.73231E-002	-3.84096E-002	7.03487E-001	-4.41715E-002	-3.80246E-003	3.16412E-004	-3.51192E-002	-3.11399E-002	1.58586E-003	2.22933E-003	-4.08311E-002	2.56376E-003
	33	33	4.99975E-002	-5.70836E-002	0.00000E+000	-2.85404E-003	-5.66277E-001	3.92325E-002	3.12702E+001	11	...........	6.54542E-002	-5.51292E-003	6.04943E-001	5.36532E-001	-2.73137E-002	-3.84354E-002	7.03463E-001	-4.40714E-002	-3.73636E-003	3.14697E-004	-3.45323E-002	-3.06272E-002	1.55917E-003	2.19403E-003	-4.01562E-002	2.51575E-003
	34	34	4.99917E-002	-5.71473E-002	0.00000E+000	-2.85689E-003	-5.66912E-001	3.93243E-002	3.15286E+001	11	...........	6.56029E-002	-5.46958E-003	6.04721E-001	5.36596E-001	-2.73035E-002	-3.84521E-002	7.03672E-001	-4.40724E-002	-3.74903E-003	3.12572E-004	-3.45581E-002	-3.06650E-002	1.56032E-003	2.19743E-003	-4.02129E-002	2.51862E-003
	35	35	4.99929E-002	-5.65853E-002	0.00000E+000	-2.82887E-003	-5.61326E-001	3.93690E-002	3.16290E+001	11	...........	6.56800E-002	-5.39222E-003	6.04644E-001	5.36524E-001	-2.72876E-002	-3.84431E-002	7.03484E-001	-4.40261E-002	-3.71652E-003	3.05121E-004	-3.42140E-002	-3.03594E-002	1.54408E-003	2.17531E-003	-3.98069E-002	2.49123E-003
	36	36	4.99866E-002	-5.60184E-002	0.00000E+000	-2.80017E-003	-5.55675E-001	3.94557E-002	3.16722E+001	11	...........	6.58128E-002	-5.41958E-003	6.04639E-001	5.36298E-001	-2.73003E-002	-3.84586E-002	7.03507E-001	-4.40289E-002	-3.68673E-003	3.03596E-004	-3.38709E-002	-3.00426E-002	1.52932E-003	2.15439E-003	-3.94094E-002	2.46643E-003
	37	37	4.99847E-002	-5.52648E-002	0.00000E+000	-2.76239E-003	-5.48193E-001	3.94648E-002	3.17240E+001	11	...........	6.58307E-002	-5.45028E-003	6.04581E-001	5.36218E-001	-2.72856E-002	-3.84824E-002	7.03584E-001	-4.39497E-002	-3.63812E-003	3.01208E-004	-3.34121E-002	-2.96339E-002	1.50793E-003	2.12672E-003	-3.88834E-002	2.42887E-003
	38	38	4.99920E-002	-5.47875E-002	0.00000E+000	-2.73894E-003	-5.43447E-001	3.95430E-002	3.17533E+001	11	...........	6.59765E-002	-5.38611E-003	6.04561E-001	5.36280E-001	-2.72787E-002	-3.84975E-002	7.03451E-001	-4.40426E-002	-3.61469E-003	2.95092E-004	-3.31224E-002	-2.93815E-002	1.49454E-003	2.10918E-003	-3.85403E-002	2.41299E-003
	39	39	4.99921E-002	-5.42069E-002	0.00000E+000	-2.70992E-003	-5.37677E-001	3.95877E-002	3.18082E+001	11	...........	6.60537E-002	-5.30875E-003	6.04476E-001	5.36361E-001	-2.72721E-002	-3.84758E-002	7.03387E-001	-4.40911E-002	-3.58057E-003	2.87771E-004	-3.27668E-002	-2.90744E-002	1.47833E-003	2.08565E-003	-3.81284E-002	2.39004E-003
	40	40	4.99846E-002	-5.37663E-002	0.00000E+000	-2.68748E-003	-5.33293E-001	3.96489E-002	3.16275E+001	11	...........	6.61364E-002	-5.38667E-003	6.04520E-001	5.36478E-001	-2.72789E-002	-3.84849E-002	7.03387E-001	-4.42419E-002	-3.55591E-003	2.89621E-004	-3.25028E-002	-2.88444E-002	1.46668E-003	2.06919E-003	-3.78185E-002	2.37872E-003
	41	41	4.99883E-002	-5.31276E-002	0.00000E+000	-2.65576E-003	-5.26927E-001	3.96790E-002	3.17773E+001	11	...........	6.61789E-002	-5.57458E-003	6.04457E-001	5.36621E-001	-2.72519E-002	-3.84924E-002	7.03313E-001	-4.42131E-002	-3.51593E-003	2.96164E-004	-3.21134E-002	-2.85094E-002	1.44783E-003	2.04501E-003	-3.73653E-002	2.34893E-003
	42	42	4.99889E-002	-5.24496E-002	0.00000E+000	-2.62189E-003	-5.20207E-001	3.97517E-002	3.18803E+001	11	...........	6.63144E-002	-5.61764E-003	6.04425E-001	5.36730E-001	-2.72281E-002	-3.85056E-002	7.03381E-001	-4.41043E-002	-3.47816E-003	2.94643E-004	-3.17018E-002	-2.81513E-002	1.42810E-003	2.01960E-003	-3.68920E-002	2.31325E-003
	43	43	4.99942E-002	-5.17578E-002	0.00000E+000	-2.58759E-003	-5.13317E-001	3.97962E-002	3.19385E+001	11	...........	6.63790E-002	-5.57514E-003	6.04278E-001	5.36765E-001	-2.72210E-002	-3.84904E-002	7.03453E-001	-4.40368E-002	-3.43563E-003	2.88557E-004	-3.12761E-002	-2.77818E-002	1.40890E-003	1.99218E-003	-3.64092E-002	2.27925E-003
	44	44	4.99910E-002	-5.15048E-002	0.00000E+000	-2.57477E-003	-5.10830E-001	3.98607E-002	3.19753E+001	11	...........	6.64871E-002	-5.56708E-003	6.04455E-001	5.36670E-001	-2.72379E-002	-3.84999E-002	7.03435E-001	-4.41421E-002	-3.42440E-003	2.86731E-004	-3.11323E-002	-2.76411E-002	1.40288E-003	1.98293E-003	-3.62302E-002	2.27353E-003
	45	45	4.99876E-002	-5.08845E-002	0.00000E+000	-2.54359E-003	-5.04665E-001	3.98957E-002	3.20028E+001	11	...........	6.65490E-002	-5.49958E-003	6.04387E-001	5.36644E-001	-2.72308E-002	-3.85101E-002	7.03420E-001	-4.40429E-002	-3.38632E-003	2.79844E-004	-3.07540E-002	-2.73069E-002	1.38563E-003	1.95957E-003	-3.57932E-002	2.24110E-003
	46	46	4.99880E-002	-5.02977E-002	0.00000E+000	-2.51428E-003	-4.98818E-001	3.99525E-002	3.20630E+001	11	...........	6.66531E-002	-5.50986E-003	6.04523E-001	5.36674E-001	-2.72442E-002	-3.84793E-002	7.03397E-001	-4.39671E-002	-3.35249E-003	2.77133E-004	-3.04061E-002	-2.69935E-002	1.37032E-003	1.93542E-003	-3.53792E-002	2.21144E-003
	47	47	4.99909E-002	-4.98402E-002	0.00000E+000	-2.49155E-003	-4.94289E-001	4.00005E-002	3.21198E+001	11	...........	6.67307E-002	-5.45528E-003	6.04600E-001	5.36682E-001	-2.72521E-002	-3.84704E-002	7.03396E-001	-4.41683E-002	-3.32587E-003	2.71892E-004	-3.01334E-002	-2.67483E-002	1.35825E-003	1.91737E-003	-3.50574E-002	2.20136E-003
	48	48	4.99910E-002	-4.93716E-002	0.00000E+000	-2.46813E-003	-4.89618E-001	4.00498E-002	3.21386E+001	11	...........	6.68240E-002	-5.37819E-003	6.04650E-001	5.36554E-001	-2.72565E-002	-3.84694E-002	7.03447E-001	-4.42606E-002	-3.29921E-003	2.65530E-004	-2.98525E-002	-2.64905E-002	1.34570E-003	1.89930E-003	-3.47303E-002	2.18521E-003
	49	49	4.99924E-002	-4.88454E-002	0.00000E+000	-2.44190E-003	-4.84398E-001	4.00916E-002	3.21389E+001	11	...........	6.68749E-002	-5.37222E-003	6.04644E-001	5.36542E-001	-2.72350E-002	-3.84576E-002	7.03450E-001	-4.42001E-002	-3.26653E-003	2.62408E-004	-2.95341E-002	-2.62076E-002	1.33030E-003	1.87848E-003	-3.43603E-002	2.15897E-003
	50	50	4.99880E-002	-4.84661E-002	0.00000E+000	-2.42272E-003	-4.80615E-001	4.01484E-002	3.21988E+001	11	...........	6.69681E-002	-5.47958E-003	6.04641E-001	5.36514E-001	-2.72343E-002	-3.84662E-002	7.03465E-001	-4.41121E-002	-3.24568E-003	2.65574E-004	-2.93046E-002	-2.60027E-002	1.31994E-003	1.86431E-003	-3.40942E-002	2.13794E-003
	51	51	4.99834E-002	-4.75684E-002	0.00000E+000	-2.37763E-003	-4.71681E-001	4.02063E-002	3.21357E+001	11	...........	6.70657E-002	-5.42028E-003	6.04809E-001	5.36527E-001	-2.72383E-002	-3.84557E-002	7.03409E-001	-4.40735E-002	-3.19021E-003	2.57834E-004	-2.87698E-002	-2.55217E-002	1.29568E-003	1.82928E-003	-3.34601E-002	2.09650E-003
	52	52	4.99882E-002	-4.65307E-002	0.00000E+000	-2.32599E-003	-4.61371E-001	4.01104E-002	3.12102E+001	11	...........	6.69151E-002	-5.41028E-003	6.04919E-001	5.36489E-001	-2.72403E-002	-3.84621E-002	7.03359E-001	-4.42921E-002	-3.11361E-003	2.51744E-004	-2.81473E-002	-2.49632E-002	1.26751E-003	1.78967E-003	-3.27278E-002	2.06094E-003
	53	53	5.00007E-002	-4.67234E-002	0.00000E+000	-2.33620E-003	-4.63287E-001	4.02998E-002	3.20940E+001	11	...........	6.72235E-002	-5.45111E-003	6.04955E-001	5.36434E-001	-2.72171E-002	-3.84437E-002	7.03412E-001	-4.43025E-002	-3.14091E-003	2.54694E-004	-2.82655E-002	-2.50640E-002	1.27167E-003	1.79622E-003	-3.28658E-002	2.06996E-003
	54	54	4.99904E-002	-4.65957E-002	0.00000E+000	-2.32934E-003	-4.62013E-001	4.02410E-002	3.23191E+001	11	...........	6.71308E-002	-5.38542E-003	6.04954E-001	5.36443E-001	-2.71965E-002	-3.84365E-002	7.03315E-001	-4.43011E-002	-3.12801E-003	2.50937E-004	-2.81882E-002	-2.49960E-002	1.26724E-003	1.79098E-003	-3.27714E-002	2.06424E-003
	55	55	4.99924E-002	-4.61686E-002	0.00000E+000	-2.30808E-003	-4.57770E-001	4.03337E-002	3.23602E+001	11	...........	6.72972E-002	-5.42792E-003	6.04888E-001	5.36483E-001	-2.71912E-002	-3.84381E-002	7.03352E-001	-4.41258E-002	-3.10701E-003	2.50599E-004	-2.79268E-002	-2.47686E-002	1.25538E-003	1.77463E-003	-3.24727E-002	2.03723E-003
	56	56	4.99867E-002	-4.56705E-002	0.00000E+000	-2.28292E-003	-4.52810E-001	4.03891E-002	3.24025E+001	11	...........	6.73797E-002	-5.49806E-003	6.04758E-001	5.36471E-001	-2.72010E-002	-3.84340E-002	7.03272E-001	-4.39946E-002	-3.07726E-003	2.51099E-004	-2.76196E-002	-2.45009E-002	1.24228E-003	1.75530E-003	-3.21188E-002	2.00925E-003
	57	57	4.99699E-002	-4.47356E-002	0.00000E+000	-2.23543E-003	-4.43507E-001	4.03534E-002	3.14242E+001	11	...........	6.73246E-002	-5.37472E-003	6.04794E-001	5.36548E-001	-2.71667E-002	-3.84306E-002	7.03340E-001	-4.41032E-002	-3.01180E-003	2.40441E-004	-2.70558E-002	-2.40028E-002	1.21532E-003	1.71921E-003	-3.14643E-002	1.97298E-003
	58	58	5.00119E-002	-4.40270E-002	0.00000E+000	-2.20187E-003	-4.36475E-001	4.04483E-002	3.23207E+001	11	...........	6.74789E-002	-5.37264E-003	6.04797E-001	5.36525E-001	-2.71565E-002	-3.84436E-002	7.03428E-001	-4.40972E-002	-2.97089E-003	2.36541E-004	-2.66274E-002	-2.36216E-002	1.19562E-003	1.69256E-003	-3.09699E-002	1.94147E-003
	59	59	4.99907E-002	-4.41350E-002	0.00000E+000	-2.20634E-003	-4.37545E-001	4.04423E-002	3.26117E+001	11	...........	6.74618E-002	-5.43722E-003	6.04758E-001	5.36616E-001	-2.71604E-002	-3.84499E-002	7.03464E-001	-4.40528E-002	-2.97743E-003	2.39972E-004	-2.66910E-002	-2.36835E-002	1.19873E-003	1.69698E-003	-3.10474E-002	1.94427E-003
	60	60	4.99906E-002	-4.37001E-002	0.00000E+000	-2.18459E-003	-4.33237E-001	4.04428E-002	3.26552E+001	11	...........	6.74700E-002	-5.63361E-003	6.04765E-001	5.36587E-001	-2.71736E-002	-3.84432E-002	7.03491E-001	-4.41678E-002	-2.94845E-003	2.46189E-004	-2.64283E-002	-2.34489E-002	1.18749E-003	1.67997E-003	-3.07426E-002	1.93014E-003
	61	61	4.99928E-002	-4.33202E-002	0.00000E+000	-2.16570E-003	-4.29445E-001	4.04384E-002	3.27054E+001	11	...........	6.76285E-002	-5.45389E-003	6.04811E-001	5.36595E-001	-2.71696E-002	-3.84242E-002	7.03405E-001	-4.41039E-002	-2.92968E-003	2.36264E-004	-2.62005E-002	-2.32454E-002	1.17699E-003	1.66454E-003	-3.04717E-002	1.91059E-003
	62	62	4.99903E-002	-4.28960E-002	0.00000E+000	-2.14438E-003	-4.25220E-001	4.05822E-002	3.27211E+001	11	...........	6.76792E-002	-5.36264E-003	6.04792E-001	5.36598E-001	-2.71710E-002	-3.84154E-002	7.03223E-001	-4.41144E-002	-2.90317E-003	2.30036E-004	-2.59432E-002	-2.30179E-002	1.16553E-003	1.64787E-003	-3.01654E-002	1.89233E-003
	63	63	4.99869E-002	-4.23475E-002	0.00000E+000	-2.11682E-003	-4.19778E-001	4.05916E-002	3.27273E+001	11	...........	6.77115E-002	-5.37236E-003	6.04868E-001	5.36637E-001	-2.71711E-002	-3.84199E-002	7.03252E-001	-4.41106E-002	-2.86742E-003	2.27506E-004	-2.56147E-002	-2.27253E-002	1.15063E-003	1.62699E-003	-2.97810E-002	1.86797E-003
	64	64	4.99948E-002	-4.18928E-002	0.00000E+000	-2.09443E-003	-4.15257E-001	4.06262E-002	3.27577E+001	11	...........	6.77647E-002	-5.37847E-003	6.04766E-001	5.36707E-001	-2.71764E-002	-3.84087E-002	7.03291E-001	-4.41106E-002	-2.83886E-003	2.25319E-004	-2.53354E-002	-2.24842E-002	1.13850E-003	1.60905E-003	-2.94629E-002	1.84792E-003
	65	65	4.99903E-002	-4.15266E-002	0.00000E+000	-2.07593E-003	-4.11615E-001	4.06893E-002	3.28053E+001	11	...........	6.78867E-002	-5.44625E-003	6.04776E-001	5.36724E-001	-2.71728E-002	-3.84199E-002	7.03401E-001	-4.41093E-002	-2.81910E-003	2.26164E-004	-2.51143E-002	-2.22883E-002	1.12839E-003	1.59545E-003	-2.92099E-002	1.83171E-003
	66	66	4.99892E-002	-4.10302E-002	0.00000E+000	-2.05107E-003	-4.06702E-001	4.07149E-002	3.26644E+001	11	...........	6.79043E-002	-5.38597E-003	6.04721E-001	5.36818E-001	-2.71908E-002	-3.84249E-002	7.03385E-001	-4.41861E-002	-2.78613E-003	2.20987E-004	-2.48118E-002	-2.20258E-002	1.11564E-003	1.57658E-003	-2.88600E-002	1.81296E-003
	67	67	4.99818E-002	-4.00928E-002	0.00000E+000	-2.00391E-003	-3.97379E-001	4.06716E-002	3.22794E+001	11	...........	6.78414E-002	-5.53014E-003	6.04623E-001	5.36574E-001	-2.71853E-002	-3.84106E-002	7.03290E-001	-4.42739E-002	-2.71995E-003	2.21719E-004	-2.42411E-002	-2.15128E-002	1.08993E-003	1.53999E-003	-2.81969E-002	1.77507E-003
	68	68	5.00001E-002	-4.00250E-002	0.00000E+000	-2.00125E-003	-3.96689E-001	4.08058E-002	3.28261E+001	11	...........	6.80672E-002	-5.46542E-003	6.04514E-001	5.36564E-001	-2.72043E-002	-3.84174E-002	7.03281E-001	-4.42294E-002	-2.72439E-003	2.18753E-004	-2.41957E-002	-2.14760E-002	1.08885E-003	1.53765E-003	-2.81488E-002	1.77028E-003
	69	69	4.99891E-002	-3.95175E-002	0.00000E+000	-1.97544E-003	-3.91663E-001	4.07715E-002	3.27567E+001	11	...........	6.80011E-002	-5.49944E-003	6.04652E-001	5.36475E-001	-2.72053E-002	-3.83982E-002	7.03219E-001	-4.40264E-002	-2.68723E-003	2.17324E-004	-2.38943E-002	-2.12001E-002	1.07508E-003	1.51740E-003	-2.77894E-002	1.73981E-003
	70	70	4.99896E-002	-3.88711E-002	0.00000E+000	-1.94315E-003	-3.85235E-001	4.07376E-002	3.25414E+001	11	...........	6.79685E-002	-5.45583E-003	6.04628E-001	5.36255E-001	-2.72050E-002	-3.83878E-002	7.03216E-001	-4.39339E-002	-2.64201E-003	2.12074E-004	-2.35026E-002	-2.08448E-002	1.05749E-003	1.49218E-003	-2.73348E-002	1.70776E-003
	71	71	4.99900E-002	-3.86709E-002	0.00000E+000	-1.93316E-003	-3.83248E-001	4.08720E-002	3.29100E+001	11	...........	6.81829E-002	-5.51722E-003	6.04605E-001	5.36300E-001	-2.72296E-002	-3.83762E-002	7.03196E-001	-4.38969E-002	-2.63669E-003	2.13356E-004	-2.33806E-002	-2.07392E-002	1.05299E-003	1.48404E-003	-2.71932E-002	1.69753E-003
	72	72	4.99946E-002	-3.82694E-002	0.00000E+000	-1.91326E-003	-3.79244E-001	4.08853E-002	3.30172E+001	11	...........	6.82168E-002	-5.55222E-003	6.04707E-001	5.36300E-001	-2.72633E-002	-3.83675E-002	7.03280E-001	-4.39242E-002	-2.61062E-003	2.12480E-004	-2.31418E-002	-2.05239E-002	1.04335E-003	1.46830E-003	-2.69141E-002	1.68095E-003
	73	73	4.99914E-002	-3.79115E-002	0.00000E+000	-1.89525E-003	-3.75679E-001	4.09348E-002	3.30627E+001	11	...........	6.82853E-002	-5.58222E-003	6.04690E-001	5.36397E-001	-2.72800E-002	-3.83453E-002	7.03460E-001	-4.40804E-002	-2.58880E-003	2.11630E-004	-2.29247E-002	-2.03356E-002	1.03423E-003	1.45373E-003	-2.66692E-002	1.67115E-003
	74	74	4.99902E-002	-3.75311E-002	0.00000E+000	-1.87618E-003	-3.71891E-001	4.09420E-002	3.31282E+001	11	...........	6.82994E-002	-5.43083E-003	6.04771E-001	5.36332E-001	-2.72750E-002	-3.83353E-002	7.03366E-001	-4.42832E-002	-2.56335E-003	2.03825E-004	-2.26977E-002	-2.01291E-002	1.02366E-003	1.43876E-003	-2.63981E-002	1.66199E-003
	75	75	4.99908E-002	-3.70749E-002	0.00000E+000	-1.85340E-003	-3.67377E-001	4.09687E-002	3.31911E+001	11	...........	6.83315E-002	-5.38403E-003	6.04695E-001	5.36292E-001	-2.72731E-002	-3.83306E-002	7.03490E-001	-4.41593E-002	-2.53339E-003	1.99612E-004	-2.24190E-002	-1.98830E-002	1.01115E-003	1.42110E-003	-2.60818E-002	1.63720E-003
	76	76	4.99820E-002	-3.63817E-002	0.00000E+000	-1.81843E-003	-3.60473E-001	4.09407E-002	3.21704E+001	11	...........	6.82768E-002	-5.52708E-003	6.04687E-001	5.36296E-001	-2.72926E-002	-3.83239E-002	7.03352E-001	-4.40721E-002	-2.48403E-003	2.01085E-004	-2.19995E-002	-1.95114E-002	9.92952E-004	1.39429E-003	-2.55891E-002	1.60342E-003
	77	77	4.99987E-002	-3.58351E-002	0.00000E+000	-1.79171E-003	-3.55037E-001	4.10362E-002	3.31091E+001	11	...........	6.84761E-002	-5.53556E-003	6.04651E-001	5.36231E-001	-2.72885E-002	-3.83393E-002	7.03329E-001	-4.40928E-002	-2.45385E-003	1.98367E-004	-2.16677E-002	-1.92159E-002	9.77886E-004	1.37389E-003	-2.52039E-002	1.58007E-003
	78	78	4.99928E-002	-3.57382E-002	0.00000E+000	-1.78665E-003	-3.54071E-001	4.10165E-002	3.33530E+001	11	...........	6.84282E-002	-5.57056E-003	6.04653E-001	5.36130E-001	-2.73126E-002	-3.83308E-002	7.03414E-001	-4.41529E-002	-2.44550E-003	1.99082E-004	-2.16092E-002	-1.91603E-002	9.76105E-004	1.36988E-003	-2.51388E-002	1.57795E-003
	79	79	4.99921E-002	-3.54434E-002	0.00000E+000	-1.77189E-003	-3.51131E-001	4.10424E-002	3.33593E+001	11	...........	6.84617E-002	-5.57653E-003	6.04595E-001	5.36093E-001	-2.73086E-002	-3.83271E-002	7.03505E-001	-4.41126E-002	-2.42651E-003	1.97651E-004	-2.14289E-002	-1.90009E-002	9.67909E-004	1.35844E-003	-2.49346E-002	1.56350E-003
	80	80	4.99898E-002	-3.50320E-002	0.00000E+000	-1.75124E-003	-3.47027E-001	4.10716E-002	3.33866E+001	11	...........	6.85242E-002	-5.51056E-003	6.04644E-001	5.36210E-001	-2.73028E-002	-3.83321E-002	7.03352E-001	-4.41633E-002	-2.40054E-003	1.93046E-004	-2.11818E-002	-1.87845E-002	9.56470E-004	1.34285E-003	-2.46398E-002	1.54713E-003
	81	81	4.99926E-002	-3.46251E-002	0.00000E+000	-1.73100E-003	-3.43011E-001	4.11191E-002	3.34051E+001	11	...........	6.85940E-002	-5.50861E-003	6.04520E-001	5.36378E-001	-2.72844E-002	-3.83399E-002	7.03299E-001	-4.40508E-002	-2.37507E-003	1.90736E-004	-2.09316E-002	-1.85722E-002	9.44727E-004	1.32752E-003	-2.43518E-002	1.52526E-003
	82	82	4.99926E-002	-3.44014E-002	0.00000E+000	-1.71982E-003	-3.40785E-001	4.11279E-002	3.34398E+001	11	...........	6.86164E-002	-5.43597E-003	6.04527E-001	5.36451E-001	-2.72706E-002	-3.83337E-002	7.03384E-001	-4.40342E-002	-2.36050E-003	1.87005E-004	-2.07966E-002	-1.84547E-002	9.38146E-004	1.31874E-003	-2.41974E-002	1.51484E-003
	83	83	4.99906E-002	-3.39472E-002	0.00000E+000	-1.69704E-003	-3.36261E-001	4.11435E-002	3.35037E+001	11	...........	6.86436E-002	-5.44847E-003	6.04428E-001	5.36525E-001	-2.72367E-002	-3.83347E-002	7.03302E-001	-4.40582E-002	-2.33026E-003	1.84960E-004	-2.05186E-002	-1.82135E-002	9.24608E-004	1.30136E-003	-2.38751E-002	1.49565E-003
	84	84	4.99916E-002	-3.35588E-002	0.00000E+000	-1.67766E-003	-3.32399E-001	4.11962E-002	3.35563E+001	11	...........	6.87131E-002	-5.46403E-003	6.04466E-001	5.36423E-001	-2.72369E-002	-3.83307E-002	7.03241E-001	-4.40244E-002	-2.30593E-003	1.83366E-004	-2.02851E-002	-1.80017E-002	9.14039E-004	1.28633E-003	-2.35999E-002	1.47741E-003
	85	85	4.99917E-002	-3.31400E-002	0.00000E+000	-1.65673E-003	-3.28231E-001	4.12147E-002	3.36346E+001	11	...........	6.87594E-002	-5.42444E-003	6.04458E-001	5.36455E-001	-2.72290E-002	-3.83024E-002	7.03178E-001	-4.41167E-002	-2.27869E-003	1.79766E-004	-2.00317E-002	-1.77781E-002	9.02370E-004	1.26934E-003	-2.33033E-002	1.46203E-003
	86	86	4.99902E-002	-3.26424E-002	0.00000E+000	-1.63180E-003	-3.23269E-001	4.12324E-002	3.36541E+001	11	...........	6.87842E-002	-5.51556E-003	6.04526E-001	5.36665E-001	-2.72489E-002	-3.82853E-002	7.03321E-001	-4.42485E-002	-2.24528E-003	1.80041E-004	-1.97332E-002	-1.75181E-002	8.89470E-004	1.24972E-003	-2.29581E-002	1.44438E-003
	87	87	4.99907E-002	-3.21214E-002	0.00000E+000	-1.60577E-003	-3.18111E-001	4.12763E-002	3.28028E+001	11	...........	6.88496E-002	-5.56333E-003	6.04734E-001	5.36741E-001	-2.72603E-002	-3.82650E-002	7.03520E-001	-4.43589E-002	-2.21155E-003	1.78702E-004	-1.94249E-002	-1.72409E-002	8.75639E-004	1.22913E-003	-2.25981E-002	1.42487E-003
	88	88	4.99908E-002	-3.13801E-002	0.00000E+000	-1.56872E-003	-3.10741E-001	4.11831E-002	3.32309E+001	11	...........	6.87060E-002	-5.48639E-003	6.04818E-001	5.36757E-001	-2.72583E-002	-3.82750E-002	7.03467E-001	-4.42318E-002	-2.15600E-003	1.72164E-004	-1.89793E-002	-1.68435E-002	8.55370E-004	1.20107E-003	-2.20749E-002	1.38800E-003
	89	89	4.99956E-002	-3.16012E-002	0.00000E+000	-1.57992E-003	-3.12929E-001	4.13207E-002	3.36111E+001	11	...........	6.89436E-002	-5.42597E-003	6.04765E-001	5.36707E-001	-2.72315E-002	-3.82658E-002	7.03401E-001	-4.41594E-002	-2.17870E-003	1.71467E-004	-1.91113E-002	-1.69606E-002	8.60548E-004	1.20924E-003	-2.22283E-002	1.39549E-003
	90	90	4.99914E-002	-3.13399E-002	0.00000E+000	-1.56673E-003	-3.10329E-001	4.13252E-002	3.36929E+001	11	...........	6.89465E-002	-5.48250E-003	6.04803E-001	5.36708E-001	-2.72250E-002	-3.82869E-002	7.03418E-001	-4.41140E-002	-2.16078E-003	1.71821E-004	-1.89545E-002	-1.68204E-002	8.53229E-004	1.19991E-003	-2.20451E-002	1.38253E-003
	91	91	4.99916E-002	-3.10238E-002	0.00000E+000	-1.55093E-003	-3.07205E-001	4.13563E-002	3.37408E+001	11	...........	6.89893E-002	-5.40528E-003	6.05015E-001	5.36604E-001	-2.72215E-002	-3.83007E-002	7.03200E-001	-4.41812E-002	-2.14031E-003	1.67692E-004	-1.87699E-002	-1.66475E-002	8.44516E-004	1.18823E-003	-2.18160E-002	1.37067E-003
	92	92	4.99919E-002	-3.06011E-002	0.00000E+000	-1.52981E-003	-3.03020E-001	4.13760E-002	3.37783E+001	11	...........	6.90261E-002	-5.54264E-003	6.04964E-001	5.36469E-001	-2.71883E-002	-3.83258E-002	7.03242E-001	-4.40876E-002	-2.11227E-003	1.69611E-004	-1.85125E-002	-1.64165E-002	8.31992E-004	1.17281E-003	-2.15200E-002	1.34913E-003
	93	93	4.99892E-002	-3.01997E-002	0.00000E+000	-1.50966E-003	-2.99015E-001	4.14095E-002	3.38316E+001	11	...........	6.90722E-002	-5.51347E-003	6.04792E-001	5.36303E-001	-2.72017E-002	-3.83315E-002	7.03253E-001	-4.41632E-002	-2.08596E-003	1.66505E-004	-1.82645E-002	-1.61962E-002	8.21482E-004	1.15760E-003	-2.12380E-002	1.33372E-003
	94	94	4.99935E-002	-2.98492E-002	0.00000E+000	-1.49227E-003	-2.95516E-001	4.14273E-002	3.38759E+001	11	...........	6.91165E-002	-5.44028E-003	6.04741E-001	5.36268E-001	-2.72228E-002	-3.83331E-002	7.03345E-001	-4.42497E-002	-2.06308E-003	1.62388E-004	-1.80511E-002	-1.60072E-002	8.12579E-004	1.14421E-003	-2.09943E-002	1.32082E-003
	95	95	4.99910E-002	-2.94734E-002	0.00000E+000	-1.47340E-003	-2.91809E-001	4.14627E-002	3.38067E+001	11	...........	6.91558E-002	-5.45847E-003	6.04649E-001	5.36358E-001	-2.72596E-002	-3.83487E-002	7.03379E-001	-4.42914E-002	-2.03825E-003	1.60879E-004	-1.78210E-002	-1.58083E-002	8.03431E-004	1.13027E-003	-2.07309E-002	1.30542E-003
	96	96	4.99858E-002	-2.89975E-002	0.00000E+000	-1.44946E-003	-2.87071E-001	4.14299E-002	3.33317E+001	11	...........	6.91142E-002	-5.46792E-003	6.04560E-001	5.36408E-001	-2.72326E-002	-3.83397E-002	7.03319E-001	-4.42931E-002	-2.00413E-003	1.58556E-004	-1.75307E-002	-1.55545E-002	7.89677E-004	1.11175E-003	-2.03945E-002	1.28439E-003
	97	97	4.99990E-002	-2.86968E-002	0.00000E+000	-1.43481E-003	-2.84072E-001	4.15076E-002	3.38596E+001	11	...........	6.92497E-002	-5.50181E-003	6.04758E-001	5.36285E-001	-2.72447E-002	-3.83301E-002	7.03400E-001	-4.41893E-002	-1.98724E-003	1.57884E-004	-1.73546E-002	-1.53896E-002	7.81836E-004	1.09995E-003	-2.01853E-002	1.26809E-003
	98	98	4.99926E-002	-2.84341E-002	0.00000E+000	-1.42150E-003	-2.81464E-001	4.14882E-002	3.40109E+001	11	...........	6.92004E-002	-5.49833E-003	6.04657E-001	5.36400E-001	-2.72689E-002	-3.83332E-002	7.03436E-001	-4.40453E-002	-1.96765E-003	1.56340E-004	-1.71929E-002	-1.52521E-002	7.75368E-004	1.08997E-003	-2.00016E-002	1.25239E-003
	99	99	4.99904E-002	-2.81557E-002	0.00000E+000	-1.40751E-003	-2.78701E-001	4.15173E-002	3.40089E+001	11	...........	6.92575E-002	-5.50833E-003	6.04651E-001	5.36549E-001	-2.72653E-002	-3.83344E-002	7.03339E-001	-4.40011E-002	-1.94999E-003	1.55091E-004	-1.70244E-002	-1.51069E-002	7.67673E-004	1.07933E-003	-1.98030E-002	1.23888E-003
	100	100	4.99943E-002	-2.78770E-002	0.00000E+000	-1.39369E-003	-2.75921E-001	4.15499E-002	3.40475E+001	11	...........	6.93221E-002	-5.55389E-003	6.04404E-001	5.36418E-001	-2.72753E-002	-3.83337E-002	7.03442E-001	-4.40781E-002	-1.93249E-003	1.54826E-004	-1.68490E-002	-1.49537E-002	7.60353E-004	1.06863E-003	-1.96099E-002	1.22876E-003
	101	101	4.99920E-002	-2.74631E-002	0.00000E+000	-1.37293E-003	-2.71791E-001	4.15611E-002	3.41133E+001	11	...........	6.93412E-002	-5.50667E-003	6.04408E-001	5.36492E-001	-2.73031E-002	-3.83558E-002	7.03444E-001	-4.42333E-002	-1.90432E-003	1.51230E-004	-1.65989E-002	-1.47337E-002	7.49826E-004	1.05337E-003	-1.93187E-002	1.21478E-003
	102	102	4.99930E-002	-2.72077E-002	0.00000E+000	-1.36020E-003	-2.69248E-001	4.15750E-002	3.41187E+001	11	...........	6.93769E-002	-5.50694E-003	6.04383E-001	5.36541E-001	-2.73076E-002	-3.83553E-002	7.03528E-001	-4.41568E-002	-1.88759E-003	1.49831E-004	-1.64439E-002	-1.45981E-002	7.42979E-004	1.04356E-003	-1.91414E-002	1.20141E-003
	103	103	4.99876E-002	-2.66632E-002	0.00000E+000	-1.33283E-003	-2.63851E-001	4.16454E-002	3.36145E+001	11	...........	6.94671E-002	-5.53667E-003	6.04329E-001	5.36509E-001	-2.72971E-002	-3.83642E-002	7.03448E-001	-4.40236E-002	-1.85221E-003	1.47625E-004	-1.61133E-002	-1.43050E-002	7.27826E-004	1.02291E-003	-1.87561E-002	1.17381E-003
	104	104	4.99922E-002	-2.59374E-002	0.00000E+000	-1.29667E-003	-2.56631E-001	4.14731E-002	3.34115E+001	11	...........	6.91849E-002	-5.49417E-003	6.04270E-001	5.36464E-001	-2.72854E-002	-3.83617E-002	7.03360E-001	-4.40344E-002	-1.79448E-003	1.42505E-004	-1.56732E-002	-1.39145E-002	7.07713E-004	9.95003E-004	-1.82433E-002	1.14214E-003
	105	105	4.99968E-002	-2.61622E-002	0.00000E+000	-1.30803E-003	-2.58861E-001	4.16927E-002	3.40399E+001	11	...........	6.95549E-002	-5.56181E-003	6.04239E-001	5.36218E-001	-2.72937E-002	-3.83707E-002	7.03400E-001	-4.41012E-002	-1.81971E-003	1.45509E-004	-1.58083E-002	-1.40287E-002	7.14066E-004	1.00386E-003	-1.84025E-002	1.15379E-003
	106	106	4.99918E-002	-2.58733E-002	0.00000E+000	-1.29345E-003	-2.55999E-001	4.16396E-002	3.41405E+001	11	...........	6.94640E-002	-5.67306E-003	6.04257E-001	5.36091E-001	-2.72946E-002	-3.83444E-002	7.03298E-001	-4.41764E-002	-1.79727E-003	1.46781E-004	-1.56341E-002	-1.38705E-002	7.06202E-004	9.92098E-004	-1.81967E-002	1.14299E-003
	107	107	4.99923E-002	-2.56109E-002	0.00000E+000	-1.28035E-003	-2.53387E-001	4.17049E-002	3.41565E+001	11	...........	6.95601E-002	-5.63458E-003	6.04170E-001	5.36061E-001	-2.72907E-002	-3.83582E-002	7.03233E-001	-4.41406E-002	-1.78150E-003	1.44307E-004	-1.54733E-002	-1.37290E-002	6.98939E-004	9.82387E-004	-1.80104E-002	1.13048E-003
	108	108	4.99932E-002	-2.53265E-002	0.00000E+000	-1.26616E-003	-2.50553E-001	4.16885E-002	3.41911E+001	11	...........	6.95436E-002	-5.52236E-003	6.04166E-001	5.36107E-001	-2.72890E-002	-3.83328E-002	7.03399E-001	-4.40314E-002	-1.76130E-003	1.39862E-004	-1.53014E-002	-1.35778E-002	6.91137E-004	9.70837E-004	-1.78147E-002	1.11516E-003
	109	109	4.99912E-002	-2.50067E-002	0.00000E+000	-1.25011E-003	-2.47365E-001	4.16912E-002	3.42358E+001	11	...........	6.95624E-002	-5.46014E-003	6.04398E-001	5.36126E-001	-2.72771E-002	-3.83306E-002	7.03308E-001	-4.39403E-002	-1.73952E-003	1.36540E-004	-1.51140E-002	-1.34067E-002	6.82110E-004	9.58520E-004	-1.75874E-002	1.09880E-003
	110	110	4.99959E-002	-2.48246E-002	0.00000E+000	-1.24112E-003	-2.45545E-001	4.17262E-002	3.43214E+001	11	...........	6.96125E-002	-5.53528E-003	6.04274E-001	5.36190E-001	-2.72503E-002	-3.83499E-002	7.03465E-001	-4.40444E-002	-1.72810E-003	1.37411E-004	-1.50008E-002	-1.33107E-002	6.76476E-004	9.52018E-004	-1.74632E-002	1.09338E-003
	111	111	4.99900E-002	-2.44591E-002	0.00000E+000	-1.22271E-003	-2.41932E-001	4.17448E-002	3.43861E+001	11	...........	6.96349E-002	-5.52889E-003	6.04229E-001	5.36142E-001	-2.72407E-002	-3.83593E-002	7.03534E-001	-4.41806E-002	-1.70320E-003	1.35231E-004	-1.47789E-002	-1.31135E-002	6.66282E-004	9.38233E-004	-1.72078E-002	1.08061E-003
	112	112	4.99908E-002	-2.40344E-002	0.00000E+000	-1.20150E-003	-2.37708E-001	4.17572E-002	3.39879E+001	11	...........	6.96630E-002	-5.48306E-003	6.04269E-001	5.36071E-001	-2.72532E-002	-3.83547E-002	7.03465E-001	-4.40629E-002	-1.67431E-003	1.31782E-004	-1.45232E-002	-1.28841E-002	6.55014E-004	9.21832E-004	-1.69074E-002	1.05903E-003
	113	113	4.99917E-002	-2.35584E-002	0.00000E+000	-1.17772E-003	-2.32971E-001	4.17073E-002	3.38748E+001	11	...........	6.95779E-002	-5.52139E-003	6.04228E-001	5.36104E-001	-2.72339E-002	-3.83315E-002	7.03465E-001	-4.40794E-002	-1.63914E-003	1.30075E-004	-1.42347E-002	-1.26298E-002	6.41587E-004	9.03029E-004	-1.65725E-002	1.03844E-003
	114	114	4.99958E-002	-2.34977E-002	0.00000E+000	-1.17479E-003	-2.32362E-001	4.18072E-002	3.43351E+001	11	...........	6.97536E-002	-5.53403E-003	6.04324E-001	5.36123E-001	-2.72199E-002	-3.83687E-002	7.03467E-001	-4.40415E-002	-1.63905E-003	1.30037E-004	-1.42002E-002	-1.25977E-002	6.39605E-004	9.01579E-004	-1.65299E-002	1.03488E-003
	115	115	4.99921E-002	-2.32175E-002	0.00000E+000	-1.16069E-003	-2.29586E-001	4.17855E-002	3.44389E+001	11	...........	6.97035E-002	-5.53417E-003	6.04448E-001	5.36089E-001	-2.72410E-002	-3.83897E-002	7.03350E-001	-4.39869E-002	-1.61834E-003	1.28490E-004	-1.40338E-002	-1.24467E-002	6.32468E-004	8.91315E-004	-1.63301E-002	1.02127E-003
	116	116	4.99933E-002	-2.29754E-002	0.00000E+000	-1.14862E-003	-2.27173E-001	4.18268E-002	3.44568E+001	11	...........	6.97839E-002	-5.48500E-003	6.04452E-001	5.36129E-001	-2.72289E-002	-3.83740E-002	7.03452E-001	-4.39649E-002	-1.60331E-003	1.26020E-004	-1.38875E-002	-1.23178E-002	6.25594E-004	8.81658E-004	-1.61621E-002	1.01011E-003
	117	117	4.99931E-002	-2.26950E-002	0.00000E+000	-1.13460E-003	-2.24381E-001	4.18354E-002	3.44322E+001	11	...........	6.97919E-002	-5.44653E-003	6.04503E-001	5.36237E-001	-2.72537E-002	-3.84112E-002	7.03432E-001	-4.39737E-002	-1.58393E-003	1.23609E-004	-1.37192E-002	-1.21699E-002	6.18525E-004	8.71745E-004	-1.59644E-002	9.97986E-004
	118	118	4.99925E-002	-2.23956E-002	0.00000E+000	-1.11961E-003	-2.21398E-001	4.18542E-002	3.44296E+001	11	...........	6.98278E-002	-5.50194E-003	6.04418E-001	5.36178E-001	-2.72512E-002	-3.84164E-002	7.03487E-001	-4.39839E-002	-1.56383E-003	1.23219E-004	-1.35363E-002	-1.20080E-002	6.10308E-004	8.60357E-004	-1.57550E-002	9.85045E-004
	119	119	4.99929E-002	-2.21667E-002	0.00000E+000	-1.10818E-003	-2.19117E-001	4.18815E-002	3.45353E+001	11	...........	6.98658E-002	-5.44958E-003	6.04532E-001	5.36178E-001	-2.72508E-002	-3.84133E-002	7.03453E-001	-4.40325E-002	-1.54870E-003	1.20799E-004	-1.34005E-002	-1.18853E-002	6.04061E-004	8.51497E-004	-1.55933E-002	9.76056E-004
	120	120	4.99923E-002	-2.18974E-002	0.00000E+000	-1.09470E-003	-2.16443E-001	4.19067E-002	3.45787E+001	11	...........	6.99056E-002	-5.32833E-003	6.04539E-001	5.36244E-001	-2.72643E-002	-3.84133E-002	7.03409E-001	-4.39889E-002	-1.53075E-003	1.16676E-004	-1.32378E-002	-1.17423E-002	5.97016E-004	8.41150E-004	-1.54028E-002	9.63240E-004
	121	121	4.99932E-002	-2.15890E-002	0.00000E+000	-1.07930E-003	-2.13394E-001	4.19312E-002	3.45953E+001	11	...........	6.99481E-002	-5.36931E-003	6.04615E-001	5.36237E-001	-2.72700E-002	-3.84167E-002	7.03391E-001	-4.40382E-002	-1.51011E-003	1.15918E-004	-1.30530E-002	-1.15768E-002	5.88732E-004	8.29377E-004	-1.51855E-002	9.50740E-004
	122	122	4.99920E-002	-2.12971E-002	0.00000E+000	-1.06468E-003	-2.10485E-001	4.19188E-002	3.46288E+001	11	...........	6.99463E-002	-5.42472E-003	6.04512E-001	5.36178E-001	-2.72522E-002	-3.84379E-002	7.03325E-001	-4.41339E-002	-1.48965E-003	1.15531E-004	-1.28743E-002	-1.14190E-002	5.80393E-004	8.18616E-004	-1.49788E-002	9.39923E-004
	123	123	4.99938E-002	-2.09274E-002	0.00000E+000	-1.04624E-003	-2.06804E-001	4.19616E-002	3.36327E+001	11	...........	7.00028E-002	-5.55347E-003	6.04347E-001	5.36318E-001	-2.72437E-002	-3.84528E-002	7.03324E-001	-4.42503E-002	-1.46498E-003	1.16220E-004	-1.26474E-002	-1.12237E-002	5.70140E-004	8.04716E-004	-1.47187E-002	9.26043E-004
	124	124	4.99901E-002	-2.02543E-002	0.00000E+000	-1.01251E-003	-2.00124E-001	4.17918E-002	3.39328E+001	11	...........	6.97306E-002	-5.48417E-003	6.04419E-001	5.36204E-001	-2.72500E-002	-3.84650E-002	7.03384E-001	-4.42215E-002	-1.41234E-003	1.11078E-004	-1.22421E-002	-1.08604E-002	5.51930E-004	7.79082E-004	-1.42466E-002	8.95676E-004
	125	125	4.99961E-002	-2.05121E-002	0.00000E+000	-1.02553E-003	-2.02697E-001	4.19996E-002	3.46301E+001	11	...........	7.00713E-002	-5.57667E-003	6.04394E-001	5.36107E-001	-2.72644E-002	-3.84585E-002	7.03613E-001	-4.41479E-002	-1.43731E-003	1.14389E-004	-1.23974E-002	-1.09967E-002	5.59252E-004	7.88865E-004	-1.44326E-002	9.05568E-004
	126	126	4.99941E-002	-2.02307E-002	0.00000E+000	-1.01142E-003	-1.99886E-001	4.19316E-002	3.47535E+001	11	...........	6.99542E-002	-5.60528E-003	6.04571E-001	5.36068E-001	-2.72583E-002	-3.84464E-002	7.03584E-001	-4.40603E-002	-1.41522E-003	1.13399E-004	-1.22309E-002	-1.08450E-002	5.51455E-004	7.77797E-004	-1.42340E-002	8.91370E-004
	127	127	4.99932E-002	-2.01125E-002	0.00000E+000	-1.00549E-003	-1.98709E-001	4.20217E-002	3.47758E+001	11	...........	7.00989E-002	-5.53139E-003	6.04618E-001	5.36016E-001	-2.72667E-002	-3.84400E-002	7.03492E-001	-4.40717E-002	-1.40987E-003	1.11250E-004	-1.21604E-002	-1.07806E-002	5.48401E-004	7.73125E-004	-1.41490E-002	8.86392E-004
	128	128	4.99924E-002	-1.98153E-002	0.00000E+000	-9.90613E-004	-1.95751E-001	4.20063E-002	3.47790E+001	11	...........	7.00699E-002	-5.56222E-003	6.04622E-001	5.36061E-001	-2.72696E-002	-3.84608E-002	7.03410E-001	-4.40747E-002	-1.38845E-003	1.10217E-004	-1.19808E-002	-1.06222E-002	5.40354E-004	7.62112E-004	-1.39383E-002	8.73353E-004
	129	129	4.99927E-002	-1.95717E-002	0.00000E+000	-9.78442E-004	-1.93314E-001	4.20097E-002	3.47507E+001	11	...........	7.00808E-002	-5.55250E-003	6.04555E-001	5.36127E-001	-2.72757E-002	-3.84589E-002	7.03431E-001	-4.41222E-002	-1.37160E-003	1.08672E-004	-1.18322E-002	-1.04929E-002	5.33832E-004	7.52706E-004	-1.37673E-002	8.63547E-004
	130	130	4.99943E-002	-1.93390E-002	0.00000E+000	-9.66839E-004	-1.91007E-001	4.20377E-002	3.39640E+001	11	...........	7.01329E-002	-5.54875E-003	6.04699E-001	5.36142E-001	-2.73042E-002	-3.84481E-002	7.03499E-001	-4.41589E-002	-1.35630E-003	1.07307E-004	-1.16943E-002	-1.03684E-002	5.28034E-004	7.43545E-004	-1.36049E-002	8.53987E-004
	131	131	4.99929E-002	-1.88682E-002	0.00000E+000	-9.43276E-004	-1.86345E-001	4.19508E-002	3.45176E+001	11	...........	6.99967E-002	-5.57069E-003	6.04647E-001	5.36256E-001	-2.72978E-002	-3.84440E-002	7.03484E-001	-4.40621E-002	-1.32071E-003	1.05109E-004	-1.14086E-002	-1.01182E-002	5.15060E-004	7.25369E-004	-1.32735E-002	8.31372E-004
	132	132	4.99937E-002	-1.88541E-002	0.00000E+000	-9.42585E-004	-1.86201E-001	4.20682E-002	3.47853E+001	11	...........	7.01949E-002	-5.49708E-003	6.04530E-001	5.36119E-001	-2.72826E-002	-3.84281E-002	7.03452E-001	-4.39624E-002	-1.32346E-003	1.03642E-004	-1.13979E-002	-1.01080E-002	5.14389E-004	7.24526E-004	-1.32630E-002	8.28870E-004
	133	133	4.99922E-002	-1.85822E-002	0.00000E+000	-9.28966E-004	-1.83493E-001	4.20048E-002	3.48800E+001	11	...........	7.00753E-002	-5.49833E-003	6.04368E-001	5.36043E-001	-2.72856E-002	-3.84151E-002	7.03492E-001	-4.39562E-002	-1.30215E-003	1.02171E-004	-1.12305E-002	-9.96086E-003	5.07026E-004	7.13838E-004	-1.30724E-002	8.16804E-004
	134	134	4.99952E-002	-1.83753E-002	0.00000E+000	-9.18678E-004	-1.81429E-001	4.20372E-002	3.48487E+001	11	...........	7.01279E-002	-5.60583E-003	6.04419E-001	5.36053E-001	-2.72792E-002	-3.84460E-002	7.03527E-001	-4.40136E-002	-1.28862E-003	1.03009E-004	-1.11064E-002	-9.85014E-003	5.01263E-004	7.06457E-004	-1.29275E-002	8.08764E-004
	135	135	4.99932E-002	-1.82079E-002	0.00000E+000	-9.10269E-004	-1.79769E-001	4.20660E-002	3.49172E+001	11	...........	7.01843E-002	-5.57653E-003	6.04347E-001	5.36170E-001	-2.72744E-002	-3.84412E-002	7.03368E-001	-4.39964E-002	-1.27791E-003	1.01537E-004	-1.10039E-002	-9.76252E-003	4.96609E-004	6.99933E-004	-1.28068E-002	8.01080E-004
	136	136	4.99939E-002	-1.80217E-002	0.00000E+000	-9.00978E-004	-1.77933E-001	4.20793E-002	3.49202E+001	11	...........	7.01915E-002	-5.54708E-003	6.04353E-001	5.36000E-001	-2.72704E-002	-3.84389E-002	7.03468E-001	-4.40671E-002	-1.26497E-003	9.99681E-005	-1.08915E-002	-9.65965E-003	4.91460E-004	6.92736E-004	-1.26777E-002	7.94166E-004
	137	137	4.99937E-002	-1.77697E-002	0.00000E+000	-8.88374E-004	-1.75417E-001	4.20617E-002	3.48960E+001	11	...........	7.01662E-002	-5.46444E-003	6.04378E-001	5.36000E-001	-2.72807E-002	-3.84335E-002	7.03489E-001	-4.40471E-002	-1.24683E-003	9.71017E-005	-1.07396E-002	-9.52457E-003	4.84770E-004	6.82952E-004	-1.25008E-002	7.82705E-004
	138	138	4.99922E-002	-1.75223E-002	0.00000E+000	-8.75980E-004	-1.72950E-001	4.20897E-002	3.49287E+001	11	...........	7.02244E-002	-5.55875E-003	6.04200E-001	5.35985E-001	-2.72765E-002	-3.84358E-002	7.03370E-001	-4.39429E-002	-1.23050E-003	9.74023E-005	-1.05870E-002	-9.39171E-003	4.77949E-004	6.73486E-004	-1.23247E-002	7.69983E-004
	139	139	4.99946E-002	-1.73349E-002	0.00000E+000	-8.66652E-004	-1.71086E-001	4.20959E-002	3.49307E+001	11	...........	7.02269E-002	-5.57208E-003	6.04121E-001	5.35900E-001	-2.72647E-002	-3.84690E-002	7.03342E-001	-4.38640E-002	-1.21738E-003	9.65915E-005	-1.04724E-002	-9.28977E-003	4.72631E-004	6.66857E-004	-1.21924E-002	7.60378E-004
	140	140	4.99923E-002	-1.70882E-002	0.00000E+000	-8.54278E-004	-1.68623E-001	4.21104E-002	3.49669E+001	11	...........	7.02522E-002	-5.46778E-003	6.04101E-001	5.35744E-001	-2.72596E-002	-3.84696E-002	7.03388E-001	-4.39096E-002	-1.20048E-003	9.34344E-005	-1.03230E-002	-9.15489E-003	4.65817E-004	6.57375E-004	-1.20196E-002	7.50335E-004
	141	141	4.99934E-002	-1.68641E-002	0.00000E+000	-8.43093E-004	-1.66393E-001	4.21157E-002	3.49849E+001	11	...........	7.02626E-002	-5.43056E-003	6.04133E-001	5.35813E-001	-2.72358E-002	-3.84793E-002	7.03436E-001	-4.39746E-002	-1.18491E-003	9.15813E-005	-1.01881E-002	-9.03599E-003	4.59307E-004	6.48918E-004	-1.18628E-002	7.41591E-004
	142	142	4.99955E-002	-1.67203E-002	0.00000E+000	-8.35938E-004	-1.64977E-001	4.21251E-002	3.50383E+001	11	...........	7.02646E-002	-5.42500E-003	6.04239E-001	5.35783E-001	-2.72401E-002	-3.84878E-002	7.03307E-001	-4.40135E-002	-1.17484E-003	9.07075E-005	-1.01030E-002	-8.95844E-003	4.55463E-004	6.43526E-004	-1.17595E-002	7.35917E-004
	143	143	4.99919E-002	-1.63600E-002	0.00000E+000	-8.17869E-004	-1.61397E-001	4.21612E-002	3.40856E+001	11	...........	7.03325E-002	-5.52458E-003	6.04238E-001	5.35852E-001	-2.72708E-002	-3.84708E-002	7.03386E-001	-4.40336E-002	-1.15064E-003	9.03824E-005	-9.88537E-003	-8.76656E-003	4.46152E-004	6.29384E-004	-1.15074E-002	7.20392E-004
	144	144	4.99943E-002	-1.59514E-002	0.00000E+000	-7.97478E-004	-1.57325E-001	4.20131E-002	3.44241E+001	11	...........	7.01024E-002	-5.45583E-003	6.04302E-001	5.35839E-001	-2.73058E-002	-3.84553E-002	7.03527E-001	-4.41292E-002	-1.11823E-003	8.70280E-005	-9.63945E-003	-8.54736E-003	4.35566E-004	6.13415E-004	-1.12222E-002	7.03921E-004
	145	145	4.99941E-002	-1.60839E-002	0.00000E+000	-8.04098E-004	-1.58651E-001	4.21969E-002	3.50231E+001	11	...........	7.04031E-002	-5.50111E-003	6.04372E-001	5.35887E-001	-2.72644E-002	-3.84503E-002	7.03502E-001	-4.41414E-002	-1.13235E-003	8.84791E-005	-9.72064E-003	-8.61913E-003	4.38518E-004	6.18429E-004	-1.13150E-002	7.09964E-004
	146	146	4.99944E-002	-1.58703E-002	0.00000E+000	-7.93424E-004	-1.56521E-001	4.21367E-002	3.50780E+001	11	...........	7.02842E-002	-5.52014E-003	6.04340E-001	5.35734E-001	-2.72935E-002	-3.84471E-002	7.03416E-001	-4.39650E-002	-1.11543E-003	8.76061E-005	-9.59104E-003	-8.50224E-003	4.33155E-004	6.10165E-004	-1.11634E-002	6.97736E-004
	147	147	4.99925E-002	-1.57062E-002	0.00000E+000	-7.85194E-004	-1.54887E-001	4.21912E-002	3.42259E+001	11	...........	7.03887E-002	-5.42222E-003	6.04121E-001	5.35692E-001	-2.73112E-002	-3.84622E-002	7.03499E-001	-4.39681E-002	-1.10554E-003	8.51628E-005	-9.48848E-003	-8.41371E-003	4.28957E-004	6.04097E-004	-1.10493E-002	6.90573E-004
	148	148	4.99949E-002	-1.53248E-002	0.00000E+000	-7.66160E-004	-1.51100E-001	4.21418E-002	3.49193E+001	11	...........	7.03036E-002	-5.37875E-003	6.04244E-001	5.35518E-001	-2.73157E-002	-3.84897E-002	7.03442E-001	-4.40308E-002	-1.07739E-003	8.24282E-005	-9.25990E-003	-8.20669E-003	4.18607E-004	5.89847E-004	-1.07801E-002	6.74763E-004
	149	149	4.99936E-002	-1.53167E-002	0.00000E+000	-7.65737E-004	-1.51019E-001	4.22008E-002	3.50941E+001	11	...........	7.04006E-002	-5.39458E-003	6.04187E-001	5.35414E-001	-2.73029E-002	-3.85122E-002	7.03515E-001	-4.40799E-002	-1.07830E-003	8.26272E-005	-9.25415E-003	-8.20078E-003	4.18191E-004	5.89880E-004	-1.07755E-002	6.75158E-004
	150	150	4.99947E-002	-1.51396E-002	0.00000E+000	-7.56900E-004	-1.49255E-001	4.21918E-002	3.50456E+001	11	...........	7.03693E-002	-5.32431E-003	6.04187E-001	5.35367E-001	-2.72919E-002	-3.84961E-002	7.03445E-001	-4.41687E-002	-1.06536E-003	8.06079E-005	-9.14715E-003	-8.10525E-003	4.13189E-004	5.82816E-004	-1.06499E-002	6.68698E-004
	151	151	4.99932E-002	-1.49456E-002	0.00000E+000	-7.47180E-004	-1.47317E-001	4.22059E-002	3.50988E+001	11	...........	7.04140E-002	-5.39417E-003	6.04290E-001	5.35352E-001	-2.72540E-002	-3.84950E-002	7.03401E-001	-4.39781E-002	-1.05238E-003	8.06193E-005	-9.03151E-003	-8.00118E-003	4.07329E-004	5.75333E-004	-1.05128E-002	6.57281E-004
	152	152	4.99952E-002	-1.47660E-002	0.00000E+000	-7.38228E-004	-1.45529E-001	4.22243E-002	3.51232E+001	11	...........	7.04476E-002	-5.47458E-003	6.04220E-001	5.35481E-001	-2.72344E-002	-3.84779E-002	7.03434E-001	-4.40975E-002	-1.04023E-003	8.08376E-005	-8.92191E-003	-7.90691E-003	4.02143E-004	5.68164E-004	-1.03869E-002	6.51143E-004
	153	153	4.99937E-002	-1.45872E-002	0.00000E+000	-7.29271E-004	-1.43748E-001	4.22132E-002	3.51376E+001	11	...........	7.04319E-002	-5.49306E-003	6.04331E-001	5.35583E-001	-2.72174E-002	-3.84619E-002	7.03464E-001	-4.40408E-002	-1.02741E-003	8.01286E-005	-8.81552E-003	-7.81268E-003	3.97026E-004	5.61054E-004	-1.02616E-002	6.42435E-004
	154	154	4.99940E-002	-1.44066E-002	0.00000E+000	-7.20244E-004	-1.41945E-001	4.22002E-002	3.51712E+001	11	...........	7.04094E-002	-5.47944E-003	6.04385E-001	5.35733E-001	-2.72219E-002	-3.84489E-002	7.03331E-001	-4.39889E-002	-1.01436E-003	7.89403E-005	-8.70715E-003	-7.71810E-003	3.92176E-004	5.53919E-004	-1.01326E-002	6.33731E-004
	155	155	4.99940E-002	-1.42263E-002	0.00000E+000	-7.11228E-004	-1.40164E-001	4.22373E-002	3.52167E+001	11	...........	7.04563E-002	-5.52319E-003	6.04375E-001	5.35812E-001	-2.72057E-002	-3.84535E-002	7.03258E-001	-4.41362E-002	-1.00233E-003	7.85745E-005	-8.59800E-003	-7.62261E-003	3.87036E-004	5.47050E-004	-1.00047E-002	6.27894E-004
	156	156	4.99937E-002	-1.40384E-002	0.00000E+000	-7.01832E-004	-1.38316E-001	4.22527E-002	3.51662E+001	11	...........	7.04769E-002	-5.49681E-003	6.04380E-001	5.35742E-001	-2.71749E-002	-3.84500E-002	7.03296E-001	-4.41825E-002	-9.89384E-004	7.71664E-005	-8.48453E-003	-7.52096E-003	3.81492E-004	5.39777E-004	-9.87315E-003	6.20252E-004
	157	157	4.99940E-002	-1.39048E-002	0.00000E+000	-6.95156E-004	-1.36983E-001	4.22309E-002	3.48019E+001	11	...........	7.04493E-002	-5.52486E-003	6.04335E-001	5.35758E-001	-2.71542E-002	-3.84217E-002	7.03287E-001	-4.42183E-002	-9.79582E-004	7.68220E-005	-8.40314E-003	-7.44960E-003	3.77573E-004	5.34245E-004	-9.77905E-003	6.14846E-004
	158	158	4.99941E-002	-1.37446E-002	0.00000E+000	-6.87150E-004	-1.35389E-001	4.22202E-002	3.50344E+001	11	...........	7.04829E-002	-5.54778E-003	6.04488E-001	5.35842E-001	-2.71751E-002	-3.84190E-002	7.03208E-001	-4.41090E-002	-9.68761E-004	7.62521E-005	-8.30846E-003	-7.36495E-003	3.73512E-004	5.28055E-004	-9.66533E-003	6.06262E-004
	159	159	4.99943E-002	-1.35115E-002	0.00000E+000	-6.75499E-004	-1.33063E-001	4.22633E-002	3.50894E+001	11	...........	7.05108E-002	-5.50611E-003	6.04494E-001	5.36030E-001	-2.71812E-002	-3.84312E-002	7.03254E-001	-4.41329E-002	-9.52708E-004	7.43959E-005	-8.16762E-003	-7.24257E-003	3.67260E-004	5.19264E-004	-9.50203E-003	5.96303E-004
	160	160	4.99947E-002	-1.33758E-002	0.00000E+000	-6.68718E-004	-1.31708E-001	4.22910E-002	3.51169E+001	11	...........	7.05478E-002	-5.51500E-003	6.04524E-001	5.36040E-001	-2.71868E-002	-3.84546E-002	7.03356E-001	-4.42092E-002	-9.43632E-004	7.37675E-005	-8.08599E-003	-7.16996E-003	3.63645E-004	5.14360E-004	-9.40794E-003	5.91333E-004
	161	161	4.99943E-002	-1.32319E-002	0.00000E+000	-6.61520E-004	-1.30275E-001	4.23011E-002	3.51268E+001	11	...........	7.05558E-002	-5.45528E-003	6.04491E-001	5.35945E-001	-2.71803E-002	-3.84611E-002	7.03327E-001	-4.41287E-002	-9.33588E-004	7.21837E-005	-7.99857E-003	-7.09157E-003	3.59647E-004	5.08914E-004	-9.30636E-003	5.83908E-004
	162	162	4.99942E-002	-1.30834E-002	0.00000E+000	-6.54091E-004	-1.28801E-001	4.22953E-002	3.51321E+001	11	...........	7.05611E-002	-5.44222E-003	6.04470E-001	5.35928E-001	-2.71685E-002	-3.84637E-002	7.03200E-001	-4.40439E-002	-9.23176E-004	7.12025E-005	-7.90850E-003	-7.01174E-003	3.55455E-004	5.03235E-004	-9.20022E-003	5.76242E-004
	163	163	4.99938E-002	-1.28375E-002	0.00000E+000	-6.41795E-004	-1.26369E-001	4.23282E-002	3.50052E+001	11	...........	7.06306E-002	-5.43375E-003	6.04503E-001	5.35717E-001	-2.71817E-002	-3.84590E-002	7.03332E-001	-4.40533E-002	-9.06718E-004	6.97556E-005	-7.76029E-003	-6.87726E-003	3.48944E-004	4.93717E-004	-9.02901E-003	5.65534E-004
	164	164	4.99883E-002	-1.25892E-002	0.00000E+000	-6.29310E-004	-1.23892E-001	4.22119E-002	3.37079E+001	11	...........	7.04140E-002	-5.39361E-003	6.04476E-001	5.35734E-001	-2.71906E-002	-3.84439E-002	7.03424E-001	-4.40207E-002	-8.86453E-004	6.79010E-005	-7.60984E-003	-6.74443E-003	3.42306E-004	4.83976E-004	-8.85551E-003	5.54183E-004
	165	165	5.00017E-002	-1.24717E-002	0.00000E+000	-6.23607E-004	-1.22720E-001	4.23347E-002	3.49279E+001	11	...........	7.06187E-002	-5.42542E-003	6.04369E-001	5.35948E-001	-2.72024E-002	-3.84535E-002	7.03437E-001	-4.39981E-002	-8.80737E-004	6.76643E-005	-7.53751E-003	-6.68419E-003	3.39260E-004	4.79581E-004	-8.77306E-003	5.48731E-004
	166	166	4.99946E-002	-1.24825E-002	0.00000E+000	-6.24058E-004	-1.22824E-001	4.22902E-002	3.52964E+001	11	...........	7.05556E-002	-5.50181E-003	6.04281E-001	5.35871E-001	-2.72029E-002	-3.84432E-002	7.03471E-001	-4.40937E-002	-8.80709E-004	6.86763E-005	-7.54293E-003	-6.68900E-003	3.39560E-004	4.79867E-004	-8.78108E-003	5.50400E-004
	167	167	4.99950E-002	-1.23948E-002	0.00000E+000	-6.19679E-004	-1.21945E-001	4.23039E-002	3.52907E+001	11	...........	7.05726E-002	-5.42500E-003	6.04375E-001	5.35737E-001	-2.72221E-002	-3.84293E-002	7.03435E-001	-4.41042E-002	-8.74735E-004	6.72419E-005	-7.49112E-003	-6.64036E-003	3.37413E-004	4.76324E-004	-8.71895E-003	5.46663E-004
	168	168	4.99931E-002	-1.22185E-002	0.00000E+000	-6.10840E-004	-1.20194E-001	4.23271E-002	3.53181E+001	11	...........	7.06171E-002	-5.48083E-003	6.04486E-001	5.35621E-001	-2.72407E-002	-3.84344E-002	7.03251E-001	-4.39407E-002	-8.62832E-004	6.69674E-005	-7.38589E-003	-6.54447E-003	3.32840E-004	4.69610E-004	-8.59265E-003	5.36888E-004
	169	169	4.99948E-002	-1.20821E-002	0.00000E+000	-6.04041E-004	-1.18836E-001	4.23421E-002	3.53708E+001	11	...........	7.06296E-002	-5.50500E-003	6.04518E-001	5.35628E-001	-2.72572E-002	-3.84525E-002	7.03277E-001	-4.39081E-002	-8.53352E-004	6.65118E-005	-7.30383E-003	-6.47150E-003	3.29324E-004	4.64586E-004	-8.49705E-003	5.30500E-004
	170	170	4.99945E-002	-1.19080E-002	0.00000E+000	-5.95335E-004	-1.17099E-001	4.23282E-002	3.54379E+001	11	...........	7.06029E-002	-5.51139E-003	6.04475E-001	5.35768E-001	-2.72837E-002	-3.84615E-002	7.03335E-001	-4.38047E-002	-8.40740E-004	6.56297E-005	-7.19810E-003	-6.37993E-003	3.24895E-004	4.58000E-004	-8.37532E-003	5.21627E-004
	171	171	4.99946E-002	-1.17549E-002	0.00000E+000	-5.87680E-004	-1.15572E-001	4.23469E-002	3.54689E+001	11	...........	7.06350E-002	-5.34611E-003	6.04378E-001	5.35569E-001	-2.72954E-002	-3.84624E-002	7.03314E-001	-4.39031E-002	-8.30306E-004	6.28429E-005	-7.10439E-003	-6.29555E-003	3.20854E-004	4.52120E-004	-8.26737E-003	5.16075E-004
	172	172	4.99941E-002	-1.16350E-002	0.00000E+000	-5.81679E-004	-1.14393E-001	4.23376E-002	3.54533E+001	11	...........	7.06325E-002	-5.44403E-003	6.04510E-001	5.35568E-001	-2.72547E-002	-3.84467E-002	7.03361E-001	-4.39893E-002	-8.21806E-004	6.33410E-005	-7.03345E-003	-6.23131E-003	3.17108E-004	4.47325E-004	-8.18357E-003	5.11814E-004
	173	173	4.99946E-002	-1.14705E-002	0.00000E+000	-5.73464E-004	-1.12777E-001	4.23362E-002	3.50071E+001	11	...........	7.06325E-002	-5.46708E-003	6.04657E-001	5.35665E-001	-2.72382E-002	-3.84322E-002	7.03358E-001	-4.39172E-002	-8.10192E-004	6.27103E-005	-6.93573E-003	-6.14436E-003	3.12437E-004	4.40838E-004	-8.06789E-003	5.03754E-004
	174	174	4.99951E-002	-1.13516E-002	0.00000E+000	-5.67523E-004	-1.11585E-001	4.23410E-002	3.53394E+001	11	...........	7.06424E-002	-5.39583E-003	6.04757E-001	5.35773E-001	-2.72383E-002	-3.83996E-002	7.03332E-001	-4.39015E-002	-8.01902E-004	6.12512E-005	-6.86494E-003	-6.08186E-003	3.09198E-004	4.35896E-004	-7.98393E-003	4.98351E-004
	175	175	4.99942E-002	-1.12296E-002	0.00000E+000	-5.61413E-004	-1.10373E-001	4.23682E-002	3.53717E+001	11	...........	7.06719E-002	-5.36847E-003	6.04729E-001	5.35772E-001	-2.72378E-002	-3.83874E-002	7.03333E-001	-4.39110E-002	-7.93614E-004	6.02855E-005	-6.79084E-003	-6.01648E-003	3.05868E-004	4.31073E-004	-7.89812E-003	4.93101E-004
	176	176	4.99952E-002	-1.10864E-002	0.00000E+000	-5.54265E-004	-1.08945E-001	4.23898E-002	3.54116E+001	11	...........	7.07211E-002	-5.37972E-003	6.04791E-001	5.35836E-001	-2.72343E-002	-3.83779E-002	7.03422E-001	-4.41085E-002	-7.84041E-004	5.96416E-005	-6.70494E-003	-5.94048E-003	3.01930E-004	4.25472E-004	-7.79840E-003	4.89003E-004
	177	177	4.99940E-002	-1.09420E-002	0.00000E+000	-5.47036E-004	-1.07509E-001	4.24030E-002	3.52436E+001	11	...........	7.07449E-002	-5.44556E-003	6.04731E-001	5.35744E-001	-2.72364E-002	-3.83812E-002	7.03440E-001	-4.41771E-002	-7.74093E-004	5.95855E-005	-6.61699E-003	-5.86213E-003	2.98022E-004	4.19969E-004	-7.69707E-003	4.83387E-004
	178	178	4.99939E-002	-1.07578E-002	0.00000E+000	-5.37826E-004	-1.05680E-001	4.23418E-002	3.40736E+001	11	...........	7.06375E-002	-5.51667E-003	6.04759E-001	5.35657E-001	-2.72381E-002	-3.83814E-002	7.03401E-001	-4.41053E-002	-7.59907E-004	5.93474E-005	-6.50591E-003	-5.76252E-003	2.93023E-004	4.12901E-004	-7.56707E-003	4.74478E-004
	179	179	4.99961E-002	-1.05241E-002	0.00000E+000	-5.26165E-004	-1.03366E-001	4.23238E-002	3.49944E+001	11	...........	7.05975E-002	-5.55972E-003	6.04615E-001	5.35732E-001	-2.72472E-002	-3.83465E-002	7.03416E-001	-4.41533E-002	-7.42977E-004	5.85112E-005	-6.36304E-003	-5.63811E-003	2.86753E-004	4.03563E-004	-7.40283E-003	4.64675E-004
	180	180	4.99951E-002	-1.06095E-002	0.00000E+000	-5.30423E-004	-1.04199E-001	4.24417E-002	3.54805E+001	11	...........	7.08075E-002	-5.45694E-003	6.04736E-001	5.35820E-001	-2.72657E-002	-3.83251E-002	7.03381E-001	-4.41369E-002	-7.51232E-004	5.78954E-005	-6.41594E-003	-5.68478E-003	2.89275E-004	4.06610E-004	-7.46251E-003	4.68271E-004
	181	181	4.99944E-002	-1.04833E-002	0.00000E+000	-5.24107E-004	-1.02953E-001	4.23850E-002	3.55298E+001	11	...........	7.07133E-002	-5.46333E-003	6.04662E-001	5.35804E-001	-2.72447E-002	-3.83192E-002	7.03425E-001	-4.40571E-002	-7.41311E-004	5.72739E-005	-6.33887E-003	-5.61701E-003	2.85615E-004	4.01712E-004	-7.37424E-003	4.61865E-004
	182	182	4.99947E-002	-1.03587E-002	0.00000E+000	-5.17882E-004	-1.01748E-001	4.24216E-002	3.55436E+001	11	...........	7.07689E-002	-5.54708E-003	6.04611E-001	5.35870E-001	-2.72485E-002	-3.83281E-002	7.03618E-001	-4.40076E-002	-7.33076E-004	5.74607E-005	-6.26300E-003	-5.55093E-003	2.82260E-004	3.97030E-004	-7.28859E-003	4.55863E-004
	183	183	4.99942E-002	-1.02278E-002	0.00000E+000	-5.11332E-004	-1.00445E-001	4.23993E-002	3.55514E+001	11	...........	7.07486E-002	-5.51486E-003	6.04433E-001	5.35985E-001	-2.72414E-002	-3.83510E-002	7.03578E-001	-4.39668E-002	-7.23606E-004	5.64051E-005	-6.18205E-003	-5.48197E-003	2.78621E-004	3.92248E-004	-7.19609E-003	4.49686E-004
	184	184	4.99955E-002	-1.01309E-002	0.00000E+000	-5.06500E-004	-9.94800E-002	4.24167E-002	3.55586E+001	11	...........	7.07596E-002	-5.33972E-003	6.04293E-001	5.36086E-001	-2.72282E-002	-3.83547E-002	7.03335E-001	-4.39967E-002	-7.16859E-004	5.40963E-005	-6.12205E-003	-5.43104E-003	2.75847E-004	3.88568E-004	-7.12543E-003	4.45727E-004
	185	185	4.99939E-002	-1.00054E-002	0.00000E+000	-5.00211E-004	-9.82240E-002	4.24117E-002	3.56166E+001	11	...........	7.07463E-002	-5.39583E-003	6.04378E-001	5.35988E-001	-2.72164E-002	-3.83542E-002	7.03417E-001	-4.41629E-002	-7.07847E-004	5.39876E-005	-6.04707E-003	-5.36279E-003	2.72312E-004	3.83750E-004	-7.03799E-003	4.41869E-004
	186	186	4.99958E-002	-9.89332E-003	0.00000E+000	-4.94624E-004	-9.71127E-002	4.24284E-002	3.56231E+001	11	...........	7.07883E-002	-5.46472E-003	6.04450E-001	5.36206E-001	-2.72149E-002	-3.83600E-002	7.03343E-001	-4.43025E-002	-7.00332E-004	5.40642E-005	-5.98002E-003	-5.30486E-003	2.69245E-004	3.79508E-004	-6.95839E-003	4.38299E-004
	187	187	4.99947E-002	-9.78849E-003	0.00000E+000	-4.89372E-004	-9.60613E-002	4.24241E-002	3.56674E+001	11	...........	7.07654E-002	-5.41611E-003	6.04480E-001	5.36128E-001	-2.72022E-002	-3.83746E-002	7.03296E-001	-4.40675E-002	-6.92687E-004	5.30156E-005	-5.91695E-003	-5.24789E-003	2.66269E-004	3.75629E-004	-6.88421E-003	4.31354E-004
	188	188	4.99948E-002	-9.69880E-003	0.00000E+000	-4.84889E-004	-9.51680E-002	4.24206E-002	3.56794E+001	11	...........	7.07689E-002	-5.34806E-003	6.04444E-001	5.36071E-001	-2.71842E-002	-3.83762E-002	7.03253E-001	-4.41028E-002	-6.86373E-004	5.18697E-005	-5.86238E-003	-5.19924E-003	2.63654E-004	3.72204E-004	-6.82071E-003	4.27744E-004
	189	189	4.99953E-002	-9.57625E-003	0.00000E+000	-4.78767E-004	-9.39533E-002	4.24449E-002	3.57188E+001	11	...........	7.07931E-002	-5.39139E-003	6.04386E-001	5.35994E-001	-2.71893E-002	-3.83836E-002	7.03278E-001	-4.41124E-002	-6.77932E-004	5.16293E-005	-5.78775E-003	-5.13281E-003	2.60371E-004	3.67571E-004	-6.73476E-003	4.22431E-004
	190	190	4.99944E-002	-9.43714E-003	0.00000E+000	-4.71804E-004	-9.25593E-002	4.24292E-002	3.52878E+001	11	...........	7.07818E-002	-5.45708E-003	6.04457E-001	5.36082E-001	-2.71808E-002	-3.83871E-002	7.03349E-001	-4.40329E-002	-6.67978E-004	5.14992E-005	-5.70434E-003	-5.05908E-003	2.56509E-004	3.62264E-004	-6.63760E-003	4.15545E-004
	191	191	4.99950E-002	-9.32846E-003	0.00000E+000	-4.66377E-004	-9.14740E-002	4.24322E-002	3.55314E+001	11	...........	7.07900E-002	-5.51347E-003	6.04410E-001	5.35979E-001	-2.71836E-002	-3.83826E-002	7.03354E-001	-4.41460E-002	-6.60362E-004	5.14322E-005	-5.63822E-003	-4.99986E-003	2.53581E-004	3.58051E-004	-6.56121E-003	4.11814E-004
	192	192	4.99942E-002	-9.23466E-003	0.00000E+000	-4.61680E-004	-9.05367E-002	4.24460E-002	3.55775E+001	11	...........	7.08179E-002	-5.54361E-003	6.04511E-001	5.36193E-001	-2.71946E-002	-3.83622E-002	7.03248E-001	-4.40944E-002	-6.53979E-004	5.11934E-005	-5.58246E-003	-4.95156E-003	2.51133E-004	3.54262E-004	-6.49426E-003	4.07197E-004
	193	193	4.99958E-002	-9.10946E-003	0.00000E+000	-4.55435E-004	-8.92840E-002	4.24621E-002	3.55823E+001	11	...........	7.08279E-002	-5.50750E-003	6.04474E-001	5.36238E-001	-2.72074E-002	-3.83729E-002	7.03348E-001	-4.40904E-002	-6.45204E-004	5.01704E-005	-5.50644E-003	-4.88484E-003	2.47844E-004	3.49557E-004	-6.40712E-003	4.01640E-004
	194	194	4.99947E-002	-8.97190E-003	0.00000E+000	-4.48547E-004	-8.79547E-002	4.24905E-002	3.49991E+001	11	...........	7.08932E-002	-5.49347E-003	6.04298E-001	5.36189E-001	-2.71792E-002	-3.83854E-002	7.03416E-001	-4.41282E-002	-6.36047E-004	4.92869E-005	-5.42170E-003	-4.81064E-003	2.43849E-004	3.44390E-004	-6.31098E-003	3.95914E-004
	195	195	4.99927E-002	-8.75308E-003	0.00000E+000	-4.37590E-004	-8.57747E-002	4.23383E-002	3.44786E+001	11	...........	7.06281E-002	-5.46958E-003	6.04250E-001	5.36187E-001	-2.71733E-002	-3.83839E-002	7.03358E-001	-4.41043E-002	-6.18213E-004	4.78757E-005	-5.28905E-003	-4.69329E-003	2.37850E-004	3.35977E-004	-6.15655E-003	3.86049E-004
	196	196	4.99975E-002	-8.77365E-003	0.00000E+000	-4.38661E-004	-8.59847E-002	4.25372E-002	3.55702E+001	11	...........	7.09653E-002	-5.37194E-003	6.04351E-001	5.36365E-001	-2.71751E-002	-3.83922E-002	7.03331E-001	-4.40103E-002	-6.22625E-004	4.71316E-005	-5.30237E-003	-4.70588E-003	2.38425E-004	3.36840E-004	-6.17079E-003	3.86131E-004
	197	197	4.99951E-002	-8.71901E-003	0.00000E+000	-4.35908E-004	-8.54380E-002	4.24365E-002	3.57186E+001	11	...........	7.07886E-002	-5.46736E-003	6.04350E-001	5.36348E-001	-2.71917E-002	-3.83837E-002	7.03272E-001	-4.38797E-002	-6.17207E-004	4.76700E-005	-5.26934E-003	-4.67642E-003	2.37085E-004	3.34668E-004	-6.13184E-003	3.82588E-004
	198	198	4.99949E-002	-8.59595E-003	0.00000E+000	-4.29754E-004	-8.42153E-002	4.24743E-002	3.57066E+001	11	...........	7.08525E-002	-5.59639E-003	6.04238E-001	5.36263E-001	-2.72140E-002	-3.83643E-002	7.03270E-001	-4.40079E-002	-6.09045E-004	4.81063E-005	-5.19400E-003	-4.60969E-003	2.33930E-004	3.29778E-004	-6.04527E-003	3.78290E-004
	199	199	4.99949E-002	-8.52482E-003	0.00000E+000	-4.26198E-004	-8.35033E-002	4.24748E-002	3.57857E+001	11	...........	7.08496E-002	-5.50278E-003	6.04258E-001	5.36203E-001	-2.72117E-002	-3.83569E-002	7.03291E-001	-4.40728E-002	-6.03980E-004	4.69102E-005	-5.15119E-003	-4.57103E-003	2.31975E-004	3.26986E-004	-5.99543E-003	3.75712E-004
	200	200	4.99954E-002	-8.42870E-003	0.00000E+000	-4.21396E-004	-8.25433E-002	4.24531E-002	3.57516E+001	11	...........	7.08382E-002	-5.50778E-003	6.04356E-001	5.36202E-001	-2.71926E-002	-3.83485E-002	7.03332E-001	-4.40721E-002	-5.97074E-004	4.64234E-005	-5.09394E-003	-4.51949E-003	2.29199E-004	3.23228E-004	-5.92817E-003	3.71470E-004
	201	201	4.99953E-002	-8.34535E-003	0.00000E+000	-4.17228E-004	-8.17127E-002	4.24601E-002	3.57974E+001	11	...........	7.08297E-002	-5.47653E-003	6.04393E-001	5.36221E-001	-2.71894E-002	-3.83269E-002	7.03321E-001	-4.40683E-002	-5.91099E-004	4.57035E-005	-5.04387E-003	-4.47495E-003	2.26905E-004	3.19852E-004	-5.86946E-003	3.67766E-004
	202	202	4.99951E-002	-8.25650E-003	0.00000E+000	-4.12785E-004	-8.08307E-002	4.24864E-002	3.55461E+001	11	...........	7.08850E-002	-5.40389E-003	6.04397E-001	5.36316E-001	-2.71953E-002	-3.83058E-002	7.03239E-001	-4.40533E-002	-5.85262E-004	4.46172E-005	-4.99021E-003	-4.42809E-003	2.24538E-004	3.16272E-004	-5.80629E-003	3.63726E-004
	203	203	4.99941E-002	-8.07390E-003	0.00000E+000	-4.03647E-004	-7.90093E-002	4.23753E-002	3.50832E+001	11	...........	7.06947E-002	-5.44500E-003	6.04461E-001	5.36262E-001	-2.72011E-002	-3.83012E-002	7.03322E-001	-4.40197E-002	-5.70782E-004	4.39624E-005	-4.88036E-003	-4.32973E-003	2.19619E-004	3.09241E-004	-5.67855E-003	3.55411E-004
	204	204	4.99963E-002	-8.04956E-003	0.00000E+000	-4.02448E-004	-7.87613E-002	4.25239E-002	3.56904E+001	11	...........	7.09492E-002	-5.42611E-003	6.04315E-001	5.36381E-001	-2.72046E-002	-3.82914E-002	7.03370E-001	-4.41479E-002	-5.71110E-004	4.36778E-005	-4.86447E-003	-4.31763E-003	2.18985E-004	3.08229E-004	-5.66182E-003	3.55371E-004
	205	205	4.99953E-002	-8.00491E-003	0.00000E+000	-4.00208E-004	-7.83220E-002	4.24462E-002	3.58020E+001	11	...........	7.08193E-002	-5.52750E-003	6.04249E-001	5.36255E-001	-2.71919E-002	-3.82811E-002	7.03299E-001	-4.40347E-002	-5.66903E-004	4.42472E-005	-4.83696E-003	-4.29267E-003	2.17669E-004	3.06437E-004	-5.62985E-003	3.52494E-004
	206	206	4.99951E-002	-7.93466E-003	0.00000E+000	-3.96694E-004	-7.76187E-002	4.24811E-002	3.57827E+001	11	...........	7.08719E-002	-5.45819E-003	6.04348E-001	5.36178E-001	-2.72012E-002	-3.82774E-002	7.03400E-001	-4.40707E-002	-5.62345E-004	4.33089E-005	-4.79529E-003	-4.25439E-003	2.15833E-004	3.03718E-004	-5.58124E-003	3.49686E-004
	207	207	4.99949E-002	-7.80290E-003	0.00000E+000	-3.90105E-004	-7.63327E-002	4.24949E-002	3.57626E+001	11	...........	7.08825E-002	-5.34917E-003	6.04320E-001	5.36183E-001	-2.71983E-002	-3.82376E-002	7.03504E-001	-4.41199E-002	-5.53089E-004	4.17390E-005	-4.71545E-003	-4.18378E-003	2.12226E-004	2.98364E-004	-5.48937E-003	3.44263E-004
	208	208	4.99953E-002	-7.72357E-003	0.00000E+000	-3.86142E-004	-7.55387E-002	4.24793E-002	3.57700E+001	11	...........	7.08753E-002	-5.37792E-003	6.04361E-001	5.36155E-001	-2.72050E-002	-3.82424E-002	7.03263E-001	-4.40846E-002	-5.47410E-004	4.15367E-005	-4.66783E-003	-4.14103E-003	2.10120E-004	2.95368E-004	-5.43171E-003	3.40490E-004
	209	209	4.99950E-002	-7.63384E-003	0.00000E+000	-3.81654E-004	-7.46400E-002	4.25154E-002	3.57911E+001	11	...........	7.09208E-002	-5.47778E-003	6.04353E-001	5.36141E-001	-2.72321E-002	-3.82739E-002	7.03275E-001	-4.40346E-002	-5.41398E-004	4.18165E-005	-4.61354E-003	-4.09282E-003	2.07885E-004	2.92177E-004	-5.36869E-003	3.36153E-004
	210	210	4.99950E-002	-7.55223E-003	0.00000E+000	-3.77574E-004	-7.38233E-002	4.25036E-002	3.58048E+001	11	...........	7.09149E-002	-5.49653E-003	6.04354E-001	5.36177E-001	-2.72674E-002	-3.82554E-002	7.03299E-001	-4.39474E-002	-5.35565E-004	4.15110E-005	-4.56422E-003	-4.04933E-003	2.05929E-004	2.88914E-004	-5.31148E-003	3.31901E-004
	211	211	4.99953E-002	-7.42919E-003	0.00000E+000	-3.71424E-004	-7.25993E-002	4.25139E-002	3.58142E+001	11	...........	7.09211E-002	-5.51083E-003	6.04504E-001	5.36022E-001	-2.72939E-002	-3.82503E-002	7.03299E-001	-4.39854E-002	-5.26887E-004	4.09410E-005	-4.49098E-003	-3.98221E-003	2.02772E-004	2.84169E-004	-5.22495E-003	3.26776E-004
	212	212	4.99953E-002	-7.36184E-003	0.00000E+000	-3.68057E-004	-7.19307E-002	4.25096E-002	3.58307E+001	11	...........	7.09086E-002	-5.49958E-003	6.04426E-001	5.35962E-001	-2.73057E-002	-3.82592E-002	7.03225E-001	-4.39597E-002	-5.22018E-004	4.04870E-005	-4.44968E-003	-3.94566E-003	2.01020E-004	2.81658E-004	-5.17702E-003	3.23624E-004
	213	213	4.99954E-002	-7.26905E-003	0.00000E+000	-3.63419E-004	-7.10080E-002	4.25199E-002	3.58449E+001	11	...........	7.09392E-002	-5.44417E-003	6.04421E-001	5.35994E-001	-2.72736E-002	-3.82810E-002	7.03182E-001	-4.39082E-002	-5.15661E-004	3.95739E-005	-4.39357E-003	-3.89617E-003	1.98253E-004	2.78266E-004	-5.11147E-003	3.19171E-004
	214	214	4.99948E-002	-7.23149E-003	0.00000E+000	-3.61537E-004	-7.06267E-002	4.25537E-002	3.49502E+001	11	...........	7.09786E-002	-5.33083E-003	6.04388E-001	5.36041E-001	-2.72757E-002	-3.82821E-002	7.03208E-001	-4.39299E-002	-5.13281E-004	3.85499E-005	-4.37063E-003	-3.87637E-003	1.97244E-004	2.76836E-004	-5.08524E-003	3.17678E-004
	215	215	4.99932E-002	-6.99003E-003	0.00000E+000	-3.49454E-004	-6.82213E-002	4.24552E-002	3.53115E+001	11	...........	7.08249E-002	-5.37486E-003	6.04291E-001	5.36142E-001	-2.72571E-002	-3.82875E-002	7.03237E-001	-4.39575E-002	-4.95068E-004	3.75705E-005	-4.22401E-003	-3.74765E-003	1.90528E-004	2.67631E-004	-4.91565E-003	3.07264E-004
	216	216	4.99973E-002	-6.97352E-003	0.00000E+000	-3.48657E-004	-6.80647E-002	4.25078E-002	3.53441E+001	11	...........	7.08969E-002	-5.42278E-003	6.04290E-001	5.36270E-001	-2.72296E-002	-3.82728E-002	7.03253E-001	-4.39229E-002	-4.94401E-004	3.78159E-005	-4.21403E-003	-3.73969E-003	1.89886E-004	2.66896E-004	-4.90415E-003	3.06297E-004
	217	217	4.99959E-002	-6.97006E-003	0.00000E+000	-3.48474E-004	-6.80280E-002	4.24377E-002	3.55984E+001	11	...........	7.08019E-002	-5.41611E-003	6.04345E-001	5.36320E-001	-2.72231E-002	-3.83124E-002	7.03456E-001	-4.40032E-002	-4.93494E-004	3.77506E-005	-4.21232E-003	-3.73818E-003	1.89746E-004	2.67039E-004	-4.90313E-003	3.06705E-004
	218	218	4.99955E-002	-6.93862E-003	0.00000E+000	-3.46900E-004	-6.77093E-002	4.25408E-002	3.58441E+001	11	...........	7.09626E-002	-5.43847E-003	6.04278E-001	5.36097E-001	-2.72368E-002	-3.83379E-002	7.03287E-001	-4.39576E-002	-4.92383E-004	3.77355E-005	-4.19285E-003	-3.71977E-003	1.88986E-004	2.66012E-004	-4.87984E-003	3.05005E-004
	219	219	4.99953E-002	-6.85699E-003	0.00000E+000	-3.42818E-004	-6.68953E-002	4.25662E-002	3.58900E+001	11	...........	7.10072E-002	-5.48167E-003	6.04438E-001	5.36027E-001	-2.72258E-002	-3.83729E-002	7.03346E-001	-4.39846E-002	-4.86896E-004	3.75877E-005	-4.14463E-003	-3.67553E-003	1.86687E-004	2.63123E-004	-4.82284E-003	3.01602E-004
	220	220	4.99957E-002	-6.80297E-003	0.00000E+000	-3.40119E-004	-6.63573E-002	4.25647E-002	3.58721E+001	11	...........	7.10054E-002	-5.49958E-003	6.04526E-001	5.35999E-001	-2.72337E-002	-3.83733E-002	7.03372E-001	-4.38979E-002	-4.83047E-004	3.74135E-005	-4.11257E-003	-3.64638E-003	1.85270E-004	2.61052E-004	-4.78501E-003	2.98636E-004
	221	221	4.99953E-002	-6.70974E-003	0.00000E+000	-3.35456E-004	-6.54267E-002	4.25352E-002	3.58905E+001	11	...........	7.09582E-002	-5.46889E-003	6.04557E-001	5.36124E-001	-2.72337E-002	-3.83408E-002	7.03398E-001	-4.38253E-002	-4.76111E-004	3.66948E-005	-4.05642E-003	-3.59726E-003	1.82731E-004	2.57257E-004	-4.71962E-003	2.94056E-004
	222	222	4.99954E-002	-6.67685E-003	0.00000E+000	-3.33811E-004	-6.50987E-002	4.25498E-002	3.58741E+001	11	...........	7.09779E-002	-5.51278E-003	6.04581E-001	5.36156E-001	-2.72471E-002	-3.83561E-002	7.03368E-001	-4.38646E-002	-4.73909E-004	3.68080E-005	-4.03670E-003	-3.57983E-003	1.81925E-004	2.56098E-004	-4.69628E-003	2.92877E-004
	223	223	4.99951E-002	-6.56645E-003	0.00000E+000	-3.28290E-004	-6.39953E-002	4.25227E-002	3.49965E+001	11	...........	7.09315E-002	-5.53389E-003	6.04612E-001	5.36190E-001	-2.72503E-002	-3.83682E-002	7.03300E-001	-4.39526E-002	-4.65768E-004	3.63380E-005	-3.97015E-003	-3.52087E-003	1.78938E-004	2.51943E-004	-4.61818E-003	2.88613E-004
	224	224	4.99956E-002	-6.50888E-003	0.00000E+000	-3.25416E-004	-6.34247E-002	4.25690E-002	3.58237E+001	11	...........	7.10124E-002	-5.53597E-003	6.04401E-001	5.36084E-001	-2.72501E-002	-3.83699E-002	7.03339E-001	-4.41401E-002	-4.62211E-004	3.60330E-005	-3.93398E-003	-3.48931E-003	1.77368E-004	2.49745E-004	-4.57795E-003	2.87303E-004
	225	225	4.99956E-002	-6.47498E-003	0.00000E+000	-3.23720E-004	-6.30993E-002	4.25409E-002	3.59098E+001	11	...........	7.09725E-002	-5.60069E-003	6.04281E-001	5.36185E-001	-2.72597E-002	-3.83783E-002	7.03375E-001	-4.40260E-002	-4.59546E-004	3.62644E-005	-3.91271E-003	-3.47179E-003	1.76506E-004	2.48499E-004	-4.55434E-003	2.85067E-004
	226	226	4.99951E-002	-6.39131E-003	0.00000E+000	-3.19534E-004	-6.22893E-002	4.25555E-002	3.59016E+001	11	...........	7.09925E-002	-5.59167E-003	6.04267E-001	5.36184E-001	-2.72471E-002	-3.83844E-002	7.03385E-001	-4.40729E-002	-4.53735E-004	3.57381E-005	-3.86206E-003	-3.42692E-003	1.74145E-004	2.45327E-004	-4.49555E-003	2.81684E-004
	227	227	4.99961E-002	-6.33404E-003	0.00000E+000	-3.16678E-004	-6.17180E-002	4.25539E-002	3.58950E+001	11	...........	7.09849E-002	-5.53819E-003	6.04070E-001	5.36312E-001	-2.72687E-002	-3.83993E-002	7.03218E-001	-4.41375E-002	-4.49621E-004	3.50792E-005	-3.82621E-003	-3.39702E-003	1.72721E-004	2.43223E-004	-4.45422E-003	2.79569E-004
	228	228	4.99952E-002	-6.26786E-003	0.00000E+000	-3.13363E-004	-6.10580E-002	4.25454E-002	3.58843E+001	11	...........	7.09861E-002	-5.46806E-003	6.04009E-001	5.36391E-001	-2.73136E-002	-3.84074E-002	7.03306E-001	-4.41906E-002	-4.44931E-004	3.42730E-005	-3.78584E-003	-3.36202E-003	1.71198E-004	2.40732E-004	-4.40822E-003	2.76980E-004
	229	229	4.99954E-002	-6.19101E-003	0.00000E+000	-3.09522E-004	-6.02900E-002	4.25149E-002	3.57892E+001	11	...........	7.09281E-002	-5.47861E-003	6.04024E-001	5.36304E-001	-2.73126E-002	-3.84081E-002	7.03455E-001	-4.40051E-002	-4.39117E-004	3.39182E-005	-3.73952E-003	-3.32026E-003	1.69093E-004	2.37785E-004	-4.35510E-003	2.72436E-004
	230	230	4.99959E-002	-6.18498E-003	0.00000E+000	-3.09223E-004	-6.02280E-002	4.25745E-002	3.59435E+001	11	...........	7.10344E-002	-5.46806E-003	6.03935E-001	5.36336E-001	-2.73087E-002	-3.84043E-002	7.03424E-001	-4.41253E-002	-4.39346E-004	3.38198E-005	-3.73532E-003	-3.31723E-003	1.68904E-004	2.37530E-004	-4.35066E-003	2.72914E-004
	231	231	4.99952E-002	-6.09959E-003	0.00000E+000	-3.04951E-004	-5.93807E-002	4.25333E-002	3.59343E+001	11	...........	7.09526E-002	-5.34083E-003	6.04089E-001	5.36428E-001	-2.73082E-002	-3.84031E-002	7.03344E-001	-4.41699E-002	-4.32782E-004	3.25769E-005	-3.68470E-003	-3.27199E-003	1.66569E-004	2.34243E-004	-4.29011E-003	2.69418E-004
	232	232	4.99949E-002	-6.01491E-003	0.00000E+000	-3.00714E-004	-5.85367E-002	4.25605E-002	3.59526E+001	11	...........	7.09906E-002	-5.38194E-003	6.04108E-001	5.36394E-001	-2.73201E-002	-3.84256E-002	7.03274E-001	-4.40714E-002	-4.27002E-004	3.23719E-005	-3.63365E-003	-3.22636E-003	1.64328E-004	2.31126E-004	-4.23013E-003	2.65085E-004
	233	233	4.99958E-002	-5.95513E-003	0.00000E+000	-2.97732E-004	-5.79387E-002	4.25416E-002	3.58011E+001	11	...........	7.09558E-002	-5.39083E-003	6.03945E-001	5.36478E-001	-2.73147E-002	-3.84318E-002	7.03341E-001	-4.40214E-002	-4.22551E-004	3.21031E-005	-3.59657E-003	-3.19480E-003	1.62663E-004	2.28867E-004	-4.18849E-003	2.62153E-004
	234	234	4.99948E-002	-5.84424E-003	0.00000E+000	-2.92182E-004	-5.68320E-002	4.25710E-002	3.49094E+001	11	...........	7.10151E-002	-5.27597E-003	6.03871E-001	5.36692E-001	-2.73158E-002	-3.84392E-002	7.03429E-001	-4.39311E-002	-4.15030E-004	3.08341E-005	-3.52917E-003	-3.13656E-003	1.59640E-004	2.24648E-004	-4.11101E-003	2.56744E-004
	235	235	4.99958E-002	-5.74312E-003	0.00000E+000	-2.87132E-004	-5.58273E-002	4.24227E-002	3.53506E+001	11	...........	7.07744E-002	-5.32028E-003	6.03888E-001	5.36639E-001	-2.73397E-002	-3.84346E-002	7.03560E-001	-4.41143E-002	-4.06466E-004	3.05550E-005	-3.46821E-003	-3.08199E-003	1.57015E-004	2.20735E-004	-4.04063E-003	2.53354E-004
	236	236	4.99961E-002	-5.75545E-003	0.00000E+000	-2.87750E-004	-5.59540E-002	4.26186E-002	3.59230E+001	11	...........	7.10915E-002	-5.41486E-003	6.03908E-001	5.36676E-001	-2.73353E-002	-3.84358E-002	7.03683E-001	-4.40024E-002	-4.09164E-004	3.11649E-005	-3.47576E-003	-3.08881E-003	1.57327E-004	2.21215E-004	-4.05001E-003	2.53253E-004
	237	237	4.99956E-002	-5.72807E-003	0.00000E+000	-2.86379E-004	-5.56820E-002	4.25796E-002	3.59660E+001	11	...........	7.10218E-002	-5.45417E-003	6.03811E-001	5.36653E-001	-2.73393E-002	-3.84849E-002	7.03640E-001	-4.39740E-002	-4.06818E-004	3.12419E-005	-3.45867E-003	-3.07399E-003	1.56602E-004	2.20444E-004	-4.03050E-003	2.51886E-004
	238	238	4.99955E-002	-5.67123E-003	0.00000E+000	-2.83536E-004	-5.51113E-002	4.25770E-002	3.60164E+001	11	...........	7.10172E-002	-5.52917E-003	6.03811E-001	5.36681E-001	-2.73394E-002	-3.84851E-002	7.03598E-001	-4.40408E-002	-4.02755E-004	3.13572E-005	-3.42435E-003	-3.04364E-003	1.55048E-004	2.18258E-004	-3.99027E-003	2.49766E-004
	239	239	4.99952E-002	-5.61375E-003	0.00000E+000	-2.80661E-004	-5.45367E-002	4.25803E-002	3.56678E+001	11	...........	7.10146E-002	-5.63153E-003	6.03768E-001	5.36710E-001	-2.73521E-002	-3.85047E-002	7.03603E-001	-4.40781E-002	-3.98658E-004	3.16140E-005	-3.38940E-003	-3.01296E-003	1.53548E-004	2.16156E-004	-3.94985E-003	2.47443E-004
	240	240	4.99959E-002	-5.50899E-003	0.00000E+000	-2.75427E-004	-5.34980E-002	4.24607E-002	3.49643E+001	11	...........	7.08474E-002	-5.49639E-003	6.03672E-001	5.36578E-001	-2.73511E-002	-3.84964E-002	7.03503E-001	-4.40229E-002	-3.90297E-004	3.02795E-005	-3.32562E-003	-2.95600E-003	1.50677E-004	2.12076E-004	-3.87559E-003	2.42522E-004
	241	241	4.99955E-002	-5.48718E-003	0.00000E+000	-2.74334E-004	-5.32760E-002	4.25129E-002	3.59303E+001	11	...........	7.10750E-002	-5.46264E-003	6.03664E-001	5.36386E-001	-2.73412E-002	-3.84614E-002	7.03588E-001	-4.40818E-002	-3.90001E-004	2.99745E-005	-3.31241E-003	-2.94325E-003	1.50026E-004	2.11045E-004	-3.86071E-003	2.41885E-004
	242	242	4.99958E-002	-5.45154E-003	0.00000E+000	-2.72554E-004	-5.29247E-002	4.25674E-002	3.60023E+001	11	...........	7.10101E-002	-5.41236E-003	6.03817E-001	5.36269E-001	-2.73399E-002	-3.84514E-002	7.03610E-001	-4.40035E-002	-3.87114E-004	2.95057E-005	-3.29173E-003	-2.92349E-003	1.49044E-004	2.09619E-004	-3.83576E-003	2.39887E-004
	243	243	4.99955E-002	-5.40109E-003	0.00000E+000	-2.70030E-004	-5.24193E-002	4.25790E-002	3.60104E+001	11	...........	7.10282E-002	-5.41444E-003	6.03758E-001	5.36220E-001	-2.73247E-002	-3.84324E-002	7.03648E-001	-4.40262E-002	-3.83629E-004	2.92439E-005	-3.26095E-003	-2.89617E-003	1.47583E-004	2.07576E-004	-3.80046E-003	2.37790E-004
	244	244	4.99957E-002	-5.35130E-003	0.00000E+000	-2.67542E-004	-5.19260E-002	4.25518E-002	3.60145E+001	11	...........	7.09925E-002	-5.40264E-003	6.03627E-001	5.36189E-001	-2.73268E-002	-3.84275E-002	7.03544E-001	-4.40724E-002	-3.79902E-004	2.89111E-005	-3.23019E-003	-2.86931E-003	1.46234E-004	2.05637E-004	-3.76487E-003	2.35844E-004
	245	245	4.99958E-002	-5.30550E-003	0.00000E+000	-2.65253E-004	-5.14680E-002	4.25733E-002	3.60502E+001	11	...........	7.10169E-002	-5.45292E-003	6.03693E-001	5.36173E-001	-2.73460E-002	-3.84354E-002	7.03609E-001	-4.41806E-002	-3.76781E-004	2.89305E-005	-3.20290E-003	-2.84467E-003	1.45084E-004	2.03919E-004	-3.73300E-003	2.34400E-004
	246	246	4.99956E-002	-5.26291E-003	0.00000E+000	-2.63122E-004	-5.10560E-002	4.25711E-002	3.61125E+001	11	...........	7.10114E-002	-5.42819E-003	6.03846E-001	5.36295E-001	-2.73410E-002	-3.84343E-002	7.03694E-001	-4.42715E-002	-3.73726E-004	2.85681E-005	-3.17799E-003	-2.82247E-003	1.43893E-004	2.02276E-004	-3.70348E-003	2.32997E-004
	247	247	4.99951E-002	-5.21403E-003	0.00000E+000	-2.60676E-004	-5.05787E-002	4.25525E-002	3.61402E+001	11	...........	7.10064E-002	-5.32306E-003	6.03845E-001	5.36408E-001	-2.73321E-002	-3.84428E-002	7.03669E-001	-4.41972E-002	-3.70229E-004	2.77546E-005	-3.14847E-003	-2.79685E-003	1.42510E-004	2.00442E-004	-3.66895E-003	2.30446E-004
	248	248	4.99963E-002	-5.16016E-003	0.00000E+000	-2.57989E-004	-5.00433E-002	4.25637E-002	3.61695E+001	11	...........	7.10097E-002	-5.36542E-003	6.03993E-001	5.36411E-001	-2.73146E-002	-3.84414E-002	7.03606E-001	-4.41931E-002	-3.66422E-004	2.76864E-005	-3.11670E-003	-2.76797E-003	1.40948E-004	1.98364E-004	-3.63072E-003	2.28043E-004
	249	249	4.99960E-002	-5.13156E-003	0.00000E+000	-2.56558E-004	-4.97573E-002	4.25717E-002	3.61929E+001	11	...........	7.10342E-002	-5.45000E-003	6.03925E-001	5.36414E-001	-2.73010E-002	-3.84453E-002	7.03502E-001	-4.42192E-002	-3.64516E-004	2.79670E-005	-3.09908E-003	-2.75264E-003	1.40097E-004	1.97284E-004	-3.61006E-003	2.26913E-004
	250	250	4.99953E-002	-5.08252E-003	0.00000E+000	-2.54102E-004	-4.92720E-002	4.25559E-002	3.62193E+001	11	...........	7.10078E-002	-5.55319E-003	6.03999E-001	5.36335E-001	-2.73037E-002	-3.84450E-002	7.03505E-001	-4.43172E-002	-3.60898E-004	2.82242E-005	-3.06984E-003	-2.72593E-003	1.38772E-004	1.95397E-004	-3.57558E-003	2.25243E-004
	251	250.502	4.99954E-002	-5.04026E-003	0.00000E+000	-2.51990E-004	-4.88505E-002	4.26126E-002	3.62214E+001	11	...........	7.10473E-002	-5.56174E-003	6.04140E-001	5.36272E-001	-2.73142E-002	-3.84410E-002	7.03541E-001	-4.41991E-002	-3.58097E-004	2.80326E-005	-3.04502E-003	-2.70295E-003	1.37671E-004	1.93753E-004	-3.54603E-003	2.22775E-004
STARTTIMEOFFSET	QUANT	608046.9	Start Time Offset (s)
