EXPLAIN
TAG	PWR800_DISCHARGE
TITLE	LABEL	PWR Discharge	Test Identifier
DATE	LABEL	10/14/2022	Date
TIME	LABEL	3:52:33	Time
NOTES	NOTES	1	Notes...
	
PSTAT	PSTAT	REF3000-21114	Potentiostat
CAPACITY	QUANT	5.30000E-002	Capacity (A-hr)
CELLTYPE	SELECTOR	1	Cell Type
WORKINGCONNECTION	SELECTOR	0	Working Connection
MAXDISCHARGETIME	VARIABLEANDUNITS	7.20000E+003	s	2.00000E+000	hour(s)	Max Discharge Time
DISCHARGEMODE	MULTIPARAM	0	1.00000E-001	Discharge Mode	Constant Current	Amp(s)
VOLTAGEFINISH	TWOPARAM	T	5.00000E-003	7.20000E+003	Voltage Finish	I (A) <	Max Time(s)
SAMPLETIME	QUANT	1.00000E+000	Sample Period (s)
DISCHARGESTOPAT1	MULTIPARAM	1	5.00000E-002	Stop At 1	|Voltage| < Limit	V
DISCHARGESTOPAT2	MULTIPARAM	0	0.00000E+000	Stop At 2	None	N/A
AESELECTOR	AESELECTOR	0x1	T	Set Limits	AE Channels
AESBHCSELECTOR	TOGGLE	F	Save Both Half Cells
IRCOMP	TOGGLE	F	IR Measure
EOC	QUANT	0.5736494	Open Circuit (V)
SEQUENCER	TOGGLE	TRUE	Run as Sequence
PSTATMODEL	IQUANT	5	Pstat Model
PSTATSECTION	LABEL	REF3000-21114	Pstat Section
PSTATSERIALNO	LABEL	21114	Pstat Serial Number
CTRLMODE	IQUANT	0	Control Mode
ELECTROMETER	IQUANT	0	RE=0 or CS=1
IESTAB	IQUANT	0	I/E Stability
CASPEED	IQUANT	4	Control Amp Speed
CONVENTION	IQUANT	1	Current Convention
ICHRANGE	IQUANT	2	Ich Range
ICHRANGEMODE	TOGGLE	T	Ich Auto Range
ICHOFFSETENABLE	TOGGLE	F	Ich Offset Enable
ICHOFFSET	QUANT	0	Ich Offset (V)
ICHFILTER	IQUANT	1	Ich Filter
VCHRANGE	IQUANT	3	Vch Range
VCHRANGEMODE	TOGGLE	T	Vch Auto Range
VCHOFFSETENABLE	TOGGLE	F	Vch Offset Enable
VCHOFFSET	QUANT	0	Vch Offset (V)
VCHFILTER	IQUANT	1	Vch Filter
ACHRANGE	IQUANT	2	Ach Range
ACHOFFSETENABLE	TOGGLE	F	Ach Offset Enable
ACHOFFSET	QUANT	0	Ach Offset (V)
ACHFILTER	IQUANT	1	Ach Filter
IERANGELOWERLIMIT	IQUANT	9	I/E Range Lower Limit
IERANGEMODE	TOGGLE	F	I/E AutoRange
IERANGE	IQUANT	9	I/E Range
POSFEEDENABLE	TOGGLE	F	Positive Feedback IR Comp
POSFEEDRESISTANCE	QUANT	0	Positive Feedback Resistance (ohm)
ACHSELECT	IQUANT	1	Ach Select
SENSECABLEID	IQUANT	13	Sense Cable ID
PWRCABLEID	IQUANT	13	Power Cable ID
DCCALDATE	LABEL		DC Calibration Date
ACCALDATE	LABEL		AC Calibration Date
THERMOSELECT	IQUANT	1	Thermo Select
FRAMEWORKVERSION	LABEL	7.8.6	Framework Version
INSTRUMENTVERSION	LABEL	4.50	Instrument Version
COMPLIANCEVOLTAGE	IQUANT	0	Compliance Voltage
CURVE	TABLE	253
	Pt	T	Vf	Im	Vu	Pwr	Sig	Ach	Temp	IERange	Over	Vf1	Vf2	Vf3	Vf4	Vf5	Vf6	Vf7	Vf8	Pwr1	Pwr2	Pwr3	Pwr4	Pwr5	Pwr6	Pwr7	Pwr8
	#	s	V	A	V	W	V	V	deg C	#	bits	V	V	V	V	V	V	V	V	W	W	W	W	W	W	W	W
	0	1	3.49750E-001	-1.00099E-001	0.00000E+000	-3.50098E-002	-9.94000E-001	3.72579E-002	3.12073E+001	11	...........	6.18904E-002	-5.20444E-003	6.06845E-001	5.41891E-001	-2.70068E-002	-3.78961E-002	7.06156E-001	-4.37664E-002	-6.19519E-003	5.20962E-004	-6.07448E-002	-5.42430E-002	2.70336E-003	3.79338E-003	-7.06858E-002	4.38099E-003
	1	2	2.64560E-001	-1.00099E-001	0.00000E+000	-2.64822E-002	-9.94000E-001	3.73292E-002	3.07285E+001	11	...........	6.20179E-002	-5.29931E-003	6.06881E-001	5.41848E-001	-2.70156E-002	-3.78917E-002	7.06297E-001	-4.37310E-002	-6.20795E-003	5.30457E-004	-6.07483E-002	-5.42386E-002	2.70424E-003	3.79293E-003	-7.06999E-002	4.37744E-003
	2	3	2.02016E-001	-1.00100E-001	0.00000E+000	-2.02218E-002	-9.94000E-001	3.72017E-002	2.94881E+001	11	...........	6.18232E-002	-5.30486E-003	6.06935E-001	5.41771E-001	-2.70335E-002	-3.78906E-002	7.06287E-001	-4.37657E-002	-6.18851E-003	5.31017E-004	-6.07543E-002	-5.42314E-002	2.70606E-003	3.79285E-003	-7.06995E-002	4.38095E-003
	3	4	1.53025E-001	-1.00100E-001	0.00000E+000	-1.53178E-002	-9.94000E-001	3.72413E-002	2.94817E+001	11	...........	6.18564E-002	-5.31514E-003	6.06948E-001	5.41647E-001	-2.70354E-002	-3.79029E-002	7.06306E-001	-4.36882E-002	-6.19183E-003	5.32046E-004	-6.07556E-002	-5.42189E-002	2.70625E-003	3.79408E-003	-7.07012E-002	4.37319E-003
	4	5	1.14511E-001	-1.00100E-001	0.00000E+000	-1.14625E-002	-9.94000E-001	3.71846E-002	2.90457E+001	11	...........	6.18049E-002	-5.42431E-003	6.06952E-001	5.41610E-001	-2.70326E-002	-3.79011E-002	7.06388E-001	-4.36244E-002	-6.18668E-003	5.42974E-004	-6.07561E-002	-5.42153E-002	2.70597E-003	3.79391E-003	-7.07096E-002	4.36682E-003
	5	6	8.35710E-002	-1.00100E-001	0.00000E+000	-8.36546E-003	-9.94000E-001	3.71558E-002	2.82709E+001	11	...........	6.17381E-002	-5.39708E-003	6.06829E-001	5.41805E-001	-2.70457E-002	-3.79056E-002	7.06459E-001	-4.37585E-002	-6.17998E-003	5.40248E-004	-6.07436E-002	-5.42347E-002	2.70727E-003	3.79435E-003	-7.07166E-002	4.38022E-003
	6	7	6.09493E-002	-1.00100E-001	0.00000E+000	-6.10104E-003	-9.94000E-001	3.73243E-002	2.83873E+001	11	...........	6.20258E-002	-5.34722E-003	6.06912E-001	5.41729E-001	-2.70610E-002	-3.78917E-002	7.06506E-001	-4.37867E-002	-6.20879E-003	5.35258E-004	-6.07519E-002	-5.42272E-002	2.70881E-003	3.79296E-003	-7.07214E-002	4.38305E-003
	7	7.06833	5.07823E-002	-1.00100E-001	0.00000E+000	-5.08333E-003	-9.94000E-001	3.72902E-002	2.85302E+001	11	...........	6.19411E-002	-5.30691E-003	6.06949E-001	5.41744E-001	-2.70041E-002	-3.78923E-002	7.06488E-001	-4.38659E-002	-6.20033E-003	5.31224E-004	-6.07559E-002	-5.42288E-002	2.70312E-003	3.79303E-003	-7.07197E-002	4.39099E-003
	8	8	4.98211E-002	-9.39682E-002	0.00000E+000	-4.68160E-003	-9.33019E-001	3.73222E-002	2.87691E+001	11	...........	6.20191E-002	-5.30948E-003	6.06898E-001	5.41799E-001	-2.70464E-002	-3.78532E-002	7.06445E-001	-4.38951E-002	-5.82782E-003	4.98922E-004	-5.70291E-002	-5.09119E-002	2.54150E-003	3.55699E-003	-6.63833E-002	4.12474E-003
	9	9	4.98784E-002	-8.62135E-002	0.00000E+000	-4.30019E-003	-8.55910E-001	3.74817E-002	2.91254E+001	11	...........	6.22778E-002	-5.40528E-003	6.06847E-001	5.41647E-001	-2.70217E-002	-3.78692E-002	7.06410E-001	-4.39454E-002	-5.36918E-003	4.66008E-004	-5.23184E-002	-4.66973E-002	2.32963E-003	3.26483E-003	-6.09020E-002	3.78869E-003
	10	10	4.99007E-002	-8.08305E-002	0.00000E+000	-4.03350E-003	-8.02400E-001	3.75043E-002	2.86459E+001	11	...........	6.22917E-002	-5.42083E-003	6.06759E-001	5.41534E-001	-2.70011E-002	-3.78846E-002	7.06435E-001	-4.39006E-002	-5.03507E-003	4.38169E-004	-4.90447E-002	-4.37725E-002	2.18251E-003	3.06223E-003	-5.71015E-002	3.54850E-003
	11	11	4.99497E-002	-7.80230E-002	0.00000E+000	-3.89722E-003	-7.74486E-001	3.77375E-002	2.94536E+001	11	...........	6.26749E-002	-5.40181E-003	6.06804E-001	5.41495E-001	-2.69831E-002	-3.78674E-002	7.06535E-001	-4.38210E-002	-4.89008E-003	4.21465E-004	-4.73447E-002	-4.22491E-002	2.10530E-003	2.95453E-003	-5.51260E-002	3.41904E-003
	12	12	4.99337E-002	-7.64297E-002	0.00000E+000	-3.81642E-003	-7.58639E-001	3.78003E-002	2.97382E+001	11	...........	6.27786E-002	-5.37653E-003	6.06817E-001	5.41511E-001	-2.69764E-002	-3.78371E-002	7.06511E-001	-4.36910E-002	-4.79815E-003	4.10926E-004	-4.63789E-002	-4.13875E-002	2.06180E-003	2.89188E-003	-5.39984E-002	3.33929E-003
	13	13	4.99282E-002	-7.42032E-002	0.00000E+000	-3.70483E-003	-7.36494E-001	3.78237E-002	2.94046E+001	11	...........	6.28483E-002	-5.32778E-003	6.06948E-001	5.41633E-001	-2.69664E-002	-3.78346E-002	7.06404E-001	-4.35643E-002	-4.66355E-003	3.95338E-004	-4.50374E-002	-4.01909E-002	2.00099E-003	2.80745E-003	-5.24174E-002	3.23261E-003
	14	14	4.99521E-002	-7.25503E-002	0.00000E+000	-3.62404E-003	-7.20057E-001	3.80442E-002	2.96926E+001	11	...........	6.32103E-002	-5.38472E-003	6.06999E-001	5.41578E-001	-2.69585E-002	-3.78644E-002	7.06342E-001	-4.37369E-002	-4.58592E-003	3.90663E-004	-4.40379E-002	-3.92916E-002	1.95584E-003	2.74708E-003	-5.12453E-002	3.17313E-003
	15	15	4.99440E-002	-7.10899E-002	0.00000E+000	-3.55051E-003	-7.05573E-001	3.79426E-002	2.98404E+001	11	...........	6.30346E-002	-5.41972E-003	6.06990E-001	5.41632E-001	-2.69681E-002	-3.78735E-002	7.06290E-001	-4.38901E-002	-4.48112E-003	3.85287E-004	-4.31509E-002	-3.85046E-002	1.91716E-003	2.69242E-003	-5.02100E-002	3.12014E-003
	16	16	4.99540E-002	-7.06616E-002	0.00000E+000	-3.52983E-003	-7.01314E-001	3.81722E-002	3.02139E+001	11	...........	6.34212E-002	-5.36806E-003	6.07118E-001	5.41484E-001	-2.69599E-002	-3.78929E-002	7.06384E-001	-4.38503E-002	-4.48145E-003	3.79315E-004	-4.28999E-002	-3.82621E-002	1.90503E-003	2.67757E-003	-4.99142E-002	3.09853E-003
	17	17	4.99424E-002	-6.96845E-002	0.00000E+000	-3.48021E-003	-6.91602E-001	3.82036E-002	2.97288E+001	11	...........	6.34639E-002	-5.26694E-003	6.07340E-001	5.41464E-001	-2.69862E-002	-3.79047E-002	7.06499E-001	-4.38418E-002	-4.42245E-003	3.67024E-004	-4.23222E-002	-3.77316E-002	1.88052E-003	2.64137E-003	-4.92320E-002	3.05509E-003
	18	18	4.99553E-002	-6.77662E-002	0.00000E+000	-3.38528E-003	-6.72521E-001	3.82008E-002	3.01639E+001	11	...........	6.34671E-002	-5.34778E-003	6.07342E-001	5.41387E-001	-2.69685E-002	-3.79147E-002	7.06507E-001	-4.38156E-002	-4.30092E-003	3.62398E-004	-4.11573E-002	-3.66877E-002	1.82755E-003	2.56934E-003	-4.78773E-002	2.96921E-003
	19	19	4.99349E-002	-6.78208E-002	0.00000E+000	-3.38662E-003	-6.73061E-001	3.83825E-002	3.05064E+001	11	...........	6.37665E-002	-5.41889E-003	6.07340E-001	5.41361E-001	-2.69544E-002	-3.79012E-002	7.06503E-001	-4.38336E-002	-4.32470E-003	3.67513E-004	-4.11903E-002	-3.67155E-002	1.82807E-003	2.57049E-003	-4.79156E-002	2.97283E-003
	20	20	4.99429E-002	-6.63759E-002	0.00000E+000	-3.31501E-003	-6.58690E-001	3.82608E-002	2.99779E+001	11	...........	6.37153E-002	-5.37250E-003	6.07299E-001	5.41385E-001	-2.69551E-002	-3.78999E-002	7.06457E-001	-4.38890E-002	-4.22916E-003	3.56605E-004	-4.03100E-002	-3.59349E-002	1.78917E-003	2.51564E-003	-4.68917E-002	2.91317E-003
	21	21	4.99661E-002	-6.54679E-002	0.00000E+000	-3.27118E-003	-6.49657E-001	3.82229E-002	3.00593E+001	11	...........	6.37849E-002	-5.28292E-003	6.07336E-001	5.41134E-001	-2.69426E-002	-3.78964E-002	7.06525E-001	-4.38778E-002	-4.17586E-003	3.45862E-004	-3.97610E-002	-3.54269E-002	1.76388E-003	2.48100E-003	-4.62548E-002	2.87259E-003
	22	22	4.99575E-002	-6.55337E-002	0.00000E+000	-3.27390E-003	-6.50319E-001	3.84212E-002	3.06354E+001	11	...........	6.41042E-002	-5.25361E-003	6.07545E-001	5.41075E-001	-2.69447E-002	-3.78922E-002	7.06477E-001	-4.38654E-002	-4.20098E-003	3.44289E-004	-3.98147E-002	-3.54587E-002	1.76579E-003	2.48322E-003	-4.62981E-002	2.87466E-003
	23	23	4.99480E-002	-6.49656E-002	0.00000E+000	-3.24490E-003	-6.44669E-001	3.84302E-002	3.07513E+001	11	...........	6.41386E-002	-5.23806E-003	6.07655E-001	5.41091E-001	-2.69392E-002	-3.79046E-002	7.06284E-001	-4.40083E-002	-4.16680E-003	3.40293E-004	-3.94767E-002	-3.51523E-002	1.75012E-003	2.46249E-003	-4.58841E-002	2.85903E-003
	24	24	4.99531E-002	-6.40934E-002	0.00000E+000	-3.20166E-003	-6.35995E-001	3.85036E-002	3.05813E+001	11	...........	6.42450E-002	-5.32333E-003	6.07724E-001	5.41269E-001	-2.69306E-002	-3.79044E-002	7.06195E-001	-4.40081E-002	-4.11768E-003	3.41191E-004	-3.89511E-002	-3.46918E-002	1.72607E-003	2.42943E-003	-4.52625E-002	2.82063E-003
	25	25	4.99393E-002	-6.27439E-002	0.00000E+000	-3.13339E-003	-6.22575E-001	3.85192E-002	3.02473E+001	11	...........	6.42682E-002	-5.25042E-003	6.07593E-001	5.41325E-001	-2.69211E-002	-3.79200E-002	7.06203E-001	-4.39925E-002	-4.03244E-003	3.29432E-004	-3.81228E-002	-3.39648E-002	1.68914E-003	2.37925E-003	-4.43100E-002	2.76026E-003
	26	26	4.99545E-002	-6.22766E-002	0.00000E+000	-3.11100E-003	-6.17930E-001	3.86756E-002	3.04215E+001	11	...........	6.45381E-002	-5.24819E-003	6.07584E-001	5.41251E-001	-2.69371E-002	-3.79417E-002	7.06105E-001	-4.38842E-002	-4.01921E-003	3.26840E-004	-3.78383E-002	-3.37073E-002	1.67755E-003	2.36288E-003	-4.39738E-002	2.73296E-003
	27	27	4.99596E-002	-6.18480E-002	0.00000E+000	-3.08990E-003	-6.13673E-001	3.86417E-002	3.06835E+001	11	...........	6.44719E-002	-5.19000E-003	6.07582E-001	5.41358E-001	-2.69424E-002	-3.79546E-002	7.06035E-001	-4.40160E-002	-3.98746E-003	3.20991E-004	-3.75777E-002	-3.34819E-002	1.66633E-003	2.34741E-003	-4.36668E-002	2.72230E-003
	28	28	4.99586E-002	-6.16918E-002	0.00000E+000	-3.08203E-003	-6.12131E-001	3.87850E-002	3.09667E+001	11	...........	6.46997E-002	-5.24014E-003	6.07619E-001	5.41476E-001	-2.69331E-002	-3.79468E-002	7.06249E-001	-4.39501E-002	-3.99144E-003	3.23273E-004	-3.74851E-002	-3.34046E-002	1.66155E-003	2.34101E-003	-4.35698E-002	2.71136E-003
	29	29	4.99427E-002	-6.10626E-002	0.00000E+000	-3.04963E-003	-6.05867E-001	3.88067E-002	3.10679E+001	11	...........	6.47422E-002	-5.29486E-003	6.07724E-001	5.41467E-001	-2.69172E-002	-3.79290E-002	7.06266E-001	-4.38394E-002	-3.95333E-003	3.23318E-004	-3.71092E-002	-3.30634E-002	1.64364E-003	2.31605E-003	-4.31265E-002	2.67695E-003
	30	30	4.99386E-002	-6.00599E-002	0.00000E+000	-2.99931E-003	-5.95895E-001	3.88667E-002	3.05733E+001	11	...........	6.48439E-002	-5.23181E-003	6.07646E-001	5.41528E-001	-2.69221E-002	-3.79161E-002	7.06355E-001	-4.38335E-002	-3.89452E-003	3.14222E-004	-3.64952E-002	-3.25241E-002	1.61694E-003	2.27724E-003	-4.24236E-002	2.63263E-003
	31	31	4.99545E-002	-5.91198E-002	0.00000E+000	-2.95330E-003	-5.86557E-001	3.89291E-002	3.04890E+001	11	...........	6.49685E-002	-5.19861E-003	6.07732E-001	5.41519E-001	-2.68997E-002	-3.79196E-002	7.06393E-001	-4.37396E-002	-3.84093E-003	3.07341E-004	-3.59290E-002	-3.20145E-002	1.59031E-003	2.24180E-003	-4.17618E-002	2.58588E-003
	32	32	4.99695E-002	-5.84172E-002	0.00000E+000	-2.91907E-003	-5.79556E-001	3.89008E-002	3.07367E+001	11	...........	6.48996E-002	-5.17611E-003	6.07738E-001	5.41511E-001	-2.69019E-002	-3.79324E-002	7.06273E-001	-4.37256E-002	-3.79125E-003	3.02374E-004	-3.55023E-002	-3.16336E-002	1.57153E-003	2.21590E-003	-4.12585E-002	2.55432E-003
	33	33	4.99453E-002	-5.85939E-002	0.00000E+000	-2.92649E-003	-5.81313E-001	3.90189E-002	3.06930E+001	11	...........	6.50811E-002	-5.18153E-003	6.07685E-001	5.41505E-001	-2.69132E-002	-3.79635E-002	7.06188E-001	-4.36531E-002	-3.81336E-003	3.03606E-004	-3.56067E-002	-3.17289E-002	1.57695E-003	2.22443E-003	-4.13784E-002	2.55780E-003
	34	34	4.99642E-002	-5.80241E-002	0.00000E+000	-2.89913E-003	-5.75640E-001	3.90702E-002	3.10613E+001	11	...........	6.51926E-002	-5.21167E-003	6.07602E-001	5.41530E-001	-2.69376E-002	-3.79818E-002	7.06229E-001	-4.36893E-002	-3.78274E-003	3.02402E-004	-3.52556E-002	-3.14218E-002	1.56303E-003	2.20386E-003	-4.09783E-002	2.53503E-003
	35	35	4.99514E-002	-5.76684E-002	0.00000E+000	-2.88061E-003	-5.72110E-001	3.91048E-002	3.11430E+001	11	...........	6.52419E-002	-5.23722E-003	6.07648E-001	5.41601E-001	-2.69521E-002	-3.79654E-002	7.06322E-001	-4.37535E-002	-3.76240E-003	3.02022E-004	-3.50421E-002	-3.12332E-002	1.55428E-003	2.18940E-003	-4.07324E-002	2.52319E-003
	36	36	4.99506E-002	-5.70455E-002	0.00000E+000	-2.84946E-003	-5.65913E-001	3.91687E-002	3.11798E+001	11	...........	6.53531E-002	-5.30153E-003	6.07626E-001	5.41656E-001	-2.69699E-002	-3.79564E-002	7.06362E-001	-4.38181E-002	-3.72810E-003	3.02428E-004	-3.46623E-002	-3.08990E-002	1.53851E-003	2.16524E-003	-4.02948E-002	2.49962E-003
	37	37	4.99583E-002	-5.64513E-002	0.00000E+000	-2.82021E-003	-5.60011E-001	3.92430E-002	3.12434E+001	11	...........	6.54661E-002	-5.28250E-003	6.07445E-001	5.41679E-001	-2.69574E-002	-3.79833E-002	7.06415E-001	-4.38339E-002	-3.69565E-003	2.98204E-004	-3.42910E-002	-3.05785E-002	1.52178E-003	2.14421E-003	-3.98780E-002	2.47448E-003
	38	38	4.99358E-002	-5.57819E-002	0.00000E+000	-2.78551E-003	-5.53338E-001	3.93134E-002	3.04084E+001	11	...........	6.55701E-002	-5.32611E-003	6.07463E-001	5.41766E-001	-2.69436E-002	-3.79750E-002	7.06422E-001	-4.37697E-002	-3.65763E-003	2.97101E-004	-3.38855E-002	-3.02208E-002	1.50297E-003	2.11832E-003	-3.94056E-002	2.44156E-003
	39	39	4.99717E-002	-5.46618E-002	0.00000E+000	-2.73154E-003	-5.42212E-001	3.92856E-002	3.09423E+001	11	...........	6.55425E-002	-5.23903E-003	6.07263E-001	5.41977E-001	-2.69304E-002	-3.79675E-002	7.06333E-001	-4.37678E-002	-3.58267E-003	2.86375E-004	-3.31941E-002	-2.96255E-002	1.47207E-003	2.07537E-003	-3.86094E-002	2.39243E-003
	40	40	4.99540E-002	-5.50686E-002	0.00000E+000	-2.75089E-003	-5.46253E-001	3.93710E-002	3.13680E+001	11	...........	6.57037E-002	-5.34833E-003	6.07216E-001	5.42012E-001	-2.69300E-002	-3.79533E-002	7.06332E-001	-4.38464E-002	-3.61821E-003	2.94525E-004	-3.34386E-002	-2.98479E-002	1.48300E-003	2.09004E-003	-3.88967E-002	2.41456E-003
	41	41	4.99500E-002	-5.44645E-002	0.00000E+000	-2.72050E-003	-5.40250E-001	3.94037E-002	3.14275E+001	11	...........	6.57419E-002	-5.38958E-003	6.07175E-001	5.41971E-001	-2.69506E-002	-3.79382E-002	7.06456E-001	-4.38108E-002	-3.58060E-003	2.93541E-004	-3.30695E-002	-2.95181E-002	1.46785E-003	2.06628E-003	-3.84767E-002	2.38613E-003
	42	42	4.99554E-002	-5.38398E-002	0.00000E+000	-2.68959E-003	-5.34042E-001	3.94536E-002	3.15024E+001	11	...........	6.58112E-002	-5.42417E-003	6.06987E-001	5.41839E-001	-2.69811E-002	-3.79371E-002	7.06434E-001	-4.37757E-002	-3.54326E-003	2.92036E-004	-3.26801E-002	-2.91725E-002	1.45266E-003	2.04252E-003	-3.80343E-002	2.35687E-003
	43	43	4.99405E-002	-5.30226E-002	0.00000E+000	-2.64797E-003	-5.25911E-001	3.93125E-002	3.10364E+001	11	...........	6.58794E-002	-5.37014E-003	6.06866E-001	5.41721E-001	-2.69885E-002	-3.79426E-002	7.06387E-001	-4.38100E-002	-3.49310E-003	2.84739E-004	-3.21776E-002	-2.87234E-002	1.43100E-003	2.01182E-003	-3.74545E-002	2.32292E-003
	44	44	4.99522E-002	-5.21349E-002	0.00000E+000	-2.60425E-003	-5.17093E-001	3.94932E-002	3.08308E+001	11	...........	6.58736E-002	-5.34931E-003	6.06767E-001	5.41593E-001	-2.69826E-002	-3.79464E-002	7.06428E-001	-4.37429E-002	-3.43431E-003	2.78886E-004	-3.16337E-002	-2.82359E-002	1.40674E-003	1.97833E-003	-3.68296E-002	2.28053E-003
	45	45	4.99646E-002	-5.20052E-002	0.00000E+000	-2.59842E-003	-5.15790E-001	3.95940E-002	3.13767E+001	11	...........	6.60667E-002	-5.32083E-003	6.06782E-001	5.41702E-001	-2.69744E-002	-3.79249E-002	7.06374E-001	-4.38388E-002	-3.43581E-003	2.76711E-004	-3.15558E-002	-2.81713E-002	1.40281E-003	1.97229E-003	-3.67351E-002	2.27984E-003
	46	46	4.99493E-002	-5.14847E-002	0.00000E+000	-2.57163E-003	-5.10628E-001	3.95199E-002	3.11911E+001	11	...........	6.59293E-002	-5.26889E-003	6.06982E-001	5.41688E-001	-2.70060E-002	-3.79281E-002	7.06414E-001	-4.38335E-002	-3.39435E-003	2.71267E-004	-3.12503E-002	-2.78886E-002	1.39039E-003	1.95272E-003	-3.63695E-002	2.25675E-003
	47	47	4.99615E-002	-5.14942E-002	0.00000E+000	-2.57273E-003	-5.10737E-001	3.97035E-002	3.16874E+001	11	...........	6.62596E-002	-5.33722E-003	6.07052E-001	5.41594E-001	-2.70211E-002	-3.79361E-002	7.06280E-001	-4.39818E-002	-3.41198E-003	2.74836E-004	-3.12596E-002	-2.78889E-002	1.39143E-003	1.95349E-003	-3.63693E-002	2.26481E-003
	48	48	4.99506E-002	-5.05425E-002	0.00000E+000	-2.52463E-003	-5.01275E-001	3.96807E-002	3.15546E+001	11	...........	6.62035E-002	-5.33083E-003	6.07154E-001	5.41629E-001	-2.70231E-002	-3.79507E-002	7.06299E-001	-4.40303E-002	-3.34609E-003	2.69434E-004	-3.06871E-002	-2.73753E-002	1.36581E-003	1.91812E-003	-3.56981E-002	2.22540E-003
	49	49	4.99476E-002	-4.96545E-002	0.00000E+000	-2.48013E-003	-4.92446E-001	3.95409E-002	3.08738E+001	11	...........	6.59906E-002	-5.20403E-003	6.06955E-001	5.41696E-001	-2.70371E-002	-3.79794E-002	7.06317E-001	-4.39825E-002	-3.27673E-003	2.58403E-004	-3.01381E-002	-2.68977E-002	1.34251E-003	1.88585E-003	-3.50718E-002	2.18393E-003
	50	50	4.99587E-002	-4.94950E-002	0.00000E+000	-2.47271E-003	-4.90860E-001	3.98076E-002	3.17475E+001	11	...........	6.64157E-002	-5.26000E-003	6.06808E-001	5.41798E-001	-2.70233E-002	-3.79719E-002	7.06328E-001	-4.39432E-002	-3.28725E-003	2.60344E-004	-3.00340E-002	-2.68163E-002	1.33752E-003	1.87942E-003	-3.49597E-002	2.17497E-003
	51	51	4.99576E-002	-4.93816E-002	0.00000E+000	-2.46699E-003	-4.89733E-001	3.98044E-002	3.19126E+001	11	...........	6.64117E-002	-5.29028E-003	6.06724E-001	5.41710E-001	-2.70231E-002	-3.79636E-002	7.06333E-001	-4.38237E-002	-3.27952E-003	2.61242E-004	-2.99610E-002	-2.67505E-002	1.33444E-003	1.87470E-003	-3.48799E-002	2.16409E-003
	52	52	4.99537E-002	-4.89323E-002	0.00000E+000	-2.44435E-003	-4.85273E-001	3.98262E-002	3.17065E+001	11	...........	6.64469E-002	-5.23958E-003	6.06712E-001	5.41888E-001	-2.70140E-002	-3.79665E-002	7.06265E-001	-4.38233E-002	-3.25140E-003	2.56385E-004	-2.96879E-002	-2.65158E-002	1.32186E-003	1.85779E-003	-3.45592E-002	2.14438E-003
	53	53	4.99528E-002	-4.79831E-002	0.00000E+000	-2.39689E-003	-4.75828E-001	3.97742E-002	3.12956E+001	11	...........	6.63504E-002	-5.33056E-003	6.06763E-001	5.42061E-001	-2.70033E-002	-3.79782E-002	7.06261E-001	-4.37606E-002	-3.18370E-003	2.55776E-004	-2.91143E-002	-2.60097E-002	1.29570E-003	1.82231E-003	-3.38886E-002	2.09977E-003
	54	54	4.99547E-002	-4.78992E-002	0.00000E+000	-2.39279E-003	-4.74983E-001	3.99642E-002	3.19287E+001	11	...........	6.66708E-002	-5.36444E-003	6.06919E-001	5.42095E-001	-2.69832E-002	-3.79865E-002	7.06317E-001	-4.38121E-002	-3.19348E-003	2.56953E-004	-2.90710E-002	-2.59660E-002	1.29247E-003	1.81953E-003	-3.38321E-002	2.09857E-003
	55	55	4.99571E-002	-4.74132E-002	0.00000E+000	-2.36863E-003	-4.70161E-001	3.99244E-002	3.19980E+001	11	...........	6.66115E-002	-5.21708E-003	6.06982E-001	5.42125E-001	-2.69881E-002	-3.79814E-002	7.06192E-001	-4.37994E-002	-3.15827E-003	2.47359E-004	-2.87790E-002	-2.57039E-002	1.27959E-003	1.80082E-003	-3.34828E-002	2.07667E-003
	56	56	4.99528E-002	-4.69122E-002	0.00000E+000	-2.34339E-003	-4.65172E-001	3.99802E-002	3.18781E+001	11	...........	6.66972E-002	-5.26069E-003	6.06963E-001	5.42171E-001	-2.69792E-002	-3.79851E-002	7.06180E-001	-4.38518E-002	-3.12891E-003	2.46791E-004	-2.84740E-002	-2.54344E-002	1.26565E-003	1.78197E-003	-3.31284E-002	2.05718E-003
	57	57	4.99505E-002	-4.63413E-002	0.00000E+000	-2.31477E-003	-4.59505E-001	4.00427E-002	3.17920E+001	11	...........	6.68165E-002	-5.24778E-003	6.06987E-001	5.42400E-001	-2.69789E-002	-3.79814E-002	7.06102E-001	-4.38435E-002	-3.09637E-003	2.43189E-004	-2.81286E-002	-2.51355E-002	1.25024E-003	1.76011E-003	-3.27217E-002	2.03176E-003
	58	58	4.99570E-002	-4.55570E-002	0.00000E+000	-2.27589E-003	-4.51697E-001	3.99718E-002	3.12391E+001	11	...........	6.66947E-002	-5.25333E-003	6.06947E-001	5.42606E-001	-2.69758E-002	-3.79915E-002	7.06123E-001	-4.38842E-002	-3.03841E-003	2.39326E-004	-2.76507E-002	-2.47195E-002	1.22894E-003	1.73078E-003	-3.21689E-002	1.99923E-003
	59	59	4.99580E-002	-4.54384E-002	0.00000E+000	-2.27001E-003	-4.50517E-001	4.01217E-002	3.20684E+001	11	...........	6.69362E-002	-5.30111E-003	6.06848E-001	5.42651E-001	-2.69683E-002	-3.79826E-002	7.06176E-001	-4.38842E-002	-3.04148E-003	2.40874E-004	-2.75742E-002	-2.46572E-002	1.22540E-003	1.72587E-003	-3.20875E-002	1.99403E-003
	60	60	4.99532E-002	-4.51846E-002	0.00000E+000	-2.25712E-003	-4.47994E-001	4.01474E-002	3.22436E+001	11	...........	6.69874E-002	-5.37125E-003	6.07034E-001	5.42791E-001	-2.69865E-002	-3.79621E-002	7.06108E-001	-4.38581E-002	-3.02680E-003	2.42698E-004	-2.74286E-002	-2.45258E-002	1.21938E-003	1.71530E-003	-3.19052E-002	1.98171E-003
	61	61	4.99531E-002	-4.48593E-002	0.00000E+000	-2.24086E-003	-4.44762E-001	4.01456E-002	3.22919E+001	11	...........	6.69739E-002	-5.40764E-003	6.07114E-001	5.42756E-001	-2.69718E-002	-3.79653E-002	7.06203E-001	-4.38283E-002	-3.00440E-003	2.42583E-004	-2.72348E-002	-2.43477E-002	1.20994E-003	1.70310E-003	-3.16798E-002	1.96611E-003
	62	62	4.99523E-002	-4.42898E-002	0.00000E+000	-2.21238E-003	-4.39100E-001	4.02037E-002	3.23215E+001	11	...........	6.70922E-002	-5.38111E-003	6.06978E-001	5.42697E-001	-2.69635E-002	-3.79543E-002	7.06210E-001	-4.40046E-002	-2.97150E-003	2.38328E-004	-2.68829E-002	-2.40360E-002	1.19421E-003	1.68099E-003	-3.12779E-002	1.94895E-003
	63	63	4.99556E-002	-4.39127E-002	0.00000E+000	-2.19368E-003	-4.35354E-001	4.02407E-002	3.24163E+001	11	...........	6.71482E-002	-5.34014E-003	6.06954E-001	5.42724E-001	-2.69812E-002	-3.79592E-002	7.06171E-001	-4.39519E-002	-2.94866E-003	2.34500E-004	-2.66530E-002	-2.38324E-002	1.18482E-003	1.66689E-003	-3.10099E-002	1.93005E-003
	64	64	4.99249E-002	-4.27768E-002	0.00000E+000	-2.13563E-003	-4.24060E-001	4.02322E-002	3.12566E+001	11	...........	6.71247E-002	-5.22972E-003	6.06781E-001	5.42762E-001	-2.69839E-002	-3.79493E-002	7.06131E-001	-4.38544E-002	-2.87138E-003	2.23711E-004	-2.59561E-002	-2.32176E-002	1.15428E-003	1.62335E-003	-3.02060E-002	1.87595E-003
	65	65	4.99698E-002	-4.19632E-002	0.00000E+000	-2.09689E-003	-4.15968E-001	4.02201E-002	3.09128E+001	11	...........	6.71076E-002	-5.28194E-003	6.06616E-001	5.42719E-001	-2.69753E-002	-3.79375E-002	7.06098E-001	-4.38517E-002	-2.81605E-003	2.21647E-004	-2.54555E-002	-2.27742E-002	1.13197E-003	1.59198E-003	-2.96301E-002	1.84015E-003
	66	66	4.99686E-002	-4.21716E-002	0.00000E+000	-2.10726E-003	-4.18038E-001	4.03044E-002	3.22504E+001	11	...........	6.72456E-002	-5.37333E-003	6.06696E-001	5.42676E-001	-2.69893E-002	-3.79667E-002	7.06177E-001	-4.38267E-002	-2.83586E-003	2.26602E-004	-2.55854E-002	-2.28856E-002	1.13818E-003	1.60112E-003	-2.97807E-002	1.84824E-003
	67	67	4.99566E-002	-4.20339E-002	0.00000E+000	-2.09987E-003	-4.16668E-001	4.02260E-002	3.23836E+001	11	...........	6.71024E-002	-5.25486E-003	6.06897E-001	5.42608E-001	-2.69910E-002	-3.79912E-002	7.06177E-001	-4.38700E-002	-2.82057E-003	2.20882E-004	-2.55102E-002	-2.28079E-002	1.13454E-003	1.59692E-003	-2.96833E-002	1.84403E-003
	68	68	4.99535E-002	-4.16261E-002	0.00000E+000	-2.07937E-003	-4.12612E-001	4.02968E-002	3.24945E+001	11	...........	6.72376E-002	-5.26069E-003	6.06847E-001	5.42518E-001	-2.70093E-002	-3.79994E-002	7.06174E-001	-4.37708E-002	-2.79884E-003	2.18982E-004	-2.52607E-002	-2.25829E-002	1.12429E-003	1.58177E-003	-2.93953E-002	1.82201E-003
	69	69	4.99509E-002	-4.10602E-002	0.00000E+000	-2.05099E-003	-4.07008E-001	4.03653E-002	3.25032E+001	11	...........	6.73292E-002	-5.18819E-003	6.06931E-001	5.42571E-001	-2.70311E-002	-3.80074E-002	7.06230E-001	-4.37612E-002	-2.76455E-003	2.13028E-004	-2.49207E-002	-2.22781E-002	1.10990E-003	1.56059E-003	-2.89979E-002	1.79685E-003
	70	70	4.99475E-002	-4.00020E-002	0.00000E+000	-1.99800E-003	-3.96489E-001	4.02017E-002	3.11746E+001	11	...........	6.70768E-002	-5.29986E-003	6.06850E-001	5.42579E-001	-2.70506E-002	-3.80142E-002	7.06241E-001	-4.38167E-002	-2.68321E-003	2.12005E-004	-2.42752E-002	-2.17043E-002	1.08208E-003	1.52064E-003	-2.82511E-002	1.75276E-003
	71	71	4.99657E-002	-4.01298E-002	0.00000E+000	-2.00511E-003	-3.97745E-001	4.04986E-002	3.24584E+001	11	...........	6.75783E-002	-5.36833E-003	6.06872E-001	5.42533E-001	-2.70524E-002	-3.80401E-002	7.06266E-001	-4.38736E-002	-2.71190E-003	2.15430E-004	-2.43536E-002	-2.17717E-002	1.08561E-003	1.52654E-003	-2.83423E-002	1.76064E-003
	72	72	4.99528E-002	-3.98863E-002	0.00000E+000	-1.99243E-003	-3.95331E-001	4.03932E-002	3.27977E+001	11	...........	6.74047E-002	-5.39889E-003	6.06813E-001	5.42651E-001	-2.70443E-002	-3.80642E-002	7.06307E-001	-4.38090E-002	-2.68852E-003	2.15341E-004	-2.42035E-002	-2.16443E-002	1.07870E-003	1.51824E-003	-2.81719E-002	1.74738E-003
	73	73	4.99574E-002	-3.95478E-002	0.00000E+000	-1.97570E-003	-3.91972E-001	4.04705E-002	3.25332E+001	11	...........	6.75253E-002	-5.35806E-003	6.06665E-001	5.42662E-001	-2.70431E-002	-3.80608E-002	7.06231E-001	-4.38094E-002	-2.67048E-003	2.11899E-004	-2.39923E-002	-2.14611E-002	1.06949E-003	1.50522E-003	-2.79299E-002	1.73257E-003
	74	74	4.99529E-002	-3.89243E-002	0.00000E+000	-1.94438E-003	-3.85775E-001	4.05275E-002	3.26141E+001	11	...........	6.76033E-002	-5.32014E-003	6.06767E-001	5.42548E-001	-2.70483E-002	-3.80510E-002	7.06216E-001	-4.37644E-002	-2.63141E-003	2.07083E-004	-2.36180E-002	-2.11183E-002	1.05284E-003	1.48111E-003	-2.74890E-002	1.70350E-003
	75	75	4.99513E-002	-3.82506E-002	0.00000E+000	-1.91067E-003	-3.79068E-001	4.03959E-002	3.20873E+001	11	...........	6.74056E-002	-5.34361E-003	6.06939E-001	5.42487E-001	-2.70767E-002	-3.80286E-002	7.06159E-001	-4.37700E-002	-2.57830E-003	2.04396E-004	-2.32158E-002	-2.07504E-002	1.03570E-003	1.45462E-003	-2.70110E-002	1.67423E-003
	76	76	4.99444E-002	-3.79163E-002	0.00000E+000	-1.89371E-003	-3.75745E-001	4.06026E-002	3.19157E+001	11	...........	6.77236E-002	-5.22347E-003	6.06975E-001	5.42311E-001	-2.70867E-002	-3.79943E-002	7.06261E-001	-4.37104E-002	-2.56783E-003	1.98055E-004	-2.30142E-002	-2.05624E-002	1.02703E-003	1.44060E-003	-2.67788E-002	1.65734E-003
	77	77	4.99713E-002	-3.75338E-002	0.00000E+000	-1.87561E-003	-3.71936E-001	4.05955E-002	3.27914E+001	11	...........	6.77286E-002	-5.23528E-003	6.07061E-001	5.42227E-001	-2.70929E-002	-3.79846E-002	7.06275E-001	-4.37228E-002	-2.54211E-003	1.96500E-004	-2.27853E-002	-2.03518E-002	1.01690E-003	1.42571E-003	-2.65092E-002	1.64108E-003
	78	78	4.99530E-002	-3.74000E-002	0.00000E+000	-1.86824E-003	-3.70602E-001	4.05678E-002	3.29653E+001	11	...........	6.76792E-002	-5.13583E-003	6.07127E-001	5.42366E-001	-2.70882E-002	-3.79678E-002	7.06324E-001	-4.35672E-002	-2.53120E-003	1.92080E-004	-2.27065E-002	-2.02845E-002	1.01310E-003	1.41999E-003	-2.64165E-002	1.62941E-003
	79	79	4.99524E-002	-3.70375E-002	0.00000E+000	-1.85011E-003	-3.67010E-001	4.06268E-002	3.29967E+001	11	...........	6.77849E-002	-5.19194E-003	6.07107E-001	5.42241E-001	-2.70660E-002	-3.79458E-002	7.06359E-001	-4.35836E-002	-2.51058E-003	1.92297E-004	-2.24857E-002	-2.00833E-002	1.00246E-003	1.40542E-003	-2.61618E-002	1.61423E-003
	80	80	4.99449E-002	-3.62958E-002	0.00000E+000	-1.81279E-003	-3.59625E-001	4.06513E-002	3.19998E+001	11	...........	6.78319E-002	-5.25375E-003	6.07217E-001	5.42220E-001	-2.70414E-002	-3.79687E-002	7.06442E-001	-4.36171E-002	-2.46202E-003	1.90689E-004	-2.20395E-002	-1.96803E-002	9.81489E-004	1.37811E-003	-2.56409E-002	1.58312E-003
	81	81	4.99656E-002	-3.56674E-002	0.00000E+000	-1.78214E-003	-3.53375E-001	4.05910E-002	3.25294E+001	11	...........	6.77114E-002	-5.18681E-003	6.06973E-001	5.42274E-001	-2.70375E-002	-3.80060E-002	7.06405E-001	-4.36076E-002	-2.41509E-003	1.85000E-004	-2.16492E-002	-1.93415E-002	9.64358E-004	1.35557E-003	-2.51956E-002	1.55537E-003
	82	82	4.99592E-002	-3.58624E-002	0.00000E+000	-1.79166E-003	-3.55318E-001	4.06667E-002	3.28147E+001	11	...........	6.78621E-002	-5.26861E-003	6.07047E-001	5.42349E-001	-2.70437E-002	-3.80014E-002	7.06375E-001	-4.37051E-002	-2.43370E-003	1.88945E-004	-2.17702E-002	-1.94499E-002	9.69854E-004	1.36282E-003	-2.53323E-002	1.56737E-003
	83	83	4.99497E-002	-3.54932E-002	0.00000E+000	-1.77287E-003	-3.51639E-001	4.07094E-002	3.28791E+001	11	...........	6.79336E-002	-5.39319E-003	6.07073E-001	5.42254E-001	-2.70450E-002	-3.80086E-002	7.06370E-001	-4.37762E-002	-2.41118E-003	1.91422E-004	-2.15470E-002	-1.92464E-002	9.59914E-004	1.34905E-003	-2.50713E-002	1.55376E-003
	84	84	4.99569E-002	-3.48863E-002	0.00000E+000	-1.74281E-003	-3.45600E-001	4.06992E-002	3.28099E+001	11	...........	6.78976E-002	-5.38792E-003	6.07132E-001	5.42280E-001	-2.70292E-002	-3.80281E-002	7.06351E-001	-4.38147E-002	-2.36870E-003	1.87964E-004	-2.11806E-002	-1.89181E-002	9.42948E-004	1.32666E-003	-2.46420E-002	1.52853E-003
	85	85	4.99580E-002	-3.46103E-002	0.00000E+000	-1.72906E-003	-3.42870E-001	4.07952E-002	3.31032E+001	11	...........	6.80521E-002	-5.30917E-003	6.07108E-001	5.42134E-001	-2.70404E-002	-3.80246E-002	7.06423E-001	-4.37614E-002	-2.35530E-003	1.83752E-004	-2.10122E-002	-1.87634E-002	9.35877E-004	1.31604E-003	-2.44495E-002	1.51460E-003
	86	86	4.99361E-002	-3.40350E-002	0.00000E+000	-1.69958E-003	-3.37144E-001	4.07324E-002	3.18717E+001	11	...........	6.79728E-002	-5.32875E-003	6.06979E-001	5.42034E-001	-2.70324E-002	-3.80461E-002	7.06394E-001	-4.38221E-002	-2.31345E-003	1.81364E-004	-2.06585E-002	-1.84481E-002	9.20046E-004	1.29490E-003	-2.40421E-002	1.49148E-003
	87	87	4.99722E-002	-3.33876E-002	0.00000E+000	-1.66845E-003	-3.30712E-001	4.07485E-002	3.26528E+001	11	...........	6.79803E-002	-5.25208E-003	6.07021E-001	5.41964E-001	-2.69974E-002	-3.80510E-002	7.06235E-001	-4.36499E-002	-2.26970E-003	1.75354E-004	-2.02670E-002	-1.80949E-002	9.01377E-004	1.27043E-003	-2.35795E-002	1.45736E-003
	88	88	4.99603E-002	-3.36163E-002	0.00000E+000	-1.67948E-003	-3.32981E-001	4.08234E-002	3.32614E+001	11	...........	6.81204E-002	-5.25444E-003	6.07118E-001	5.41905E-001	-2.70174E-002	-3.80386E-002	7.06292E-001	-4.36046E-002	-2.28996E-003	1.76635E-004	-2.04091E-002	-1.82168E-002	9.08223E-004	1.27872E-003	-2.37429E-002	1.46582E-003
	89	89	4.99531E-002	-3.32844E-002	0.00000E+000	-1.66266E-003	-3.29689E-001	4.08347E-002	3.31443E+001	11	...........	6.81349E-002	-5.35819E-003	6.07085E-001	5.41994E-001	-2.70150E-002	-3.80351E-002	7.06320E-001	-4.37303E-002	-2.26783E-003	1.78345E-004	-2.02065E-002	-1.80400E-002	8.99179E-004	1.26598E-003	-2.35095E-002	1.45554E-003
	90	90	4.99537E-002	-3.28440E-002	0.00000E+000	-1.64068E-003	-3.25299E-001	4.08039E-002	3.31697E+001	11	...........	6.81074E-002	-5.44472E-003	6.06987E-001	5.42057E-001	-2.70368E-002	-3.80343E-002	7.06295E-001	-4.37329E-002	-2.23692E-003	1.78827E-004	-1.99359E-002	-1.78033E-002	8.87998E-004	1.24920E-003	-2.31976E-002	1.43637E-003
	91	91	4.99562E-002	-3.25565E-002	0.00000E+000	-1.62640E-003	-3.22431E-001	4.08531E-002	3.32761E+001	11	...........	6.81764E-002	-5.43917E-003	6.06987E-001	5.42042E-001	-2.70117E-002	-3.80103E-002	7.06305E-001	-4.37790E-002	-2.21959E-003	1.77080E-004	-1.97614E-002	-1.76470E-002	8.79406E-004	1.23748E-003	-2.29948E-002	1.42529E-003
	92	92	4.99557E-002	-3.21888E-002	0.00000E+000	-1.60801E-003	-3.18779E-001	4.08915E-002	3.33234E+001	11	...........	6.82179E-002	-5.32208E-003	6.07080E-001	5.42120E-001	-2.69871E-002	-3.79926E-002	7.06254E-001	-4.37446E-002	-2.19585E-003	1.71312E-004	-1.95412E-002	-1.74502E-002	8.68682E-004	1.22294E-003	-2.27335E-002	1.40809E-003
	93	93	4.99381E-002	-3.15750E-002	0.00000E+000	-1.57680E-003	-3.12680E-001	4.09303E-002	3.20307E+001	11	...........	6.82886E-002	-5.35458E-003	6.07122E-001	5.42148E-001	-2.69721E-002	-3.79949E-002	7.06289E-001	-4.37276E-002	-2.15621E-003	1.69071E-004	-1.91699E-002	-1.71183E-002	8.51643E-004	1.19969E-003	-2.23011E-002	1.38070E-003
	94	94	4.99729E-002	-3.08382E-002	0.00000E+000	-1.54107E-003	-3.05364E-001	4.09000E-002	3.30775E+001	11	...........	6.82314E-002	-5.27181E-003	6.07084E-001	5.41940E-001	-2.69624E-002	-3.80122E-002	7.06328E-001	-4.37347E-002	-2.10413E-003	1.62573E-004	-1.87214E-002	-1.67125E-002	8.31471E-004	1.17223E-003	-2.17819E-002	1.34870E-003
	95	95	4.99570E-002	-3.11303E-002	0.00000E+000	-1.55518E-003	-3.08258E-001	4.09709E-002	3.35392E+001	11	...........	6.83454E-002	-5.42069E-003	6.07115E-001	5.41804E-001	-2.69374E-002	-3.80017E-002	7.06313E-001	-4.37749E-002	-2.12761E-003	1.68748E-004	-1.88997E-002	-1.68665E-002	8.38569E-004	1.18300E-003	-2.19877E-002	1.36273E-003
	96	96	4.99535E-002	-3.07353E-002	0.00000E+000	-1.53534E-003	-3.04365E-001	4.09479E-002	3.33317E+001	11	...........	6.83208E-002	-5.32736E-003	6.07235E-001	5.41800E-001	-2.69303E-002	-3.80103E-002	7.06427E-001	-4.38196E-002	-2.09986E-003	1.63738E-004	-1.86635E-002	-1.66524E-002	8.27710E-004	1.16826E-003	-2.17122E-002	1.34681E-003
	97	97	4.99577E-002	-3.04181E-002	0.00000E+000	-1.51962E-003	-3.01203E-001	4.10073E-002	3.34358E+001	11	...........	6.84140E-002	-5.26208E-003	6.07260E-001	5.42003E-001	-2.69175E-002	-3.79876E-002	7.06351E-001	-4.38465E-002	-2.08103E-003	1.60063E-004	-1.84717E-002	-1.64867E-002	8.18779E-004	1.15551E-003	-2.14858E-002	1.33373E-003
	98	98	4.99516E-002	-2.98152E-002	0.00000E+000	-1.48932E-003	-2.95205E-001	4.09322E-002	3.30009E+001	11	...........	6.82938E-002	-5.27028E-003	6.07169E-001	5.41892E-001	-2.69043E-002	-3.79633E-002	7.06353E-001	-4.38146E-002	-2.03619E-003	1.57134E-004	-1.81029E-002	-1.61566E-002	8.02158E-004	1.13188E-003	-2.10601E-002	1.30634E-003
	99	99	4.99583E-002	-2.97144E-002	0.00000E+000	-1.48448E-003	-2.94197E-001	4.11052E-002	3.29487E+001	11	...........	6.85753E-002	-5.39750E-003	6.07191E-001	5.41751E-001	-2.68918E-002	-3.79636E-002	7.06402E-001	-4.38196E-002	-2.03768E-003	1.60384E-004	-1.80423E-002	-1.60978E-002	7.99075E-004	1.12807E-003	-2.09903E-002	1.30207E-003
	100	100	4.99517E-002	-2.88840E-002	0.00000E+000	-1.44281E-003	-2.85945E-001	4.09672E-002	3.32536E+001	11	...........	6.83399E-002	-5.32944E-003	6.07376E-001	5.41622E-001	-2.68994E-002	-3.79425E-002	7.06505E-001	-4.37753E-002	-1.97393E-003	1.53936E-004	-1.75435E-002	-1.56442E-002	7.76964E-004	1.09593E-003	-2.04067E-002	1.26441E-003
	101	101	4.99558E-002	-2.86970E-002	0.00000E+000	-1.43358E-003	-2.84084E-001	4.10887E-002	3.29349E+001	11	...........	6.85544E-002	-5.33333E-003	6.07560E-001	5.41760E-001	-2.68881E-002	-3.79164E-002	7.06508E-001	-4.37592E-002	-1.96731E-003	1.53051E-004	-1.74352E-002	-1.55469E-002	7.71608E-004	1.08809E-003	-2.02747E-002	1.25576E-003
	102	102	4.99560E-002	-2.82535E-002	0.00000E+000	-1.41143E-003	-2.79680E-001	4.09788E-002	3.29787E+001	11	...........	6.83837E-002	-5.30097E-003	6.07547E-001	5.41868E-001	-2.69051E-002	-3.79136E-002	7.06355E-001	-4.38062E-002	-1.93208E-003	1.49771E-004	-1.71653E-002	-1.53097E-002	7.60164E-004	1.07119E-003	-1.99570E-002	1.23768E-003
	103	103	4.99616E-002	-2.82798E-002	0.00000E+000	-1.41290E-003	-2.79948E-001	4.11658E-002	3.35872E+001	11	...........	6.86908E-002	-5.28403E-003	6.07674E-001	5.41849E-001	-2.69086E-002	-3.79168E-002	7.06388E-001	-4.38893E-002	-1.94256E-003	1.49431E-004	-1.71849E-002	-1.53234E-002	7.60969E-004	1.07228E-003	-1.99765E-002	1.24118E-003
	104	104	4.99555E-002	-2.80105E-002	0.00000E+000	-1.39928E-003	-2.77264E-001	4.11123E-002	3.37696E+001	11	...........	6.86025E-002	-5.19486E-003	6.07707E-001	5.41836E-001	-2.69233E-002	-3.79217E-002	7.06488E-001	-4.37940E-002	-1.92159E-003	1.45511E-004	-1.70222E-002	-1.51771E-002	7.54136E-004	1.06221E-003	-1.97891E-002	1.22669E-003
	105	105	4.99546E-002	-2.76775E-002	0.00000E+000	-1.38262E-003	-2.73945E-001	4.11259E-002	3.37682E+001	11	...........	6.86169E-002	-5.30125E-003	6.07669E-001	5.41854E-001	-2.69386E-002	-3.79243E-002	7.06438E-001	-4.36657E-002	-1.89915E-003	1.46725E-004	-1.68188E-002	-1.49972E-002	7.45594E-004	1.04965E-003	-1.95525E-002	1.20856E-003
	106	106	4.99436E-002	-2.71207E-002	0.00000E+000	-1.35451E-003	-2.68401E-001	4.11674E-002	3.26489E+001	11	...........	6.86868E-002	-5.18000E-003	6.07588E-001	5.41871E-001	-2.69551E-002	-3.79389E-002	7.06446E-001	-4.37606E-002	-1.86283E-003	1.40485E-004	-1.64782E-002	-1.46959E-002	7.31042E-004	1.02893E-003	-1.91593E-002	1.18682E-003
	107	107	4.99692E-002	-2.66293E-002	0.00000E+000	-1.33064E-003	-2.63523E-001	4.10763E-002	3.28369E+001	11	...........	6.85376E-002	-5.32833E-003	6.07646E-001	5.41778E-001	-2.69636E-002	-3.79006E-002	7.06443E-001	-4.37906E-002	-1.82511E-003	1.41890E-004	-1.61811E-002	-1.44271E-002	7.18021E-004	1.00926E-003	-1.88121E-002	1.16611E-003
	108	108	4.99571E-002	-2.63772E-002	0.00000E+000	-1.31773E-003	-2.61012E-001	4.10806E-002	3.32692E+001	11	...........	6.85321E-002	-5.33528E-003	6.07705E-001	5.41710E-001	-2.69803E-002	-3.79125E-002	7.06397E-001	-4.38782E-002	-1.80768E-003	1.40730E-004	-1.60295E-002	-1.42888E-002	7.11664E-004	1.00002E-003	-1.86328E-002	1.15738E-003
	109	109	4.99563E-002	-2.64834E-002	0.00000E+000	-1.32301E-003	-2.62073E-001	4.13465E-002	3.37562E+001	11	...........	6.89658E-002	-5.38861E-003	6.07625E-001	5.41845E-001	-2.69668E-002	-3.79086E-002	7.06464E-001	-4.38360E-002	-1.82645E-003	1.42709E-004	-1.60920E-002	-1.43499E-002	7.14174E-004	1.00395E-003	-1.87096E-002	1.16093E-003
	110	110	4.99518E-002	-2.59198E-002	0.00000E+000	-1.29474E-003	-2.56460E-001	4.12112E-002	3.36779E+001	11	...........	6.87635E-002	-5.31000E-003	6.07670E-001	5.41794E-001	-2.69483E-002	-3.79060E-002	7.06434E-001	-4.38339E-002	-1.78234E-003	1.37634E-004	-1.57507E-002	-1.40432E-002	6.98497E-004	9.82517E-004	-1.83107E-002	1.13617E-003
	111	111	4.99505E-002	-2.54027E-002	0.00000E+000	-1.26888E-003	-2.51321E-001	4.11182E-002	3.26815E+001	11	...........	6.86094E-002	-5.26819E-003	6.07781E-001	5.41773E-001	-2.69624E-002	-3.79114E-002	7.06456E-001	-4.37646E-002	-1.74286E-003	1.33826E-004	-1.54393E-002	-1.37625E-002	6.84916E-004	9.63050E-004	-1.79459E-002	1.11174E-003
	112	112	4.99629E-002	-2.52292E-002	0.00000E+000	-1.26052E-003	-2.49595E-001	4.12375E-002	3.32571E+001	11	...........	6.88026E-002	-5.23500E-003	6.07776E-001	5.41757E-001	-2.69510E-002	-3.78886E-002	7.06430E-001	-4.37883E-002	-1.73583E-003	1.32075E-004	-1.53337E-002	-1.36681E-002	6.79951E-004	9.55898E-004	-1.78226E-002	1.10474E-003
	113	113	4.99581E-002	-2.51853E-002	0.00000E+000	-1.25821E-003	-2.49157E-001	4.12850E-002	3.39159E+001	11	...........	6.88929E-002	-5.25292E-003	6.07795E-001	5.41587E-001	-2.69460E-002	-3.78901E-002	7.06462E-001	-4.37261E-002	-1.73509E-003	1.32296E-004	-1.53075E-002	-1.36400E-002	6.78641E-004	9.54273E-004	-1.77924E-002	1.10125E-003
	114	114	4.99543E-002	-2.48690E-002	0.00000E+000	-1.24231E-003	-2.46004E-001	4.12603E-002	3.34678E+001	11	...........	6.88308E-002	-5.31194E-003	6.07761E-001	5.41601E-001	-2.69407E-002	-3.78981E-002	7.06476E-001	-4.37596E-002	-1.71176E-003	1.32103E-004	-1.51144E-002	-1.34691E-002	6.69989E-004	9.42488E-004	-1.75694E-002	1.08826E-003
	115	115	4.99589E-002	-2.45381E-002	0.00000E+000	-1.22589E-003	-2.42715E-001	4.12895E-002	3.37573E+001	11	...........	6.88789E-002	-5.20097E-003	6.07814E-001	5.41631E-001	-2.69479E-002	-3.79311E-002	7.06514E-001	-4.37154E-002	-1.69016E-003	1.27622E-004	-1.49146E-002	-1.32906E-002	6.61250E-004	9.30757E-004	-1.73365E-002	1.07269E-003
	116	116	4.99540E-002	-2.40969E-002	0.00000E+000	-1.20374E-003	-2.38335E-001	4.12058E-002	3.34499E+001	11	...........	6.87542E-002	-5.26889E-003	6.07685E-001	5.41686E-001	-2.69314E-002	-3.79500E-002	7.06519E-001	-4.38287E-002	-1.65676E-003	1.26964E-004	-1.46433E-002	-1.30530E-002	6.48964E-004	9.14479E-004	-1.70249E-002	1.05614E-003
	117	117	4.99569E-002	-2.39237E-002	0.00000E+000	-1.19516E-003	-2.36611E-001	4.13628E-002	3.39184E+001	11	...........	6.90142E-002	-5.34431E-003	6.07545E-001	5.41910E-001	-2.69253E-002	-3.79679E-002	7.06549E-001	-4.38194E-002	-1.65108E-003	1.27856E-004	-1.45348E-002	-1.29645E-002	6.44154E-004	9.08335E-004	-1.69033E-002	1.04833E-003
	118	118	4.99565E-002	-2.35964E-002	0.00000E+000	-1.17880E-003	-2.33357E-001	4.13502E-002	3.30221E+001	11	...........	6.89844E-002	-5.34708E-003	6.07439E-001	5.41952E-001	-2.69303E-002	-3.79751E-002	7.06371E-001	-4.38521E-002	-1.62779E-003	1.26172E-004	-1.43334E-002	-1.27881E-002	6.35459E-004	8.96078E-004	-1.66678E-002	1.03475E-003
	119	119	4.99574E-002	-2.29107E-002	0.00000E+000	-1.14456E-003	-2.26542E-001	4.11812E-002	3.32542E+001	11	...........	6.86985E-002	-5.26444E-003	6.07489E-001	5.42014E-001	-2.69557E-002	-3.79737E-002	7.06361E-001	-4.37329E-002	-1.57393E-003	1.20612E-004	-1.39180E-002	-1.24179E-002	6.17573E-004	8.70004E-004	-1.61832E-002	1.00195E-003
	120	120	4.99578E-002	-2.31429E-002	0.00000E+000	-1.15617E-003	-2.28861E-001	4.14245E-002	3.40327E+001	11	...........	6.90883E-002	-5.42903E-003	6.07529E-001	5.41836E-001	-2.69740E-002	-3.79725E-002	7.06412E-001	-4.37525E-002	-1.59891E-003	1.25644E-004	-1.40600E-002	-1.25397E-002	6.24258E-004	8.78795E-004	-1.63484E-002	1.01256E-003
	121	121	4.99553E-002	-2.28944E-002	0.00000E+000	-1.14370E-003	-2.26380E-001	4.13980E-002	3.38994E+001	11	...........	6.90551E-002	-5.51208E-003	6.07388E-001	5.41606E-001	-2.69712E-002	-3.79478E-002	7.06374E-001	-4.37715E-002	-1.58098E-003	1.26196E-004	-1.39058E-002	-1.23997E-002	6.17491E-004	8.68793E-004	-1.61720E-002	1.00212E-003
	122	122	4.99537E-002	-2.23448E-002	0.00000E+000	-1.11620E-003	-2.20905E-001	4.12733E-002	3.34105E+001	11	...........	6.88612E-002	-5.43708E-003	6.07445E-001	5.41676E-001	-2.69860E-002	-3.79421E-002	7.06472E-001	-4.38385E-002	-1.53869E-003	1.21490E-004	-1.35732E-002	-1.21036E-002	6.02995E-004	8.47807E-004	-1.57859E-002	9.79560E-004
	123	123	4.99601E-002	-2.23254E-002	0.00000E+000	-1.11538E-003	-2.20710E-001	4.14521E-002	3.40756E+001	11	...........	6.91519E-002	-5.35556E-003	6.07485E-001	5.41614E-001	-2.70054E-002	-3.79200E-002	7.06462E-001	-4.37110E-002	-1.54384E-003	1.19565E-004	-1.35623E-002	-1.20917E-002	6.02907E-004	8.46579E-004	-1.57721E-002	9.75865E-004
	124	124	4.99524E-002	-2.19165E-002	0.00000E+000	-1.09478E-003	-2.16649E-001	4.13703E-002	3.42423E+001	11	...........	6.90285E-002	-5.41861E-003	6.07615E-001	5.41628E-001	-2.70026E-002	-3.79126E-002	7.06537E-001	-4.36329E-002	-1.51287E-003	1.18757E-004	-1.33168E-002	-1.18706E-002	5.91805E-004	8.30914E-004	-1.54848E-002	9.56283E-004
	125	125	4.99527E-002	-2.15346E-002	0.00000E+000	-1.07571E-003	-2.12852E-001	4.13617E-002	3.30899E+001	11	...........	6.90178E-002	-5.27569E-003	6.07657E-001	5.41701E-001	-2.70010E-002	-3.79037E-002	7.06543E-001	-4.37396E-002	-1.48627E-003	1.13610E-004	-1.30856E-002	-1.16653E-002	5.81454E-004	8.16241E-004	-1.52151E-002	9.41913E-004
	126	126	4.99649E-002	-2.13347E-002	0.00000E+000	-1.06598E-003	-2.10864E-001	4.14032E-002	3.40440E+001	11	...........	6.90772E-002	-5.18083E-003	6.07818E-001	5.41797E-001	-2.70197E-002	-3.78853E-002	7.06383E-001	-4.37629E-002	-1.47374E-003	1.10531E-004	-1.29676E-002	-1.15590E-002	5.76457E-004	8.08270E-004	-1.50705E-002	9.33667E-004
	127	127	4.99571E-002	-2.13199E-002	0.00000E+000	-1.06508E-003	-2.10717E-001	4.14367E-002	3.39726E+001	11	...........	6.91321E-002	-5.21375E-003	6.07924E-001	5.41757E-001	-2.70150E-002	-3.78792E-002	7.06450E-001	-4.36993E-002	-1.47389E-003	1.11157E-004	-1.29609E-002	-1.15502E-002	5.75958E-004	8.07581E-004	-1.50615E-002	9.31666E-004
	128	128	4.99553E-002	-2.10075E-002	0.00000E+000	-1.04944E-003	-2.07607E-001	4.14460E-002	3.40770E+001	11	...........	6.91496E-002	-5.32819E-003	6.07967E-001	5.41767E-001	-2.69951E-002	-3.78907E-002	7.06334E-001	-4.37483E-002	-1.45266E-003	1.11932E-004	-1.27719E-002	-1.13812E-002	5.67100E-004	7.95989E-004	-1.48383E-002	9.19043E-004
	129	129	4.99577E-002	-2.07468E-002	0.00000E+000	-1.03646E-003	-2.05023E-001	4.14753E-002	3.41695E+001	11	...........	6.92000E-002	-5.18153E-003	6.08093E-001	5.41842E-001	-2.70225E-002	-3.78728E-002	7.06367E-001	-4.37969E-002	-1.43568E-003	1.07500E-004	-1.26160E-002	-1.12415E-002	5.60630E-004	7.85738E-004	-1.46548E-002	9.08645E-004
	130	130	4.99570E-002	-2.05494E-002	0.00000E+000	-1.02659E-003	-2.03076E-001	4.14758E-002	3.43387E+001	11	...........	6.92122E-002	-5.19708E-003	6.08192E-001	5.41692E-001	-2.70356E-002	-3.78936E-002	7.06351E-001	-4.38382E-002	-1.42227E-003	1.06797E-004	-1.24980E-002	-1.11315E-002	5.55565E-004	7.78692E-004	-1.45151E-002	9.00850E-004
	131	131	4.99514E-002	-2.03129E-002	0.00000E+000	-1.01466E-003	-2.00717E-001	4.15206E-002	3.35705E+001	11	...........	6.92740E-002	-5.21069E-003	6.08199E-001	5.41679E-001	-2.70567E-002	-3.79090E-002	7.06402E-001	-4.38293E-002	-1.40715E-003	1.05844E-004	-1.23543E-002	-1.10031E-002	5.49599E-004	7.70042E-004	-1.43491E-002	8.90299E-004
	132	132	4.99616E-002	-1.98193E-002	0.00000E+000	-9.90203E-004	-1.95803E-001	4.15094E-002	3.42872E+001	11	...........	6.92579E-002	-5.25514E-003	6.08270E-001	5.41875E-001	-2.70393E-002	-3.79110E-002	7.06350E-001	-4.37939E-002	-1.37264E-003	1.04153E-004	-1.20555E-002	-1.07396E-002	5.35899E-004	7.51368E-004	-1.39993E-002	8.67963E-004
	133	133	4.99539E-002	-1.93935E-002	0.00000E+000	-9.68780E-004	-1.91566E-001	4.14287E-002	3.28273E+001	11	...........	6.91146E-002	-5.25500E-003	6.08182E-001	5.41830E-001	-2.70656E-002	-3.79317E-002	7.06434E-001	-4.37132E-002	-1.34037E-003	1.01913E-004	-1.17948E-002	-1.05080E-002	5.24895E-004	7.35626E-004	-1.37002E-002	8.47750E-004
	134	134	4.99609E-002	-1.92020E-002	0.00000E+000	-9.59352E-004	-1.89660E-001	4.14452E-002	3.38519E+001	11	...........	6.91497E-002	-5.28722E-003	6.08189E-001	5.41733E-001	-2.70707E-002	-3.79271E-002	7.06285E-001	-4.38035E-002	-1.32782E-003	1.01526E-004	-1.16785E-002	-1.04024E-002	5.19813E-004	7.28278E-004	-1.35621E-002	8.41116E-004
	135	135	4.99568E-002	-1.93738E-002	0.00000E+000	-9.67855E-004	-1.91361E-001	4.16082E-002	3.45927E+001	11	...........	6.94280E-002	-5.33222E-003	6.08240E-001	5.41619E-001	-2.70911E-002	-3.79381E-002	7.06305E-001	-4.38582E-002	-1.34509E-003	1.03306E-004	-1.17840E-002	-1.04932E-002	5.24859E-004	7.35006E-004	-1.36838E-002	8.49702E-004
	136	136	4.99581E-002	-1.91197E-002	0.00000E+000	-9.55187E-004	-1.88850E-001	4.15473E-002	3.41727E+001	11	...........	6.93193E-002	-5.38097E-003	6.08215E-001	5.41595E-001	-2.71067E-002	-3.79469E-002	7.06304E-001	-4.38262E-002	-1.32537E-003	1.02883E-004	-1.16289E-002	-1.03552E-002	5.18273E-004	7.25536E-004	-1.35044E-002	8.37947E-004
	137	137	4.99582E-002	-1.88522E-002	0.00000E+000	-9.41822E-004	-1.86189E-001	4.15342E-002	3.44102E+001	11	...........	6.92931E-002	-5.27514E-003	6.08222E-001	5.41561E-001	-2.70651E-002	-3.79256E-002	7.06374E-001	-4.37283E-002	-1.30633E-003	9.94480E-005	-1.14663E-002	-1.02096E-002	5.10238E-004	7.14980E-004	-1.33167E-002	8.24376E-004
	138	138	4.99572E-002	-1.86536E-002	0.00000E+000	-9.31883E-004	-1.84211E-001	4.15756E-002	3.44690E+001	11	...........	6.93880E-002	-5.29444E-003	6.08134E-001	5.41462E-001	-2.70392E-002	-3.79274E-002	7.06305E-001	-4.37814E-002	-1.29434E-003	9.87605E-005	-1.13439E-002	-1.01002E-002	5.04378E-004	7.07482E-004	-1.31751E-002	8.16681E-004
	139	139	4.99569E-002	-1.84464E-002	0.00000E+000	-9.21525E-004	-1.82144E-001	4.15835E-002	3.45475E+001	11	...........	6.93789E-002	-5.29417E-003	6.08041E-001	5.41345E-001	-2.70336E-002	-3.79390E-002	7.06307E-001	-4.38260E-002	-1.27979E-003	9.76584E-005	-1.12162E-002	-9.98588E-003	4.98673E-004	6.99839E-004	-1.30288E-002	8.08432E-004
	140	140	4.99568E-002	-1.81990E-002	0.00000E+000	-9.09163E-004	-1.79693E-001	4.16129E-002	3.45116E+001	11	...........	6.94318E-002	-5.29681E-003	6.07956E-001	5.41391E-001	-2.70439E-002	-3.79478E-002	7.06361E-001	-4.37717E-002	-1.26359E-003	9.63964E-005	-1.10642E-002	-9.85276E-003	4.92171E-004	6.90610E-004	-1.28550E-002	7.96599E-004
	141	141	4.99485E-002	-1.76836E-002	0.00000E+000	-8.83270E-004	-1.74572E-001	4.15423E-002	3.25902E+001	11	...........	6.93087E-002	-5.29694E-003	6.07977E-001	5.41475E-001	-2.70533E-002	-3.79660E-002	7.06282E-001	-4.38944E-002	-1.22563E-003	9.36691E-005	-1.07512E-002	-9.57524E-003	4.78401E-004	6.71376E-004	-1.24896E-002	7.76213E-004
	142	142	4.99643E-002	-1.74006E-002	0.00000E+000	-8.69407E-004	-1.71747E-001	4.16297E-002	3.42009E+001	11	...........	6.94576E-002	-5.33375E-003	6.07975E-001	5.41558E-001	-2.70790E-002	-3.79653E-002	7.06321E-001	-4.38447E-002	-1.20860E-003	9.28103E-005	-1.05791E-002	-9.42342E-003	4.71190E-004	6.60617E-004	-1.22904E-002	7.62923E-004
	143	143	4.99594E-002	-1.74805E-002	0.00000E+000	-8.73314E-004	-1.72543E-001	4.16112E-002	3.45134E+001	11	...........	6.94210E-002	-5.34569E-003	6.08060E-001	5.41740E-001	-2.70661E-002	-3.79769E-002	7.06292E-001	-4.39318E-002	-1.21351E-003	9.34452E-005	-1.06292E-002	-9.46986E-003	4.73128E-004	6.63854E-004	-1.23463E-002	7.67948E-004
	144	144	4.99517E-002	-1.71533E-002	0.00000E+000	-8.56836E-004	-1.69284E-001	4.15563E-002	3.38998E+001	11	...........	6.93414E-002	-5.41319E-003	6.07984E-001	5.41806E-001	-2.70519E-002	-3.79921E-002	7.06375E-001	-4.38326E-002	-1.18943E-003	9.28541E-005	-1.04289E-002	-9.29375E-003	4.64030E-004	6.51689E-004	-1.21167E-002	7.51874E-004
	145	145	4.99613E-002	-1.70172E-002	0.00000E+000	-8.50201E-004	-1.67926E-001	4.16887E-002	3.46006E+001	11	...........	6.95536E-002	-5.43264E-003	6.07970E-001	5.41972E-001	-2.70861E-002	-3.80200E-002	7.06344E-001	-4.37364E-002	-1.18361E-003	9.24483E-005	-1.03459E-002	-9.22284E-003	4.60930E-004	6.46994E-004	-1.20200E-002	7.44271E-004
	146	146	4.99587E-002	-1.67880E-002	0.00000E+000	-8.38708E-004	-1.65657E-001	4.16016E-002	3.45788E+001	11	...........	6.94137E-002	-5.40833E-003	6.07936E-001	5.42001E-001	-2.70996E-002	-3.80246E-002	7.06205E-001	-4.36614E-002	-1.16532E-003	9.07953E-005	-1.02060E-002	-9.09913E-003	4.54949E-004	6.38358E-004	-1.18558E-002	7.32989E-004
	147	147	4.99568E-002	-1.66121E-002	0.00000E+000	-8.29890E-004	-1.63912E-001	4.15897E-002	3.44177E+001	11	...........	6.93935E-002	-5.34722E-003	6.07911E-001	5.41973E-001	-2.71129E-002	-3.80375E-002	7.06341E-001	-4.37635E-002	-1.15277E-003	8.88288E-005	-1.00987E-002	-9.00334E-003	4.50404E-004	6.31885E-004	-1.17338E-002	7.27005E-004
	148	148	4.99544E-002	-1.64003E-002	0.00000E+000	-8.19264E-004	-1.61804E-001	4.16112E-002	3.41480E+001	11	...........	6.94357E-002	-5.38292E-003	6.07925E-001	5.41983E-001	-2.70818E-002	-3.80258E-002	7.06392E-001	-4.39074E-002	-1.13876E-003	8.82812E-005	-9.97012E-003	-8.88867E-003	4.44148E-004	6.23633E-004	-1.15850E-002	7.20092E-004
	149	149	4.99618E-002	-1.62775E-002	0.00000E+000	-8.13251E-004	-1.60580E-001	4.17237E-002	3.46928E+001	11	...........	6.96197E-002	-5.25736E-003	6.07829E-001	5.41910E-001	-2.70907E-002	-3.80483E-002	7.06407E-001	-4.38287E-002	-1.13323E-003	8.55766E-005	-9.89392E-003	-8.82093E-003	4.40968E-004	6.19331E-004	-1.14985E-002	7.13421E-004
	150	150	4.99575E-002	-1.60781E-002	0.00000E+000	-8.03222E-004	-1.58595E-001	4.16389E-002	3.49242E+001	11	...........	6.94840E-002	-5.23236E-003	6.08007E-001	5.42038E-001	-2.70694E-002	-3.80462E-002	7.06413E-001	-4.37736E-002	-1.11717E-003	8.41264E-005	-9.77559E-003	-8.71493E-003	4.35225E-004	6.11711E-004	-1.13578E-002	7.03796E-004
	151	151	4.99562E-002	-1.57936E-002	0.00000E+000	-7.88988E-004	-1.55764E-001	4.16860E-002	3.41235E+001	11	...........	6.95518E-002	-5.32375E-003	6.08021E-001	5.42091E-001	-2.70503E-002	-3.80625E-002	7.06460E-001	-4.38178E-002	-1.09847E-003	8.40812E-005	-9.60285E-003	-8.56157E-003	4.27221E-004	6.01144E-004	-1.11575E-002	6.92040E-004
	152	152	4.99556E-002	-1.53755E-002	0.00000E+000	-7.68095E-004	-1.51609E-001	4.14906E-002	3.37659E+001	11	...........	6.92382E-002	-5.30181E-003	6.07808E-001	5.42067E-001	-2.70133E-002	-3.80415E-002	7.06409E-001	-4.38164E-002	-1.06457E-003	8.15181E-005	-9.34538E-003	-8.33458E-003	4.15345E-004	5.84909E-004	-1.08614E-002	6.73701E-004
	153	153	4.99601E-002	-1.54622E-002	0.00000E+000	-7.72491E-004	-1.52480E-001	4.18125E-002	3.48435E+001	11	...........	6.97587E-002	-5.32597E-003	6.07925E-001	5.42103E-001	-2.70189E-002	-3.80187E-002	7.06564E-001	-4.37461E-002	-1.07862E-003	8.23510E-005	-9.39984E-003	-8.38208E-003	4.17770E-004	5.87852E-004	-1.09250E-002	6.76409E-004
	154	154	4.99577E-002	-1.52789E-002	0.00000E+000	-7.63300E-004	-1.50649E-001	4.17033E-002	3.46923E+001	11	...........	6.95864E-002	-5.28944E-003	6.07990E-001	5.42064E-001	-2.70306E-002	-3.79799E-002	7.06619E-001	-4.37599E-002	-1.06320E-003	8.08170E-005	-9.28943E-003	-8.28215E-003	4.12998E-004	5.80291E-004	-1.07964E-002	6.68603E-004
	155	155	4.99582E-002	-1.51243E-002	0.00000E+000	-7.55581E-004	-1.49109E-001	4.17692E-002	3.48859E+001	11	...........	6.96905E-002	-5.30208E-003	6.07837E-001	5.42048E-001	-2.70072E-002	-3.79632E-002	7.06538E-001	-4.38107E-002	-1.05402E-003	8.01901E-005	-9.19308E-003	-8.19808E-003	4.08464E-004	5.74165E-004	-1.06859E-002	6.62604E-004
	156	156	4.99569E-002	-1.49167E-002	0.00000E+000	-7.45194E-004	-1.47042E-001	4.17475E-002	3.49332E+001	11	...........	6.96542E-002	-5.24653E-003	6.07610E-001	5.42061E-001	-2.70011E-002	-3.79869E-002	7.06443E-001	-4.39004E-002	-1.03901E-003	7.82611E-005	-9.06356E-003	-8.08579E-003	4.02769E-004	5.66641E-004	-1.05378E-002	6.54851E-004
	157	157	4.99577E-002	-1.46613E-002	0.00000E+000	-7.32446E-004	-1.44497E-001	4.18012E-002	3.36384E+001	11	...........	6.97376E-002	-5.24028E-003	6.07648E-001	5.42137E-001	-2.69999E-002	-3.80125E-002	7.06455E-001	-4.39175E-002	-1.02245E-003	7.68294E-005	-8.90893E-003	-7.94844E-003	3.95853E-004	5.57313E-004	-1.03576E-002	6.43888E-004
	158	158	4.99565E-002	-1.41927E-002	0.00000E+000	-7.09016E-004	-1.39833E-001	4.15990E-002	3.40265E+001	11	...........	6.93981E-002	-5.21542E-003	6.07731E-001	5.42253E-001	-2.70131E-002	-3.80406E-002	7.06501E-001	-4.38974E-002	-9.84943E-004	7.40206E-005	-8.62532E-003	-7.69601E-003	3.83387E-004	5.39897E-004	-1.00271E-002	6.23020E-004
	159	159	4.99595E-002	-1.43518E-002	0.00000E+000	-7.17009E-004	-1.41408E-001	4.18627E-002	3.50320E+001	11	...........	6.98644E-002	-5.30542E-003	6.07814E-001	5.42196E-001	-2.70229E-002	-3.80574E-002	7.06510E-001	-4.38821E-002	-1.00268E-003	7.61423E-005	-8.72322E-003	-7.78149E-003	3.87827E-004	5.46191E-004	-1.01397E-002	6.29787E-004
	160	160	4.99580E-002	-1.41734E-002	0.00000E+000	-7.08074E-004	-1.39650E-001	4.17763E-002	3.40710E+001	11	...........	6.97049E-002	-5.39333E-003	6.07728E-001	5.42213E-001	-2.70468E-002	-3.80750E-002	7.06537E-001	-4.38311E-002	-9.87955E-004	7.64419E-005	-8.61358E-003	-7.68500E-003	3.83345E-004	5.39652E-004	-1.00140E-002	6.21236E-004
	161	161	4.99564E-002	-1.38596E-002	0.00000E+000	-6.92377E-004	-1.36534E-001	4.17573E-002	3.48279E+001	11	...........	6.96894E-002	-5.29347E-003	6.07532E-001	5.42153E-001	-2.70408E-002	-3.80586E-002	7.06554E-001	-4.37293E-002	-9.65869E-004	7.33655E-005	-8.42016E-003	-7.51404E-003	3.74776E-004	5.27478E-004	-9.79256E-003	6.06072E-004
	162	162	4.99565E-002	-1.37513E-002	0.00000E+000	-6.86966E-004	-1.35455E-001	4.17729E-002	3.43541E+001	11	...........	6.96837E-002	-5.39528E-003	6.07571E-001	5.42050E-001	-2.70207E-002	-3.80581E-002	7.06422E-001	-4.38199E-002	-9.58240E-004	7.41919E-005	-8.35488E-003	-7.45388E-003	3.71569E-004	5.23347E-004	-9.71421E-003	6.02579E-004
	163	163	4.99618E-002	-1.36794E-002	0.00000E+000	-6.83445E-004	-1.34740E-001	4.17935E-002	3.45942E+001	11	...........	6.97349E-002	-5.36111E-003	6.07579E-001	5.42031E-001	-2.70182E-002	-3.80371E-002	7.06289E-001	-4.38228E-002	-9.53928E-004	7.33366E-005	-8.31129E-003	-7.41463E-003	3.69592E-004	5.20323E-004	-9.66159E-003	5.99468E-004
	164	164	4.99566E-002	-1.35499E-002	0.00000E+000	-6.76905E-004	-1.33449E-001	4.17743E-002	3.48313E+001	11	...........	6.97011E-002	-5.28319E-003	6.07531E-001	5.42119E-001	-2.70071E-002	-3.80211E-002	7.06345E-001	-4.38672E-002	-9.44440E-004	7.15866E-005	-8.23196E-003	-7.34564E-003	3.65942E-004	5.15181E-004	-9.57088E-003	5.94395E-004
	165	165	4.99579E-002	-1.33934E-002	0.00000E+000	-6.69105E-004	-1.31889E-001	4.18558E-002	3.47255E+001	11	...........	6.98499E-002	-5.30361E-003	6.07463E-001	5.42139E-001	-2.70125E-002	-3.80099E-002	7.06304E-001	-4.39311E-002	-9.35524E-004	7.10332E-005	-8.13597E-003	-7.26107E-003	3.61788E-004	5.09080E-004	-9.45979E-003	5.88385E-004
	166	166	4.99567E-002	-1.30373E-002	0.00000E+000	-6.51299E-004	-1.28355E-001	4.17224E-002	3.43667E+001	11	...........	6.96142E-002	-5.33708E-003	6.07428E-001	5.42093E-001	-2.70262E-002	-3.79937E-002	7.06255E-001	-4.39324E-002	-9.07578E-004	6.95809E-005	-7.91920E-003	-7.06740E-003	3.52348E-004	4.95334E-004	-9.20764E-003	5.72758E-004
	167	167	4.99580E-002	-1.29166E-002	0.00000E+000	-6.45287E-004	-1.27165E-001	4.18206E-002	3.42429E+001	11	...........	6.97804E-002	-5.34181E-003	6.07508E-001	5.41930E-001	-2.70457E-002	-3.80362E-002	7.06290E-001	-4.38281E-002	-9.01324E-004	6.89979E-005	-7.84692E-003	-6.99988E-003	3.49338E-004	4.91298E-004	-9.12285E-003	5.66109E-004
	168	168	4.99593E-002	-1.28314E-002	0.00000E+000	-6.41051E-004	-1.26318E-001	4.18182E-002	3.47980E+001	11	...........	6.97785E-002	-5.28194E-003	6.07614E-001	5.41839E-001	-2.70501E-002	-3.80468E-002	7.06287E-001	-4.37925E-002	-8.95359E-004	6.77750E-005	-7.79657E-003	-6.95258E-003	3.47092E-004	4.88196E-004	-9.06269E-003	5.61921E-004
	169	169	4.99584E-002	-1.27576E-002	0.00000E+000	-6.37347E-004	-1.25584E-001	4.18663E-002	3.50629E+001	11	...........	6.98601E-002	-5.20250E-003	6.07656E-001	5.41908E-001	-2.70592E-002	-3.80551E-002	7.06293E-001	-4.37779E-002	-8.91245E-004	6.63712E-005	-7.75221E-003	-6.91343E-003	3.45209E-004	4.85491E-004	-9.01057E-003	5.58499E-004
	170	170	4.99577E-002	-1.25941E-002	0.00000E+000	-6.29170E-004	-1.23952E-001	4.18177E-002	3.51057E+001	11	...........	6.97724E-002	-5.16736E-003	6.07558E-001	5.41801E-001	-2.70735E-002	-3.80574E-002	7.06360E-001	-4.37449E-002	-8.78717E-004	6.50780E-005	-7.65162E-003	-6.82348E-003	3.40965E-004	4.79296E-004	-8.89593E-003	5.50925E-004
	171	171	4.99577E-002	-1.23871E-002	0.00000E+000	-6.18832E-004	-1.21888E-001	4.18264E-002	3.44398E+001	11	...........	6.98042E-002	-5.16486E-003	6.07377E-001	5.41753E-001	-2.70946E-002	-3.80490E-002	7.06483E-001	-4.37315E-002	-8.64673E-004	6.39778E-005	-7.52366E-003	-6.71076E-003	3.35624E-004	4.71318E-004	-8.75129E-003	5.41708E-004
	172	172	4.99568E-002	-1.20982E-002	0.00000E+000	-6.04388E-004	-1.19012E-001	4.17101E-002	3.39691E+001	11	...........	6.95800E-002	-5.17250E-003	6.07387E-001	5.41837E-001	-2.71133E-002	-3.80328E-002	7.06611E-001	-4.38549E-002	-8.41794E-004	6.25780E-005	-7.34831E-003	-6.55527E-003	3.28023E-004	4.60129E-004	-8.54873E-003	5.30566E-004
	173	173	4.99611E-002	-1.20853E-002	0.00000E+000	-6.03796E-004	-1.18884E-001	4.19129E-002	3.50064E+001	11	...........	6.99310E-002	-5.34181E-003	6.07465E-001	5.42001E-001	-2.71040E-002	-3.80397E-002	7.06575E-001	-4.38935E-002	-8.45139E-004	6.45575E-005	-7.34141E-003	-6.55026E-003	3.27561E-004	4.59722E-004	-8.53919E-003	5.30467E-004
	174	174	4.99577E-002	-1.20066E-002	0.00000E+000	-5.99821E-004	-1.18096E-001	4.18762E-002	3.52152E+001	11	...........	6.98804E-002	-5.32778E-003	6.07346E-001	5.42141E-001	-2.71093E-002	-3.80554E-002	7.06489E-001	-4.38306E-002	-8.39023E-004	6.39683E-005	-7.29213E-003	-6.50925E-003	3.25489E-004	4.56915E-004	-8.48250E-003	5.26254E-004
	175	175	4.99575E-002	-1.18719E-002	0.00000E+000	-5.93092E-004	-1.16755E-001	4.18841E-002	3.44662E+001	11	...........	6.99068E-002	-5.20306E-003	6.07316E-001	5.42144E-001	-2.70879E-002	-3.80472E-002	7.06379E-001	-4.38286E-002	-8.29929E-004	6.17703E-005	-7.21002E-003	-6.43630E-003	3.21586E-004	4.51694E-004	-8.38608E-003	5.20330E-004
	176	176	4.99581E-002	-1.15279E-002	0.00000E+000	-5.75912E-004	-1.13342E-001	4.16924E-002	3.43693E+001	11	...........	6.95721E-002	-5.20694E-003	6.07339E-001	5.42178E-001	-2.70771E-002	-3.80349E-002	7.06389E-001	-4.38487E-002	-8.02021E-004	6.00252E-005	-7.00134E-003	-6.25018E-003	3.12142E-004	4.38462E-004	-8.14319E-003	5.05484E-004
	177	177	4.99578E-002	-1.15308E-002	0.00000E+000	-5.76052E-004	-1.13377E-001	4.20203E-002	3.52618E+001	11	...........	7.01215E-002	-5.19569E-003	6.07204E-001	5.42338E-001	-2.70660E-002	-3.80243E-002	7.06391E-001	-4.39012E-002	-8.08557E-004	5.99105E-005	-7.00155E-003	-6.25359E-003	3.12092E-004	4.38450E-004	-8.14524E-003	5.06216E-004
	178	178	4.99576E-002	-1.13332E-002	0.00000E+000	-5.66179E-004	-1.11411E-001	4.18024E-002	3.46554E+001	11	...........	6.97569E-002	-5.27389E-003	6.07407E-001	5.42281E-001	-2.70619E-002	-3.80433E-002	7.06345E-001	-4.39808E-002	-7.90569E-004	5.97700E-005	-6.88386E-003	-6.14578E-003	3.06698E-004	4.31153E-004	-8.00515E-003	4.98443E-004
	179	179	4.99567E-002	-1.12134E-002	0.00000E+000	-5.60186E-004	-1.10217E-001	4.18408E-002	3.45554E+001	11	...........	6.98054E-002	-5.37986E-003	6.07324E-001	5.42401E-001	-2.70774E-002	-3.80414E-002	7.06365E-001	-4.38967E-002	-7.82759E-004	6.03268E-005	-6.81019E-003	-6.08218E-003	3.03630E-004	4.26575E-004	-7.92079E-003	4.92233E-004
	180	180	4.99619E-002	-1.11420E-002	0.00000E+000	-5.56674E-004	-1.09507E-001	4.19177E-002	3.52395E+001	11	...........	6.99329E-002	-5.30931E-003	6.07354E-001	5.42443E-001	-2.70631E-002	-3.80475E-002	7.06305E-001	-4.38954E-002	-7.79191E-004	5.91561E-005	-6.76712E-003	-6.04389E-003	3.01536E-004	4.23924E-004	-7.86963E-003	4.89081E-004
	181	181	4.99585E-002	-1.10603E-002	0.00000E+000	-5.52555E-004	-1.08687E-001	4.19086E-002	3.50612E+001	11	...........	6.99331E-002	-5.34306E-003	6.07408E-001	5.42200E-001	-2.70540E-002	-3.80131E-002	7.06244E-001	-4.38747E-002	-7.73479E-004	5.90957E-005	-6.71810E-003	-5.99689E-003	2.99225E-004	4.20435E-004	-7.81126E-003	4.85267E-004
	182	182	4.99574E-002	-1.09321E-002	0.00000E+000	-5.46137E-004	-1.07417E-001	4.19076E-002	3.52063E+001	11	...........	6.99415E-002	-5.35153E-003	6.07397E-001	5.42160E-001	-2.70506E-002	-3.80003E-002	7.06296E-001	-4.38149E-002	-7.64605E-004	5.85033E-005	-6.64010E-003	-5.92693E-003	2.95718E-004	4.15421E-004	-7.72128E-003	4.78987E-004
	183	183	4.99542E-002	-1.06985E-002	0.00000E+000	-5.34436E-004	-1.05094E-001	4.19331E-002	3.42943E+001	11	...........	6.99738E-002	-5.29389E-003	6.07408E-001	5.42037E-001	-2.70522E-002	-3.80003E-002	7.06149E-001	-4.37536E-002	-7.48616E-004	5.66368E-005	-6.49836E-003	-5.79900E-003	2.89419E-004	4.06547E-004	-7.55475E-003	4.68099E-004
	184	184	4.99591E-002	-1.04803E-002	0.00000E+000	-5.23585E-004	-1.02935E-001	4.18495E-002	3.39641E+001	11	...........	6.98162E-002	-5.35264E-003	6.07383E-001	5.42158E-001	-2.70354E-002	-3.80074E-002	7.06109E-001	-4.38349E-002	-7.31693E-004	5.60971E-005	-6.36554E-003	-5.68196E-003	2.83338E-004	3.98327E-004	-7.40021E-003	4.59401E-004
	185	185	4.99629E-002	-1.04716E-002	0.00000E+000	-5.23191E-004	-1.02840E-001	4.19556E-002	3.50896E+001	11	...........	7.00092E-002	-5.34986E-003	6.07263E-001	5.42106E-001	-2.70139E-002	-3.80137E-002	7.06215E-001	-4.38251E-002	-7.33107E-004	5.60215E-005	-6.35901E-003	-5.67671E-003	2.82878E-004	3.98064E-004	-7.39519E-003	4.58919E-004
	186	186	4.99576E-002	-1.04064E-002	0.00000E+000	-5.19879E-004	-1.02215E-001	4.19624E-002	3.53812E+001	11	...........	7.00076E-002	-5.33972E-003	6.07258E-001	5.42025E-001	-2.70424E-002	-3.80464E-002	7.06232E-001	-4.38032E-002	-7.28528E-004	5.55673E-005	-6.31938E-003	-5.64053E-003	2.81414E-004	3.95926E-004	-7.34934E-003	4.55834E-004
	187	187	4.99594E-002	-1.02675E-002	0.00000E+000	-5.12957E-004	-1.00847E-001	4.19357E-002	3.50870E+001	11	...........	6.99904E-002	-5.29069E-003	6.07298E-001	5.42022E-001	-2.70868E-002	-3.80399E-002	7.06247E-001	-4.37007E-002	-7.18626E-004	5.43221E-005	-6.23543E-003	-5.56521E-003	2.78113E-004	3.90574E-004	-7.25138E-003	4.48696E-004
	188	188	4.99585E-002	-1.01400E-002	0.00000E+000	-5.06579E-004	-9.95727E-002	4.19353E-002	3.51409E+001	11	...........	6.99817E-002	-5.24194E-003	6.07325E-001	5.41980E-001	-2.70922E-002	-3.80236E-002	7.06286E-001	-4.36937E-002	-7.09613E-004	5.31532E-005	-6.15827E-003	-5.49567E-003	2.74715E-004	3.85559E-004	-7.16173E-003	4.43054E-004
	189	189	4.99577E-002	-1.00298E-002	0.00000E+000	-5.01066E-004	-9.84767E-002	4.19758E-002	3.52831E+001	11	...........	7.00556E-002	-5.34042E-003	6.07263E-001	5.42086E-001	-2.70867E-002	-3.80197E-002	7.06329E-001	-4.37124E-002	-7.02644E-004	5.35633E-005	-6.09073E-003	-5.43701E-003	2.71674E-004	3.81330E-004	-7.08434E-003	4.38426E-004
	190	190	4.99584E-002	-9.81454E-003	0.00000E+000	-4.90319E-004	-9.63333E-002	4.18461E-002	3.39643E+001	11	...........	6.98108E-002	-5.32944E-003	6.07152E-001	5.42147E-001	-2.70706E-002	-3.80165E-002	7.06372E-001	-4.38492E-002	-6.85161E-004	5.23060E-005	-5.95892E-003	-5.32092E-003	2.65685E-004	3.73115E-004	-6.93271E-003	4.30359E-004
	191	191	4.99598E-002	-9.70866E-003	0.00000E+000	-4.85043E-004	-9.52790E-002	4.19320E-002	3.48903E+001	11	...........	6.99685E-002	-5.21750E-003	6.07249E-001	5.42116E-001	-2.70483E-002	-3.79975E-002	7.06392E-001	-4.38208E-002	-6.79300E-004	5.06549E-005	-5.89558E-003	-5.26323E-003	2.62603E-004	3.68905E-004	-6.85813E-003	4.25442E-004
	192	192	4.99582E-002	-9.71172E-003	0.00000E+000	-4.85180E-004	-9.53083E-002	4.20457E-002	3.55613E+001	11	...........	7.01571E-002	-5.24917E-003	6.07276E-001	5.41953E-001	-2.70437E-002	-3.80174E-002	7.06304E-001	-4.38726E-002	-6.81346E-004	5.09784E-005	-5.89770E-003	-5.26329E-003	2.62641E-004	3.69214E-004	-6.85943E-003	4.26079E-004
	193	193	4.99585E-002	-9.61652E-003	0.00000E+000	-4.80427E-004	-9.43653E-002	4.19778E-002	3.55991E+001	11	...........	7.00451E-002	-5.36861E-003	6.07188E-001	5.42044E-001	-2.70496E-002	-3.80285E-002	7.06396E-001	-4.38667E-002	-6.73590E-004	5.16273E-005	-5.83904E-003	-5.21257E-003	2.60123E-004	3.65701E-004	-6.79307E-003	4.21845E-004
	194	194	4.99580E-002	-9.47970E-003	0.00000E+000	-4.73587E-004	-9.29987E-002	4.19923E-002	3.50437E+001	11	...........	7.00619E-002	-5.35861E-003	6.07247E-001	5.41832E-001	-2.70681E-002	-3.79931E-002	7.06452E-001	-4.39376E-002	-6.64166E-004	5.07980E-005	-5.75652E-003	-5.13641E-003	2.56597E-004	3.60163E-004	-6.69695E-003	4.16516E-004
	195	195	4.99555E-002	-9.26653E-003	0.00000E+000	-4.62914E-004	-9.08777E-002	4.19301E-002	3.46222E+001	11	...........	6.99687E-002	-5.36542E-003	6.07277E-001	5.41564E-001	-2.70621E-002	-3.79844E-002	7.06408E-001	-4.40936E-002	-6.48367E-004	4.97188E-005	-5.62735E-003	-5.01841E-003	2.50772E-004	3.51984E-004	-6.54595E-003	4.08595E-004
	196	196	4.99616E-002	-9.14837E-003	0.00000E+000	-4.57067E-004	-8.96967E-002	4.19786E-002	3.45753E+001	11	...........	7.00382E-002	-5.33903E-003	6.07264E-001	5.41369E-001	-2.70383E-002	-3.79460E-002	7.06358E-001	-4.39835E-002	-6.40735E-004	4.88434E-005	-5.55547E-003	-4.95264E-003	2.47357E-004	3.47144E-004	-6.46202E-003	4.02377E-004
	197	197	4.99587E-002	-9.12154E-003	0.00000E+000	-4.55700E-004	-8.94250E-002	4.19646E-002	3.49412E+001	11	...........	7.00093E-002	-5.29667E-003	6.07342E-001	5.41209E-001	-2.70522E-002	-3.79371E-002	7.06439E-001	-4.38844E-002	-6.38592E-004	4.83137E-005	-5.53989E-003	-4.93666E-003	2.46758E-004	3.46044E-004	-6.44381E-003	4.00294E-004
	198	198	4.99588E-002	-9.02075E-003	0.00000E+000	-4.50666E-004	-8.84423E-002	4.20007E-002	3.49327E+001	11	...........	7.00832E-002	-5.33583E-003	6.07299E-001	5.41208E-001	-2.70479E-002	-3.79404E-002	7.06432E-001	-4.38832E-002	-6.32203E-004	4.81332E-005	-5.47829E-003	-4.88210E-003	2.43992E-004	3.42251E-004	-6.37254E-003	3.95859E-004
	199	199	4.99592E-002	-8.87392E-003	0.00000E+000	-4.43334E-004	-8.69873E-002	4.19657E-002	3.52542E+001	11	...........	7.00182E-002	-5.30403E-003	6.07259E-001	5.41313E-001	-2.70403E-002	-3.79776E-002	7.06306E-001	-4.38596E-002	-6.21336E-004	4.70675E-005	-5.38876E-003	-4.80356E-003	2.39953E-004	3.37010E-004	-6.26770E-003	3.89206E-004
	200	200	4.99595E-002	-8.82890E-003	0.00000E+000	-4.41087E-004	-8.65373E-002	4.20539E-002	3.56284E+001	11	...........	7.01742E-002	-5.29944E-003	6.07365E-001	5.41150E-001	-2.70299E-002	-3.79592E-002	7.06321E-001	-4.38919E-002	-6.19561E-004	4.67883E-005	-5.36237E-003	-4.77776E-003	2.38644E-004	3.35138E-004	-6.23604E-003	3.87518E-004
	201	201	4.99588E-002	-8.75483E-003	0.00000E+000	-4.37381E-004	-8.58007E-002	4.19751E-002	3.56136E+001	11	...........	7.00406E-002	-5.38875E-003	6.07382E-001	5.41156E-001	-2.70222E-002	-3.79524E-002	7.06303E-001	-4.39536E-002	-6.13193E-004	4.71776E-005	-5.31753E-003	-4.73773E-003	2.36575E-004	3.32267E-004	-6.18356E-003	3.84806E-004
	202	202	4.99564E-002	-8.64189E-003	0.00000E+000	-4.31718E-004	-8.46750E-002	4.20334E-002	3.44655E+001	11	...........	7.01400E-002	-5.34806E-003	6.07265E-001	5.41174E-001	-2.70364E-002	-3.79640E-002	7.06250E-001	-4.38239E-002	-6.06142E-004	4.62173E-005	-5.24792E-003	-4.67677E-003	2.33645E-004	3.28081E-004	-6.10334E-003	3.78721E-004
	203	203	4.99592E-002	-8.40872E-003	0.00000E+000	-4.20093E-004	-8.23507E-002	4.17155E-002	3.46406E+001	11	...........	7.00428E-002	-5.20347E-003	6.07209E-001	5.41186E-001	-2.70037E-002	-3.79561E-002	7.06360E-001	-4.38493E-002	-5.88970E-004	4.37546E-005	-5.10585E-003	-4.55068E-003	2.27067E-004	3.19162E-004	-5.93959E-003	3.68717E-004
	204	204	4.99598E-002	-8.37315E-003	0.00000E+000	-4.18321E-004	-8.19987E-002	4.19443E-002	3.52116E+001	11	...........	6.99925E-002	-5.24347E-003	6.07059E-001	5.41282E-001	-2.70061E-002	-3.79415E-002	7.06501E-001	-4.38262E-002	-5.86058E-004	4.39044E-005	-5.08300E-003	-4.53223E-003	2.26126E-004	3.17690E-004	-5.91564E-003	3.66964E-004
	205	205	4.99595E-002	-8.34666E-003	0.00000E+000	-4.16995E-004	-8.17347E-002	4.20160E-002	3.55584E+001	11	...........	7.01011E-002	-5.21917E-003	6.06975E-001	5.41259E-001	-2.70050E-002	-3.79610E-002	7.06395E-001	-4.38121E-002	-5.85110E-004	4.35626E-005	-5.06621E-003	-4.51770E-003	2.25401E-004	3.16847E-004	-5.89604E-003	3.65684E-004
	206	206	4.99582E-002	-8.26156E-003	0.00000E+000	-4.12733E-004	-8.08870E-002	4.20434E-002	3.52218E+001	11	...........	7.01656E-002	-5.18194E-003	6.06838E-001	5.41539E-001	-2.70028E-002	-3.79710E-002	7.06389E-001	-4.38786E-002	-5.79677E-004	4.28110E-005	-5.01343E-003	-4.47396E-003	2.23085E-004	3.13700E-004	-5.83587E-003	3.62506E-004
	207	207	4.99583E-002	-8.08765E-003	0.00000E+000	-4.04045E-004	-7.91570E-002	4.19221E-002	3.48376E+001	11	...........	6.99561E-002	-5.29875E-003	6.06915E-001	5.41681E-001	-2.69796E-002	-3.79687E-002	7.06367E-001	-4.38140E-002	-5.65780E-004	4.28544E-005	-4.90852E-003	-4.38093E-003	2.18201E-004	3.07078E-004	-5.71285E-003	3.54352E-004
	208	208	4.99595E-002	-8.06168E-003	0.00000E+000	-4.02757E-004	-7.88967E-002	4.21605E-002	3.56430E+001	11	...........	7.03437E-002	-5.36611E-003	6.06874E-001	5.41722E-001	-2.69756E-002	-3.79718E-002	7.06348E-001	-4.39488E-002	-5.67089E-004	4.32599E-005	-4.89242E-003	-4.36719E-003	2.17468E-004	3.06117E-004	-5.69435E-003	3.54301E-004
	209	209	4.99591E-002	-7.93856E-003	0.00000E+000	-3.96604E-004	-7.76707E-002	4.20663E-002	3.48858E+001	11	...........	7.01724E-002	-5.33014E-003	6.06709E-001	5.41751E-001	-2.69815E-002	-3.79431E-002	7.06429E-001	-4.38835E-002	-5.57068E-004	4.23136E-005	-4.81640E-003	-4.30073E-003	2.14195E-004	3.01213E-004	-5.60803E-003	3.48372E-004
	210	210	4.99587E-002	-7.79543E-003	0.00000E+000	-3.89450E-004	-7.62673E-002	4.18808E-002	3.45802E+001	11	...........	6.98789E-002	-5.32819E-003	6.06667E-001	5.41702E-001	-2.69712E-002	-3.79272E-002	7.06448E-001	-4.37551E-002	-5.44736E-004	4.15356E-005	-4.72923E-003	-4.22280E-003	2.10253E-004	2.95659E-004	-5.50707E-003	3.41090E-004
	211	211	4.99595E-002	-7.74543E-003	0.00000E+000	-3.86958E-004	-7.57720E-002	4.20550E-002	3.49544E+001	11	...........	7.01699E-002	-5.29542E-003	6.06734E-001	5.41650E-001	-2.69714E-002	-3.79406E-002	7.06446E-001	-4.37360E-002	-5.43496E-004	4.10153E-005	-4.69941E-003	-4.19531E-003	2.08905E-004	2.93866E-004	-5.47173E-003	3.38754E-004
	212	212	4.99588E-002	-7.74606E-003	0.00000E+000	-3.86984E-004	-7.57823E-002	4.21882E-002	3.56040E+001	11	...........	7.04065E-002	-5.36514E-003	6.06832E-001	5.41631E-001	-2.69617E-002	-3.79022E-002	7.06520E-001	-4.37540E-002	-5.45373E-004	4.15587E-005	-4.70056E-003	-4.19550E-003	2.08847E-004	2.93593E-004	-5.47275E-003	3.38921E-004
	213	213	4.99583E-002	-7.62699E-003	0.00000E+000	-3.81032E-004	-7.45943E-002	4.20570E-002	3.56111E+001	11	...........	7.01653E-002	-5.29222E-003	6.06938E-001	5.41598E-001	-2.69696E-002	-3.79167E-002	7.06469E-001	-4.37101E-002	-5.35150E-004	4.03637E-005	-4.62911E-003	-4.13076E-003	2.05697E-004	2.89190E-004	-5.38823E-003	3.33377E-004
	214	214	4.99595E-002	-7.53752E-003	0.00000E+000	-3.76571E-004	-7.36980E-002	4.20549E-002	3.52078E+001	11	...........	7.01617E-002	-5.14736E-003	6.07116E-001	5.41492E-001	-2.69956E-002	-3.79040E-002	7.06333E-001	-4.37722E-002	-5.28845E-004	3.87983E-005	-4.57615E-003	-4.08151E-003	2.03479E-004	2.85702E-004	-5.32399E-003	3.29934E-004
	215	215	4.99587E-002	-7.44191E-003	0.00000E+000	-3.71788E-004	-7.27430E-002	4.21223E-002	3.54695E+001	11	...........	7.02656E-002	-5.17694E-003	6.07172E-001	5.41403E-001	-2.69882E-002	-3.79047E-002	7.06410E-001	-4.37821E-002	-5.22910E-004	3.85264E-005	-4.51852E-003	-4.02908E-003	2.00844E-004	2.82084E-004	-5.25704E-003	3.25823E-004
	216	216	4.99582E-002	-7.27539E-003	0.00000E+000	-3.63466E-004	-7.10823E-002	4.19448E-002	3.40754E+001	11	...........	6.99949E-002	-5.28083E-003	6.07143E-001	5.41401E-001	-2.70011E-002	-3.79000E-002	7.06502E-001	-4.37314E-002	-5.09240E-004	3.84201E-005	-4.41720E-003	-3.93890E-003	1.96443E-004	2.75737E-004	-5.14007E-003	3.18163E-004
	217	217	4.99596E-002	-7.23619E-003	0.00000E+000	-3.61517E-004	-7.06950E-002	4.20732E-002	3.50006E+001	11	...........	7.01860E-002	-5.29389E-003	6.07208E-001	5.41325E-001	-2.69876E-002	-3.78915E-002	7.06470E-001	-4.38346E-002	-5.07879E-004	3.83076E-005	-4.39387E-003	-3.91713E-003	1.95288E-004	2.74190E-004	-5.11215E-003	3.17195E-004
	218	218	4.99597E-002	-7.20841E-003	0.00000E+000	-3.60130E-004	-7.04150E-002	4.21837E-002	3.57402E+001	11	...........	7.03742E-002	-5.41347E-003	6.07238E-001	5.41374E-001	-2.69815E-002	-3.78868E-002	7.06437E-001	-4.37465E-002	-5.07286E-004	3.90225E-005	-4.37722E-003	-3.90244E-003	1.94494E-004	2.73103E-004	-5.09229E-003	3.15343E-004
	219	219	4.99576E-002	-7.13912E-003	0.00000E+000	-3.56654E-004	-6.97277E-002	4.20880E-002	3.50966E+001	11	...........	7.02200E-002	-5.41583E-003	6.07231E-001	5.41360E-001	-2.69806E-002	-3.78850E-002	7.06485E-001	-4.37712E-002	-5.01309E-004	3.86643E-005	-4.33510E-003	-3.86483E-003	1.92617E-004	2.70466E-004	-5.04368E-003	3.12488E-004
	220	220	4.99597E-002	-7.02783E-003	0.00000E+000	-3.51108E-004	-6.86233E-002	4.20379E-002	3.53717E+001	11	...........	7.01362E-002	-5.34778E-003	6.07219E-001	5.41483E-001	-2.69803E-002	-3.78968E-002	7.06428E-001	-4.37854E-002	-4.92905E-004	3.75832E-005	-4.26743E-003	-3.80545E-003	1.89613E-004	2.66332E-004	-4.96465E-003	3.07716E-004
	221	221	4.99600E-002	-6.98580E-003	0.00000E+000	-3.49011E-004	-6.82090E-002	4.21177E-002	3.56395E+001	11	...........	7.02640E-002	-5.27750E-003	6.07291E-001	5.41513E-001	-2.69847E-002	-3.78968E-002	7.06406E-001	-4.37014E-002	-4.90850E-004	3.68676E-005	-4.24241E-003	-3.78290E-003	1.88510E-004	2.64739E-004	-4.93481E-003	3.05289E-004
	222	222	4.99583E-002	-6.91115E-003	0.00000E+000	-3.45269E-004	-6.74520E-002	4.21251E-002	3.57051E+001	11	...........	7.02712E-002	-5.24403E-003	6.07359E-001	5.41676E-001	-2.69894E-002	-3.79129E-002	7.06321E-001	-4.38110E-002	-4.85655E-004	3.62422E-005	-4.19754E-003	-3.74360E-003	1.86528E-004	2.62022E-004	-4.88149E-003	3.02784E-004
	223	223	4.99576E-002	-6.81913E-003	0.00000E+000	-3.40667E-004	-6.65393E-002	4.20791E-002	3.43064E+001	11	...........	7.02086E-002	-5.23250E-003	6.07445E-001	5.41716E-001	-2.69556E-002	-3.79251E-002	7.06333E-001	-4.37787E-002	-4.78761E-004	3.56811E-005	-4.14225E-003	-3.69403E-003	1.83813E-004	2.58616E-004	-4.81658E-003	2.98533E-004
	224	224	4.99605E-002	-6.69432E-003	0.00000E+000	-3.34451E-004	-6.52960E-002	4.20780E-002	3.55257E+001	11	...........	7.02299E-002	-5.24056E-003	6.07502E-001	5.41697E-001	-2.69317E-002	-3.79429E-002	7.06351E-001	-4.37824E-002	-4.70141E-004	3.50819E-005	-4.06681E-003	-3.62629E-003	1.80289E-004	2.54002E-004	-4.72854E-003	2.93093E-004
	225	225	4.99586E-002	-6.67926E-003	0.00000E+000	-3.33686E-004	-6.51480E-002	4.20888E-002	3.56629E+001	11	...........	7.02297E-002	-5.26403E-003	6.07593E-001	5.41898E-001	-2.69275E-002	-3.79715E-002	7.06262E-001	-4.36986E-002	-4.69082E-004	3.51598E-005	-4.05827E-003	-3.61947E-003	1.79856E-004	2.53622E-004	-4.71730E-003	2.91874E-004
	226	226	4.99599E-002	-6.62610E-003	0.00000E+000	-3.31039E-004	-6.46130E-002	4.20714E-002	3.54137E+001	11	...........	7.01886E-002	-5.28014E-003	6.07545E-001	5.41907E-001	-2.69407E-002	-3.79892E-002	7.06360E-001	-4.37356E-002	-4.65077E-004	3.49867E-005	-4.02566E-003	-3.59073E-003	1.78512E-004	2.51720E-004	-4.68041E-003	2.89796E-004
	227	227	4.99589E-002	-6.55880E-003	0.00000E+000	-3.27671E-004	-6.39363E-002	4.21093E-002	3.57149E+001	11	...........	7.02604E-002	-5.27347E-003	6.07548E-001	5.41779E-001	-2.69308E-002	-3.79442E-002	7.06479E-001	-4.37762E-002	-4.60824E-004	3.45877E-005	-3.98479E-003	-3.55342E-003	1.76634E-004	2.48868E-004	-4.63366E-003	2.87120E-004
	228	228	4.99593E-002	-6.48599E-003	0.00000E+000	-3.24036E-004	-6.32267E-002	4.21398E-002	3.56831E+001	11	...........	7.03164E-002	-5.17167E-003	6.07683E-001	5.41624E-001	-2.69175E-002	-3.79267E-002	7.06448E-001	-4.37476E-002	-4.56071E-004	3.35434E-005	-3.94143E-003	-3.51297E-003	1.74587E-004	2.45992E-004	-4.58202E-003	2.83747E-004
	229	229	4.99593E-002	-6.42486E-003	0.00000E+000	-3.20982E-004	-6.26327E-002	4.21091E-002	3.57260E+001	11	...........	7.02600E-002	-5.21972E-003	6.07745E-001	5.41725E-001	-2.69150E-002	-3.79054E-002	7.06452E-001	-4.36607E-002	-4.51411E-004	3.35360E-005	-3.90468E-003	-3.48051E-003	1.72925E-004	2.43537E-004	-4.53885E-003	2.80514E-004
	230	230	4.99580E-002	-6.33869E-003	0.00000E+000	-3.16668E-004	-6.17710E-002	4.21833E-002	3.44935E+001	11	...........	7.03856E-002	-5.25472E-003	6.07515E-001	5.41879E-001	-2.69261E-002	-3.79147E-002	7.06443E-001	-4.37454E-002	-4.46152E-004	3.33081E-005	-3.85085E-003	-3.43480E-003	1.70676E-004	2.40330E-004	-4.47793E-003	2.77289E-004
	231	231	4.99599E-002	-6.16791E-003	0.00000E+000	-3.08148E-004	-6.00720E-002	4.18782E-002	3.41450E+001	11	...........	6.98842E-002	-5.30833E-003	6.07425E-001	5.41774E-001	-2.69286E-002	-3.78949E-002	7.06281E-001	-4.37467E-002	-4.31039E-004	3.27413E-005	-3.74654E-003	-3.34161E-003	1.66093E-004	2.33732E-004	-4.35628E-003	2.69825E-004
	232	232	4.99597E-002	-6.18562E-003	0.00000E+000	-3.09032E-004	-6.02467E-002	4.22394E-002	3.53921E+001	11	...........	7.04722E-002	-5.30972E-003	6.07489E-001	5.41620E-001	-2.69324E-002	-3.78975E-002	7.06197E-001	-4.38126E-002	-4.35915E-004	3.28439E-005	-3.75770E-003	-3.35026E-003	1.66593E-004	2.34420E-004	-4.36827E-003	2.71009E-004
	233	233	4.99588E-002	-6.16232E-003	0.00000E+000	-3.07862E-004	-6.00157E-002	4.21801E-002	3.58610E+001	11	...........	7.03792E-002	-5.24389E-003	6.07394E-001	5.41648E-001	-2.69362E-002	-3.78962E-002	7.06246E-001	-4.37128E-002	-4.33699E-004	3.23145E-005	-3.74295E-003	-3.33781E-003	1.65990E-004	2.33529E-004	-4.35211E-003	2.69372E-004
	234	234	4.99592E-002	-6.09133E-003	0.00000E+000	-3.04318E-004	-5.93127E-002	4.21048E-002	3.53750E+001	11	...........	7.02557E-002	-5.22972E-003	6.07352E-001	5.41551E-001	-2.69101E-002	-3.78764E-002	7.06339E-001	-4.37267E-002	-4.27950E-004	3.18560E-005	-3.69958E-003	-3.29876E-003	1.63918E-004	2.30717E-004	-4.30254E-003	2.66353E-004
	235	235	4.99592E-002	-5.99845E-003	0.00000E+000	-2.99678E-004	-5.83800E-002	4.21844E-002	3.48353E+001	11	...........	7.03826E-002	-5.27819E-003	6.07375E-001	5.41661E-001	-2.69050E-002	-3.78715E-002	7.06277E-001	-4.38456E-002	-4.22187E-004	3.16610E-005	-3.64331E-003	-3.24913E-003	1.61388E-004	2.27171E-004	-4.23657E-003	2.63006E-004
	236	236	4.99589E-002	-5.87566E-003	0.00000E+000	-2.93541E-004	-5.71583E-002	4.19703E-002	3.48905E+001	11	...........	7.00224E-002	-5.23500E-003	6.07352E-001	5.41668E-001	-2.69179E-002	-3.78679E-002	7.06344E-001	-4.38154E-002	-4.11427E-004	3.07591E-005	-3.56859E-003	-3.18266E-003	1.58160E-004	2.22499E-004	-4.15023E-003	2.57444E-004
	237	237	4.99597E-002	-5.90531E-003	0.00000E+000	-2.95027E-004	-5.74503E-002	4.22421E-002	3.56914E+001	11	...........	7.04821E-002	-5.29667E-003	6.07256E-001	5.41623E-001	-2.69044E-002	-3.78874E-002	7.06395E-001	-4.38079E-002	-4.16219E-004	3.12785E-005	-3.58603E-003	-3.19845E-003	1.58879E-004	2.23737E-004	-4.17148E-003	2.58699E-004
	238	238	4.99597E-002	-5.86495E-003	0.00000E+000	-2.93011E-004	-5.70517E-002	4.22089E-002	3.57815E+001	11	...........	7.04272E-002	-5.22125E-003	6.07326E-001	5.41560E-001	-2.69035E-002	-3.79031E-002	7.06288E-001	-4.38758E-002	-4.13052E-004	3.06224E-005	-3.56194E-003	-3.17622E-003	1.57788E-004	2.22300E-004	-4.14235E-003	2.57330E-004
	239	239	4.99595E-002	-5.79160E-003	0.00000E+000	-2.89345E-004	-5.63247E-002	4.21568E-002	3.54142E+001	11	...........	7.03500E-002	-5.24458E-003	6.07522E-001	5.41700E-001	-2.69053E-002	-3.79064E-002	7.06196E-001	-4.39376E-002	-4.07439E-004	3.03745E-005	-3.51852E-003	-3.13731E-003	1.55824E-004	2.19538E-004	-4.09000E-003	2.54469E-004
	240	240	4.99587E-002	-5.72175E-003	0.00000E+000	-2.85851E-004	-5.56320E-002	4.22094E-002	3.52542E+001	11	...........	7.04399E-002	-5.30847E-003	6.07595E-001	5.41559E-001	-2.68974E-002	-3.78950E-002	7.06187E-001	-4.38644E-002	-4.03039E-004	3.03738E-005	-3.47651E-003	-3.09867E-003	1.53900E-004	2.16826E-004	-4.04063E-003	2.50981E-004
	241	241	4.99593E-002	-5.62158E-003	0.00000E+000	-2.80850E-004	-5.46307E-002	4.20687E-002	3.47269E+001	11	...........	7.01872E-002	-5.30653E-003	6.07655E-001	5.41601E-001	-2.68843E-002	-3.78828E-002	7.06165E-001	-4.38311E-002	-3.94563E-004	2.98311E-005	-3.41598E-003	-3.04465E-003	1.51132E-004	2.12961E-004	-3.96976E-003	2.46400E-004
	242	242	4.99596E-002	-5.57453E-003	0.00000E+000	-2.78501E-004	-5.41623E-002	4.21479E-002	3.53309E+001	11	...........	7.03437E-002	-5.19625E-003	6.07481E-001	5.41824E-001	-2.69064E-002	-3.78687E-002	7.06219E-001	-4.37674E-002	-3.92133E-004	2.89666E-005	-3.38642E-003	-3.02041E-003	1.49990E-004	2.11100E-004	-3.93684E-003	2.43982E-004
	243	243	4.99593E-002	-5.57631E-003	0.00000E+000	-2.78589E-004	-5.41783E-002	4.22557E-002	3.54521E+001	11	...........	7.05068E-002	-5.12361E-003	6.07512E-001	5.41946E-001	-2.69285E-002	-3.78586E-002	7.06399E-001	-4.38268E-002	-3.93168E-004	2.85708E-005	-3.38768E-003	-3.02206E-003	1.50161E-004	2.11111E-004	-3.93910E-003	2.44392E-004
	244	244	4.99591E-002	-5.46372E-003	0.00000E+000	-2.72963E-004	-5.30613E-002	4.20243E-002	3.51082E+001	11	...........	7.01251E-002	-5.29889E-003	6.07340E-001	5.41928E-001	-2.69358E-002	-3.78740E-002	7.06402E-001	-4.38006E-002	-3.83144E-004	2.89516E-005	-3.31834E-003	-2.96094E-003	1.47170E-004	2.06933E-004	-3.85958E-003	2.39314E-004
	245	245	4.99594E-002	-5.45321E-003	0.00000E+000	-2.72439E-004	-5.29517E-002	4.22681E-002	3.57922E+001	11	...........	7.05261E-002	-5.27236E-003	6.07307E-001	5.41952E-001	-2.69607E-002	-3.78829E-002	7.06335E-001	-4.38375E-002	-3.84593E-004	2.87513E-005	-3.31177E-003	-2.95538E-003	1.47022E-004	2.06583E-004	-3.85179E-003	2.39055E-004
	246	246	4.99590E-002	-5.39490E-003	0.00000E+000	-2.69524E-004	-5.23733E-002	4.21722E-002	3.56543E+001	11	...........	7.03774E-002	-5.22417E-003	6.07327E-001	5.41960E-001	-2.69664E-002	-3.78871E-002	7.06372E-001	-4.38183E-002	-3.79679E-004	2.81838E-005	-3.27647E-003	-2.92382E-003	1.45481E-004	2.04397E-004	-3.81080E-003	2.36395E-004
	247	247	4.99585E-002	-5.29188E-003	0.00000E+000	-2.64374E-004	-5.13587E-002	4.20634E-002	3.44996E+001	11	...........	7.01844E-002	-5.22472E-003	6.07313E-001	5.42087E-001	-2.69897E-002	-3.78915E-002	7.06356E-001	-4.39087E-002	-3.71408E-004	2.76486E-005	-3.21383E-003	-2.86866E-003	1.42826E-004	2.00517E-004	-3.73795E-003	2.32360E-004
	248	248	4.99602E-002	-5.24956E-003	0.00000E+000	-2.62269E-004	-5.09427E-002	4.21971E-002	3.54625E+001	11	...........	7.04007E-002	-5.25500E-003	6.07340E-001	5.42116E-001	-2.69912E-002	-3.79014E-002	7.06329E-001	-4.38899E-002	-3.69572E-004	2.75864E-005	-3.18827E-003	-2.84587E-003	1.41692E-004	1.98966E-004	-3.70792E-003	2.30402E-004
	249	249	4.99596E-002	-5.23704E-003	0.00000E+000	-2.61640E-004	-5.08233E-002	4.21939E-002	3.58150E+001	11	...........	7.04033E-002	-5.24708E-003	6.07441E-001	5.41980E-001	-2.70071E-002	-3.78971E-002	7.06370E-001	-4.38992E-002	-3.68705E-004	2.74792E-005	-3.18119E-003	-2.83837E-003	1.41437E-004	1.98468E-004	-3.69929E-003	2.29902E-004
	250	250	4.99594E-002	-5.19192E-003	0.00000E+000	-2.59385E-004	-5.03747E-002	4.21865E-002	3.58164E+001	11	...........	7.04036E-002	-5.26861E-003	6.07469E-001	5.41861E-001	-2.70193E-002	-3.78942E-002	7.06415E-001	-4.39353E-002	-3.65530E-004	2.73542E-005	-3.15393E-003	-2.81330E-003	1.40282E-004	1.96744E-004	-3.66765E-003	2.28109E-004
	251	251	4.99591E-002	-5.13358E-003	0.00000E+000	-2.56470E-004	-4.97940E-002	4.22177E-002	3.54061E+001	11	...........	7.04360E-002	-5.27639E-003	6.07508E-001	5.41949E-001	-2.70418E-002	-3.79114E-002	7.06371E-001	-4.39481E-002	-3.61589E-004	2.70868E-005	-3.11869E-003	-2.78214E-003	1.38821E-004	1.94621E-004	-3.62622E-003	2.25611E-004
	252	251.483	4.99575E-002	-5.08411E-003	0.00000E+000	-2.53989E-004	-4.92986E-002	4.22248E-002	3.37285E+001	11	...........	7.04391E-002	-5.34655E-003	6.07504E-001	5.41971E-001	-2.70560E-002	-3.79164E-002	7.06337E-001	-4.38555E-002	-3.58120E-004	2.71825E-005	-3.08862E-003	-2.75544E-003	1.37556E-004	1.92771E-004	-3.59110E-003	2.22966E-004
STARTTIMEOFFSET	QUANT	632531.9	Start Time Offset (s)
