EXPLAIN
TAG	PWR800_DISCHARGE
TITLE	LABEL	PWR Discharge	Test Identifier
DATE	LABEL	10/16/2022	Date
TIME	LABEL	19:54:17	Time
NOTES	NOTES	1	Notes...
	
PSTAT	PSTAT	REF3000-21114	Potentiostat
CAPACITY	QUANT	5.30000E-002	Capacity (A-hr)
CELLTYPE	SELECTOR	1	Cell Type
WORKINGCONNECTION	SELECTOR	0	Working Connection
MAXDISCHARGETIME	VARIABLEANDUNITS	7.20000E+003	s	2.00000E+000	hour(s)	Max Discharge Time
DISCHARGEMODE	MULTIPARAM	0	1.00000E-001	Discharge Mode	Constant Current	Amp(s)
VOLTAGEFINISH	TWOPARAM	T	5.00000E-003	7.20000E+003	Voltage Finish	I (A) <	Max Time(s)
SAMPLETIME	QUANT	1.00000E+000	Sample Period (s)
DISCHARGESTOPAT1	MULTIPARAM	1	5.00000E-002	Stop At 1	|Voltage| < Limit	V
DISCHARGESTOPAT2	MULTIPARAM	0	0.00000E+000	Stop At 2	None	N/A
AESELECTOR	AESELECTOR	0x1	T	Set Limits	AE Channels
AESBHCSELECTOR	TOGGLE	F	Save Both Half Cells
IRCOMP	TOGGLE	F	IR Measure
EOC	QUANT	0.5283556	Open Circuit (V)
SEQUENCER	TOGGLE	TRUE	Run as Sequence
PSTATMODEL	IQUANT	5	Pstat Model
PSTATSECTION	LABEL	REF3000-21114	Pstat Section
PSTATSERIALNO	LABEL	21114	Pstat Serial Number
CTRLMODE	IQUANT	0	Control Mode
ELECTROMETER	IQUANT	0	RE=0 or CS=1
IESTAB	IQUANT	0	I/E Stability
CASPEED	IQUANT	4	Control Amp Speed
CONVENTION	IQUANT	1	Current Convention
ICHRANGE	IQUANT	2	Ich Range
ICHRANGEMODE	TOGGLE	T	Ich Auto Range
ICHOFFSETENABLE	TOGGLE	F	Ich Offset Enable
ICHOFFSET	QUANT	0	Ich Offset (V)
ICHFILTER	IQUANT	1	Ich Filter
VCHRANGE	IQUANT	3	Vch Range
VCHRANGEMODE	TOGGLE	T	Vch Auto Range
VCHOFFSETENABLE	TOGGLE	F	Vch Offset Enable
VCHOFFSET	QUANT	0	Vch Offset (V)
VCHFILTER	IQUANT	1	Vch Filter
ACHRANGE	IQUANT	2	Ach Range
ACHOFFSETENABLE	TOGGLE	F	Ach Offset Enable
ACHOFFSET	QUANT	0	Ach Offset (V)
ACHFILTER	IQUANT	1	Ach Filter
IERANGELOWERLIMIT	IQUANT	9	I/E Range Lower Limit
IERANGEMODE	TOGGLE	F	I/E AutoRange
IERANGE	IQUANT	9	I/E Range
POSFEEDENABLE	TOGGLE	F	Positive Feedback IR Comp
POSFEEDRESISTANCE	QUANT	0	Positive Feedback Resistance (ohm)
ACHSELECT	IQUANT	1	Ach Select
SENSECABLEID	IQUANT	13	Sense Cable ID
PWRCABLEID	IQUANT	13	Power Cable ID
DCCALDATE	LABEL		DC Calibration Date
ACCALDATE	LABEL		AC Calibration Date
THERMOSELECT	IQUANT	1	Thermo Select
FRAMEWORKVERSION	LABEL	7.8.6	Framework Version
INSTRUMENTVERSION	LABEL	4.50	Instrument Version
COMPLIANCEVOLTAGE	IQUANT	0	Compliance Voltage
CURVE	TABLE	67
	Pt	T	Vf	Im	Vu	Pwr	Sig	Ach	Temp	IERange	Over	Vf1	Vf2	Vf3	Vf4	Vf5	Vf6	Vf7	Vf8	Pwr1	Pwr2	Pwr3	Pwr4	Pwr5	Pwr6	Pwr7	Pwr8
	#	s	V	A	V	W	V	V	deg C	#	bits	V	V	V	V	V	V	V	V	W	W	W	W	W	W	W	W
	0	1	2.85828E-001	-1.00106E-001	0.00000E+000	-2.86132E-002	-9.94000E-001	3.53723E-002	2.92250E+001	11	...........	5.85832E-002	-4.63528E-003	5.87705E-001	5.72964E-001	-2.83897E-002	-3.89807E-002	6.80269E-001	-4.39246E-002	-5.86453E-003	4.64020E-004	-5.88329E-002	-5.73572E-002	2.84198E-003	3.90221E-003	-6.80990E-002	4.39712E-003
	1	2	1.87569E-001	-1.00107E-001	0.00000E+000	-1.87769E-002	-9.94000E-001	3.53495E-002	2.85564E+001	11	...........	5.85765E-002	-4.72958E-003	5.87872E-001	5.73097E-001	-2.83810E-002	-3.89897E-002	6.80269E-001	-4.39140E-002	-5.86389E-003	4.73462E-004	-5.88498E-002	-5.73707E-002	2.84112E-003	3.90313E-003	-6.80993E-002	4.39608E-003
	2	3	1.01413E-001	-1.00107E-001	0.00000E+000	-1.01522E-002	-9.94000E-001	3.52838E-002	2.72543E+001	11	...........	5.84918E-002	-4.84903E-003	5.87936E-001	5.73260E-001	-2.83779E-002	-3.89992E-002	6.80354E-001	-4.38586E-002	-5.85544E-003	4.85422E-004	-5.88565E-002	-5.73873E-002	2.84083E-003	3.90409E-003	-6.81082E-002	4.39056E-003
	3	3.13833	5.48570E-002	-1.00107E-001	0.00000E+000	-5.49158E-003	-9.94000E-001	3.51006E-002	2.67455E+001	11	...........	5.81606E-002	-4.72189E-003	5.87865E-001	5.73212E-001	-2.83685E-002	-3.90331E-002	6.80344E-001	-4.38002E-002	-5.82230E-003	4.72695E-004	-5.88496E-002	-5.73826E-002	2.83989E-003	3.90750E-003	-6.81074E-002	4.38472E-003
	4	4	4.94233E-002	-7.97696E-002	0.00000E+000	-3.94248E-003	-7.91797E-001	3.54825E-002	2.74347E+001	11	...........	5.88019E-002	-4.71986E-003	5.88005E-001	5.73211E-001	-2.84086E-002	-3.90153E-002	6.80275E-001	-4.38319E-002	-4.69060E-003	3.76501E-004	-4.69050E-002	-4.57248E-002	2.26614E-003	3.11224E-003	-5.42653E-002	3.49645E-003
	5	5	4.97145E-002	-5.36684E-002	0.00000E+000	-2.66810E-003	-5.32317E-001	3.55471E-002	2.83445E+001	11	...........	5.89144E-002	-4.74014E-003	5.88100E-001	5.73219E-001	-2.83714E-002	-3.90222E-002	6.80318E-001	-4.38797E-002	-3.16184E-003	2.54396E-004	-3.15624E-002	-3.07637E-002	1.52265E-003	2.09426E-003	-3.65116E-002	2.35495E-003
	6	6	4.98320E-002	-3.87671E-002	0.00000E+000	-1.93184E-003	-3.84183E-001	3.56153E-002	2.97449E+001	11	...........	5.90197E-002	-4.80125E-003	5.88026E-001	5.73179E-001	-2.83821E-002	-3.90419E-002	6.80318E-001	-4.39114E-002	-2.28803E-003	1.86131E-004	-2.27961E-002	-2.22205E-002	1.10029E-003	1.51354E-003	-2.63740E-002	1.70232E-003
	7	7	4.98931E-002	-3.00911E-002	0.00000E+000	-1.50134E-003	-2.97925E-001	3.56830E-002	3.04349E+001	11	...........	5.91301E-002	-4.83722E-003	5.88042E-001	5.73263E-001	-2.83517E-002	-3.90283E-002	6.80284E-001	-4.38247E-002	-1.77929E-003	1.45557E-004	-1.76948E-002	-1.72501E-002	8.53133E-004	1.17441E-003	-2.04705E-002	1.31873E-003
	8	8	4.99248E-002	-2.44746E-002	0.00000E+000	-1.22189E-003	-2.42079E-001	3.57211E-002	3.10554E+001	11	...........	5.91856E-002	-4.80639E-003	5.88180E-001	5.73251E-001	-2.83821E-002	-3.90286E-002	6.80234E-001	-4.37683E-002	-1.44854E-003	1.17634E-004	-1.43955E-002	-1.40301E-002	6.94640E-004	9.55210E-004	-1.66485E-002	1.07121E-003
	9	9	4.99466E-002	-2.07172E-002	0.00000E+000	-1.03475E-003	-2.04715E-001	3.56408E-002	3.09504E+001	11	...........	5.90268E-002	-4.86194E-003	5.88100E-001	5.73370E-001	-2.83853E-002	-3.90504E-002	6.80256E-001	-4.37907E-002	-1.22287E-003	1.00726E-004	-1.21838E-002	-1.18786E-002	5.88063E-004	8.09015E-004	-1.40930E-002	9.07220E-004
	10	10	4.99578E-002	-1.81840E-002	0.00000E+000	-9.08433E-004	-1.79532E-001	3.57228E-002	3.14204E+001	11	...........	5.91835E-002	-4.72306E-003	5.88024E-001	5.73493E-001	-2.83678E-002	-3.90504E-002	6.80373E-001	-4.37957E-002	-1.07619E-003	8.58840E-005	-1.06926E-002	-1.04284E-002	5.15839E-004	7.10092E-004	-1.23719E-002	7.96381E-004
	11	11	4.99635E-002	-1.63482E-002	0.00000E+000	-8.16811E-004	-1.61271E-001	3.58753E-002	3.15036E+001	11	...........	5.94278E-002	-4.86917E-003	5.88036E-001	5.73462E-001	-2.83368E-002	-3.90175E-002	6.80343E-001	-4.36933E-002	-9.71534E-004	7.96019E-005	-9.61331E-003	-9.37505E-003	4.63254E-004	6.37864E-004	-1.11224E-002	7.14305E-004
	12	12	4.99720E-002	-1.48673E-002	0.00000E+000	-7.42949E-004	-1.46536E-001	3.58031E-002	3.14455E+001	11	...........	5.92926E-002	-4.79139E-003	5.88028E-001	5.73450E-001	-2.83336E-002	-3.90251E-002	6.80330E-001	-4.37136E-002	-8.81522E-004	7.12351E-005	-8.74240E-003	-8.52566E-003	4.21245E-004	5.80199E-004	-1.01147E-002	6.49904E-004
	13	13	4.99766E-002	-1.37708E-002	0.00000E+000	-6.88218E-004	-1.35647E-001	3.57787E-002	3.15769E+001	11	...........	5.92971E-002	-4.87764E-003	5.87988E-001	5.73407E-001	-2.83500E-002	-3.90308E-002	6.80342E-001	-4.37551E-002	-8.16569E-004	6.71690E-005	-8.09707E-003	-7.89628E-003	3.90402E-004	5.37486E-004	-9.36886E-003	6.02544E-004
	14	14	4.99745E-002	-1.28802E-002	0.00000E+000	-6.43682E-004	-1.26785E-001	3.58356E-002	3.16776E+001	11	...........	5.93626E-002	-4.86375E-003	5.87952E-001	5.73495E-001	-2.83640E-002	-3.90429E-002	6.80396E-001	-4.38131E-002	-7.64603E-004	6.26461E-005	-7.57295E-003	-7.38673E-003	3.65335E-004	5.02881E-004	-8.76365E-003	5.64322E-004
	15	15	4.99816E-002	-1.21895E-002	0.00000E+000	-6.09252E-004	-1.19903E-001	3.57584E-002	3.15193E+001	11	...........	5.92461E-002	-4.87528E-003	5.87816E-001	5.73467E-001	-2.83535E-002	-3.90368E-002	6.80369E-001	-4.37707E-002	-7.22182E-004	5.94273E-005	-7.16520E-003	-6.99029E-003	3.45615E-004	4.75840E-004	-8.29337E-003	5.33544E-004
	16	16	4.99823E-002	-1.17223E-002	0.00000E+000	-5.85908E-004	-1.15257E-001	3.59276E-002	3.21016E+001	11	...........	5.95040E-002	-5.00167E-003	5.87907E-001	5.73617E-001	-2.83653E-002	-3.90474E-002	6.80165E-001	-4.37604E-002	-6.97525E-004	5.86311E-005	-6.89163E-003	-6.72412E-003	3.32507E-004	4.57725E-004	-7.97311E-003	5.12973E-004
	17	17	4.99818E-002	-1.12261E-002	0.00000E+000	-5.61099E-004	-1.10339E-001	3.58505E-002	3.23552E+001	11	...........	5.93861E-002	-4.88236E-003	5.88001E-001	5.73690E-001	-2.83904E-002	-3.90407E-002	6.80102E-001	-4.38633E-002	-6.66672E-004	5.48097E-005	-6.60094E-003	-6.44028E-003	3.18713E-004	4.38273E-004	-7.63486E-003	4.92412E-004
	18	18	4.99821E-002	-1.08285E-002	0.00000E+000	-5.41231E-004	-1.06380E-001	3.60040E-002	3.21423E+001	11	...........	5.96306E-002	-4.81667E-003	5.87951E-001	5.73711E-001	-2.83760E-002	-3.90461E-002	6.80128E-001	-4.38037E-002	-6.45709E-004	5.21572E-005	-6.36662E-003	-6.21242E-003	3.07269E-004	4.22810E-004	-7.36476E-003	4.74328E-004
	19	19	4.99831E-002	-1.04085E-002	0.00000E+000	-5.20248E-004	-1.02221E-001	3.58892E-002	3.23312E+001	11	...........	5.94228E-002	-4.69597E-003	5.88218E-001	5.73813E-001	-2.83750E-002	-3.90536E-002	6.80223E-001	-4.38274E-002	-6.18500E-004	4.88779E-005	-6.12245E-003	-5.97252E-003	2.95340E-004	4.06488E-004	-7.08009E-003	4.56176E-004
	20	20	4.99835E-002	-1.00818E-002	0.00000E+000	-5.03923E-004	-9.89873E-002	3.58138E-002	3.19934E+001	11	...........	5.95040E-002	-4.72667E-003	5.88352E-001	5.73900E-001	-2.83954E-002	-3.90237E-002	6.80278E-001	-4.38157E-002	-5.99906E-004	4.76532E-005	-5.93163E-003	-5.78593E-003	2.86276E-004	3.93428E-004	-6.85841E-003	4.41740E-004
	21	21	4.99855E-002	-9.78850E-003	0.00000E+000	-4.89283E-004	-9.60610E-002	3.57097E-002	3.18840E+001	11	...........	5.94804E-002	-4.82417E-003	5.88329E-001	5.73864E-001	-2.83925E-002	-3.89932E-002	6.80387E-001	-4.38397E-002	-5.82224E-004	4.72214E-005	-5.75886E-003	-5.61727E-003	2.77920E-004	3.81685E-004	-6.65997E-003	4.29125E-004
	22	22	4.99846E-002	-9.62808E-003	0.00000E+000	-4.81256E-004	-9.44620E-002	3.58453E-002	3.23279E+001	11	...........	5.97218E-002	-4.94292E-003	5.88329E-001	5.73963E-001	-2.83892E-002	-3.90112E-002	6.80412E-001	-4.38721E-002	-5.75006E-004	4.75908E-005	-5.66447E-003	-5.52616E-003	2.73333E-004	3.75603E-004	-6.55106E-003	4.22404E-004
	23	23	4.99851E-002	-9.35312E-003	0.00000E+000	-4.67517E-004	-9.17160E-002	3.57237E-002	3.24612E+001	11	...........	5.95310E-002	-4.77097E-003	5.88380E-001	5.74081E-001	-2.83876E-002	-3.89897E-002	6.80262E-001	-4.37878E-002	-5.56801E-004	4.46235E-005	-5.50319E-003	-5.36945E-003	2.65513E-004	3.64676E-004	-6.36258E-003	4.09553E-004
	24	24	4.99850E-002	-9.10857E-003	0.00000E+000	-4.55292E-004	-8.92810E-002	3.57923E-002	3.25196E+001	11	...........	5.96251E-002	-4.77361E-003	5.88528E-001	5.74145E-001	-2.83960E-002	-3.90235E-002	6.80418E-001	-4.38100E-002	-5.43100E-004	4.34808E-005	-5.36065E-003	-5.22964E-003	2.58647E-004	3.55448E-004	-6.19763E-003	3.99046E-004
	25	25	4.99862E-002	-8.93236E-003	0.00000E+000	-4.46495E-004	-8.75540E-002	3.57314E-002	3.20623E+001	11	...........	5.95356E-002	-4.75597E-003	5.88591E-001	5.74025E-001	-2.84181E-002	-3.90437E-002	6.80512E-001	-4.38044E-002	-5.31793E-004	4.24821E-005	-5.25751E-003	-5.12740E-003	2.53840E-004	3.48753E-004	-6.07858E-003	3.91277E-004
	26	26	4.99853E-002	-8.77102E-003	0.00000E+000	-4.38422E-004	-8.59547E-002	3.58776E-002	3.29289E+001	11	...........	5.97683E-002	-4.74222E-003	5.88526E-001	5.74107E-001	-2.84325E-002	-3.90508E-002	6.80375E-001	-4.38318E-002	-5.24229E-004	4.15941E-005	-5.16197E-003	-5.03550E-003	2.49382E-004	3.42516E-004	-5.96758E-003	3.84450E-004
	27	27	4.99848E-002	-8.59403E-003	0.00000E+000	-4.29570E-004	-8.41927E-002	3.58038E-002	3.25512E+001	11	...........	5.96499E-002	-4.85556E-003	5.88424E-001	5.74057E-001	-2.84221E-002	-3.90590E-002	6.80392E-001	-4.37956E-002	-5.12633E-004	4.17288E-005	-5.05693E-003	-4.93346E-003	2.44260E-004	3.35674E-004	-5.84731E-003	3.76380E-004
	28	28	4.99873E-002	-8.42136E-003	0.00000E+000	-4.20961E-004	-8.24697E-002	3.58459E-002	3.24662E+001	11	...........	5.96868E-002	-4.99903E-003	5.88308E-001	5.74221E-001	-2.84306E-002	-3.90579E-002	6.80288E-001	-4.38171E-002	-5.02644E-004	4.20986E-005	-4.95436E-003	-4.83573E-003	2.39424E-004	3.28921E-004	-5.72895E-003	3.69000E-004
	29	29	4.99852E-002	-8.24721E-003	0.00000E+000	-4.12238E-004	-8.07390E-002	3.58241E-002	3.25771E+001	11	...........	5.96704E-002	-4.97639E-003	5.88309E-001	5.74324E-001	-2.84162E-002	-3.90496E-002	6.80283E-001	-4.37893E-002	-4.92114E-004	4.10413E-005	-4.85191E-003	-4.73657E-003	2.34355E-004	3.22050E-004	-5.61043E-003	3.61139E-004
	30	30	4.99858E-002	-8.04721E-003	0.00000E+000	-4.02246E-004	-7.87390E-002	3.58057E-002	3.19926E+001	11	...........	5.96475E-002	-5.00472E-003	5.88319E-001	5.74245E-001	-2.84314E-002	-3.90742E-002	6.80424E-001	-4.38654E-002	-4.79996E-004	4.02740E-005	-4.73432E-003	-4.62107E-003	2.28793E-004	3.14438E-004	-5.47552E-003	3.52994E-004
	31	31	4.99873E-002	-7.92906E-003	0.00000E+000	-3.96353E-004	-7.75700E-002	3.58259E-002	3.22509E+001	11	...........	5.96789E-002	-5.07472E-003	5.88230E-001	5.74173E-001	-2.83968E-002	-3.90439E-002	6.80436E-001	-4.38300E-002	-4.73197E-004	4.02378E-005	-4.66411E-003	-4.55265E-003	2.25160E-004	3.09581E-004	-5.39521E-003	3.47531E-004
	32	32	4.99860E-002	-7.82011E-003	0.00000E+000	-3.90896E-004	-7.65043E-002	3.59366E-002	3.28352E+001	11	...........	5.98668E-002	-4.98500E-003	5.88202E-001	5.74178E-001	-2.84304E-002	-3.90421E-002	6.80387E-001	-4.37908E-002	-4.68165E-004	3.89833E-005	-4.59981E-003	-4.49014E-003	2.22329E-004	3.05314E-004	-5.32071E-003	3.42449E-004
	33	33	4.99851E-002	-7.67185E-003	0.00000E+000	-3.83479E-004	-7.50217E-002	3.58512E-002	3.23021E+001	11	...........	5.97135E-002	-4.86986E-003	5.88285E-001	5.74147E-001	-2.84257E-002	-3.90293E-002	6.80345E-001	-4.38475E-002	-4.58113E-004	3.73609E-005	-4.51323E-003	-4.40477E-003	2.18078E-004	2.99427E-004	-5.21950E-003	3.36392E-004
	34	34	4.99875E-002	-7.55365E-003	0.00000E+000	-3.77588E-004	-7.38423E-002	3.59748E-002	3.28526E+001	11	...........	5.99200E-002	-4.75361E-003	5.88151E-001	5.73961E-001	-2.84186E-002	-3.90437E-002	6.80291E-001	-4.38632E-002	-4.52614E-004	3.59071E-005	-4.44269E-003	-4.33550E-003	2.14664E-004	2.94923E-004	-5.13867E-003	3.31327E-004
	35	35	4.99864E-002	-7.43829E-003	0.00000E+000	-3.71813E-004	-7.26877E-002	3.58766E-002	3.19506E+001	11	...........	5.97808E-002	-4.79625E-003	5.88114E-001	5.73828E-001	-2.84390E-002	-3.90256E-002	6.80267E-001	-4.38867E-002	-4.44667E-004	3.56759E-005	-4.37456E-003	-4.26830E-003	2.11538E-004	2.90283E-004	-5.06002E-003	3.26442E-004
	36	36	4.99872E-002	-7.32597E-003	0.00000E+000	-3.66204E-004	-7.15740E-002	3.59691E-002	3.26759E+001	11	...........	5.99146E-002	-4.86458E-003	5.88015E-001	5.73990E-001	-2.84268E-002	-3.90336E-002	6.80308E-001	-4.38240E-002	-4.38932E-004	3.56378E-005	-4.30778E-003	-4.20503E-003	2.08254E-004	2.85959E-004	-4.98391E-003	3.21053E-004
	37	37	4.99868E-002	-7.24840E-003	0.00000E+000	-3.62324E-004	-7.08030E-002	3.59141E-002	3.26899E+001	11	...........	5.98126E-002	-4.84986E-003	5.88033E-001	5.74058E-001	-2.84018E-002	-3.90657E-002	6.80297E-001	-4.38168E-002	-4.33546E-004	3.51538E-005	-4.26230E-003	-4.16101E-003	2.05868E-004	2.83164E-004	-4.93107E-003	3.17602E-004
	38	38	4.99861E-002	-7.12557E-003	0.00000E+000	-3.56179E-004	-6.95770E-002	3.59553E-002	3.27263E+001	11	...........	5.98950E-002	-4.81528E-003	5.87961E-001	5.74064E-001	-2.84228E-002	-3.90465E-002	6.80254E-001	-4.36579E-002	-4.26786E-004	3.43116E-005	-4.18956E-003	-4.09054E-003	2.02529E-004	2.78229E-004	-4.84720E-003	3.11088E-004
	39	39	4.99858E-002	-6.99973E-003	0.00000E+000	-3.49887E-004	-6.83237E-002	3.60096E-002	3.24619E+001	11	...........	6.00004E-002	-4.77542E-003	5.88022E-001	5.73985E-001	-2.84128E-002	-3.90339E-002	6.80264E-001	-4.37382E-002	-4.19986E-004	3.34266E-005	-4.11599E-003	-4.01774E-003	1.98882E-004	2.73227E-004	-4.76166E-003	3.06155E-004
	40	40	4.99873E-002	-6.85982E-003	0.00000E+000	-3.42904E-004	-6.69270E-002	3.58572E-002	3.23948E+001	11	...........	5.97358E-002	-4.87667E-003	5.87914E-001	5.74032E-001	-2.84210E-002	-3.90157E-002	6.80229E-001	-4.38117E-002	-4.09777E-004	3.34530E-005	-4.03299E-003	-3.93776E-003	1.94963E-004	2.67641E-004	-4.66625E-003	3.00540E-004
	41	41	4.99876E-002	-6.82411E-003	0.00000E+000	-3.41120E-004	-6.65703E-002	3.60319E-002	3.28403E+001	11	...........	6.00119E-002	-4.83514E-003	5.87941E-001	5.74032E-001	-2.84099E-002	-3.90328E-002	6.80319E-001	-4.38272E-002	-4.09528E-004	3.29955E-005	-4.01217E-003	-3.91726E-003	1.93872E-004	2.66364E-004	-4.64257E-003	2.99082E-004
	42	42	4.99857E-002	-6.75262E-003	0.00000E+000	-3.37534E-004	-6.58533E-002	3.59939E-002	3.28129E+001	11	...........	5.99649E-002	-4.63625E-003	5.87919E-001	5.73973E-001	-2.84215E-002	-3.90243E-002	6.80425E-001	-4.37654E-002	-4.04920E-004	3.13068E-005	-3.96999E-003	-3.87582E-003	1.91920E-004	2.63516E-004	-4.59465E-003	2.95531E-004
	43	43	4.99875E-002	-6.63087E-003	0.00000E+000	-3.31461E-004	-6.46357E-002	3.59682E-002	3.30716E+001	11	...........	5.99150E-002	-4.62403E-003	5.88026E-001	5.73844E-001	-2.84300E-002	-3.90340E-002	6.80317E-001	-4.38540E-002	-3.97289E-004	3.06613E-005	-3.89913E-003	-3.80508E-003	1.88516E-004	2.58830E-004	-4.51109E-003	2.90790E-004
	44	44	4.99860E-002	-6.51734E-003	0.00000E+000	-3.25776E-004	-6.35143E-002	3.57295E-002	3.22869E+001	11	...........	5.98346E-002	-4.72806E-003	5.87982E-001	5.73867E-001	-2.84267E-002	-3.90575E-002	6.80246E-001	-4.38501E-002	-3.89962E-004	3.08143E-005	-3.83208E-003	-3.74008E-003	1.85266E-004	2.54551E-004	-4.43339E-003	2.85786E-004
	45	45	4.99879E-002	-6.47044E-003	0.00000E+000	-3.23444E-004	-6.30517E-002	3.60614E-002	3.30327E+001	11	...........	6.00678E-002	-4.78875E-003	5.87918E-001	5.73908E-001	-2.84042E-002	-3.90472E-002	6.80311E-001	-4.38833E-002	-3.88665E-004	3.09853E-005	-3.80409E-003	-3.71343E-003	1.83787E-004	2.52653E-004	-4.40191E-003	2.83944E-004
	46	46	4.99868E-002	-6.37377E-003	0.00000E+000	-3.18604E-004	-6.21147E-002	3.59366E-002	3.29398E+001	11	...........	5.98640E-002	-4.84014E-003	5.88018E-001	5.73887E-001	-2.83936E-002	-3.90376E-002	6.80403E-001	-4.38919E-002	-3.81559E-004	3.08499E-005	-3.74789E-003	-3.65783E-003	1.80974E-004	2.48817E-004	-4.33673E-003	2.79757E-004
	47	47	4.99856E-002	-6.28545E-003	0.00000E+000	-3.14182E-004	-6.12347E-002	3.60348E-002	3.26864E+001	11	...........	6.00236E-002	-4.93931E-003	5.88136E-001	5.74023E-001	-2.84086E-002	-3.90087E-002	6.80347E-001	-4.38822E-002	-3.77276E-004	3.10458E-005	-3.69670E-003	-3.60799E-003	1.78561E-004	2.45188E-004	-4.27629E-003	2.75820E-004
	48	48	4.99884E-002	-6.19673E-003	0.00000E+000	-3.09765E-004	-6.03467E-002	3.60442E-002	3.27593E+001	11	...........	6.00489E-002	-4.86431E-003	5.88277E-001	5.74110E-001	-2.83735E-002	-3.90096E-002	6.80402E-001	-4.38449E-002	-3.72107E-004	3.01428E-005	-3.64539E-003	-3.55761E-003	1.75823E-004	2.41732E-004	-4.21627E-003	2.71695E-004
	49	49	4.99871E-002	-6.10911E-003	0.00000E+000	-3.05377E-004	-5.94767E-002	3.59222E-002	3.26413E+001	11	...........	5.98612E-002	-4.94000E-003	5.88366E-001	5.74289E-001	-2.83558E-002	-3.90372E-002	6.80299E-001	-4.38964E-002	-3.65699E-004	3.01790E-005	-3.59439E-003	-3.50839E-003	1.73229E-004	2.38482E-004	-4.15602E-003	2.68168E-004
	50	50	4.99875E-002	-6.05326E-003	0.00000E+000	-3.02588E-004	-5.89257E-002	3.60120E-002	3.30813E+001	11	...........	5.99924E-002	-4.90222E-003	5.88383E-001	5.74399E-001	-2.83740E-002	-3.90456E-002	6.80191E-001	-4.38739E-002	-3.63149E-004	2.96744E-005	-3.56164E-003	-3.47699E-003	1.71755E-004	2.36353E-004	-4.11738E-003	2.65580E-004
	51	51	4.99866E-002	-5.98380E-003	0.00000E+000	-2.99110E-004	-5.82300E-002	3.60582E-002	3.30910E+001	11	...........	6.00826E-002	-4.82556E-003	5.88430E-001	5.74296E-001	-2.83700E-002	-3.90464E-002	6.80335E-001	-4.38376E-002	-3.59522E-004	2.88752E-005	-3.52104E-003	-3.43647E-003	1.69760E-004	2.33646E-004	-4.07099E-003	2.62316E-004
	52	52	4.99872E-002	-5.89901E-003	0.00000E+000	-2.94875E-004	-5.73850E-002	3.60771E-002	3.29426E+001	11	...........	6.00929E-002	-4.83278E-003	5.88318E-001	5.74191E-001	-2.83525E-002	-3.90479E-002	6.80347E-001	-4.39007E-002	-3.54488E-004	2.85086E-005	-3.47049E-003	-3.38715E-003	1.67252E-004	2.30344E-004	-4.01337E-003	2.58970E-004
	53	53	4.99873E-002	-5.81625E-003	0.00000E+000	-2.90739E-004	-5.65620E-002	3.59170E-002	3.29587E+001	11	...........	5.98382E-002	-4.91653E-003	5.88441E-001	5.74160E-001	-2.83736E-002	-3.90574E-002	6.80318E-001	-4.38903E-002	-3.48034E-004	2.85957E-005	-3.42252E-003	-3.33946E-003	1.65028E-004	2.27167E-004	-3.95690E-003	2.55277E-004
	54	54	4.99869E-002	-5.79210E-003	0.00000E+000	-2.89529E-004	-5.63237E-002	3.61553E-002	3.28865E+001	11	...........	6.02268E-002	-4.86889E-003	5.88526E-001	5.74247E-001	-2.83735E-002	-3.90721E-002	6.80329E-001	-4.38350E-002	-3.48839E-004	2.82011E-005	-3.40880E-003	-3.32610E-003	1.64342E-004	2.26309E-004	-3.94053E-003	2.53897E-004
	55	55	4.99873E-002	-5.69342E-003	0.00000E+000	-2.84599E-004	-5.53403E-002	3.60336E-002	3.33338E+001	11	...........	6.00332E-002	-4.74875E-003	5.88477E-001	5.74180E-001	-2.83653E-002	-3.90715E-002	6.80305E-001	-4.39056E-002	-3.41794E-004	2.70366E-005	-3.35045E-003	-3.26905E-003	1.61495E-004	2.22451E-004	-3.87326E-003	2.49973E-004
	56	56	4.99867E-002	-5.62543E-003	0.00000E+000	-2.81196E-004	-5.46613E-002	3.60674E-002	3.28446E+001	11	...........	6.00846E-002	-4.65542E-003	5.88584E-001	5.74244E-001	-2.83837E-002	-3.90526E-002	6.80424E-001	-4.38979E-002	-3.38001E-004	2.61887E-005	-3.31104E-003	-3.23037E-003	1.59671E-004	2.19688E-004	-3.82768E-003	2.46945E-004
	57	57	4.99876E-002	-5.56246E-003	0.00000E+000	-2.78054E-004	-5.40320E-002	3.60428E-002	3.34638E+001	11	...........	6.00306E-002	-4.81069E-003	5.88602E-001	5.74231E-001	-2.83726E-002	-3.90360E-002	6.80372E-001	-4.39035E-002	-3.33917E-004	2.67593E-005	-3.27408E-003	-3.19414E-003	1.57822E-004	2.17136E-004	-3.78454E-003	2.44211E-004
	58	58	4.99876E-002	-5.51066E-003	0.00000E+000	-2.75464E-004	-5.35130E-002	3.60770E-002	3.29481E+001	11	...........	6.00989E-002	-4.89972E-003	5.88578E-001	5.74259E-001	-2.83636E-002	-3.90575E-002	6.80282E-001	-4.38303E-002	-3.31184E-004	2.70007E-005	-3.24345E-003	-3.16455E-003	1.56302E-004	2.15232E-004	-3.74880E-003	2.41534E-004
	59	59	4.99876E-002	-5.43516E-003	0.00000E+000	-2.71691E-004	-5.27620E-002	3.59830E-002	3.30350E+001	11	...........	5.99579E-002	-4.71500E-003	5.88448E-001	5.74289E-001	-2.83646E-002	-3.90686E-002	6.80171E-001	-4.38143E-002	-3.25881E-004	2.56268E-005	-3.19831E-003	-3.12135E-003	1.54166E-004	2.12344E-004	-3.69684E-003	2.38138E-004
	60	60	4.99871E-002	-5.40418E-003	0.00000E+000	-2.70139E-004	-5.24573E-002	3.61627E-002	3.35730E+001	11	...........	6.02504E-002	-4.76056E-003	5.88390E-001	5.74260E-001	-2.83712E-002	-3.90486E-002	6.80240E-001	-4.38253E-002	-3.25604E-004	2.57269E-005	-3.17976E-003	-3.10340E-003	1.53323E-004	2.11026E-004	-3.67614E-003	2.36840E-004
	61	61	4.99861E-002	-5.33111E-003	0.00000E+000	-2.66482E-004	-5.17320E-002	3.61155E-002	3.30965E+001	11	...........	6.01606E-002	-4.87375E-003	5.88407E-001	5.74072E-001	-2.83735E-002	-3.90378E-002	6.80418E-001	-4.38028E-002	-3.20723E-004	2.59825E-005	-3.13686E-003	-3.06044E-003	1.51262E-004	2.08115E-004	-3.62739E-003	2.33518E-004
	62	62	4.99884E-002	-5.26312E-003	0.00000E+000	-2.63095E-004	-5.10630E-002	3.60572E-002	3.27523E+001	11	...........	6.00854E-002	-4.78292E-003	5.88352E-001	5.74046E-001	-2.83467E-002	-3.90444E-002	6.80252E-001	-4.38440E-002	-3.16237E-004	2.51731E-005	-3.09657E-003	-3.02128E-003	1.49192E-004	2.05496E-004	-3.58025E-003	2.30756E-004
	63	63	4.99876E-002	-5.23528E-003	0.00000E+000	-2.61699E-004	-5.07893E-002	3.61242E-002	3.35982E+001	11	...........	6.01935E-002	-4.84000E-003	5.88275E-001	5.74059E-001	-2.83483E-002	-3.90247E-002	6.80336E-001	-4.37985E-002	-3.15130E-004	2.53387E-005	-3.07978E-003	-3.00536E-003	1.48411E-004	2.04305E-004	-3.56175E-003	2.29297E-004
	64	64	4.99874E-002	-5.17309E-003	0.00000E+000	-2.58589E-004	-5.01753E-002	3.60740E-002	3.31442E+001	11	...........	6.00883E-002	-4.84681E-003	5.88164E-001	5.74160E-001	-2.83440E-002	-3.90447E-002	6.80312E-001	-4.37385E-002	-3.10842E-004	2.50730E-005	-3.04262E-003	-2.97018E-003	1.46626E-004	2.01982E-004	-3.51932E-003	2.26263E-004
	65	65	4.99869E-002	-5.07983E-003	0.00000E+000	-2.53925E-004	-4.92470E-002	3.61513E-002	3.26248E+001	11	...........	6.02260E-002	-4.84236E-003	5.88198E-001	5.74234E-001	-2.83757E-002	-3.90479E-002	6.80323E-001	-4.36942E-002	-3.05938E-004	2.45984E-005	-2.98795E-003	-2.91701E-003	1.44144E-004	1.98357E-004	-3.45593E-003	2.21959E-004
	66	65.3367	4.99861E-002	-5.06340E-003	0.00000E+000	-2.53100E-004	-4.90792E-002	3.60963E-002	3.23598E+001	11	...........	6.01539E-002	-4.76361E-003	5.88290E-001	5.74285E-001	-2.84229E-002	-3.90198E-002	6.80394E-001	-4.36205E-002	-3.04583E-004	2.41201E-005	-2.97875E-003	-2.90784E-003	1.43916E-004	1.97573E-004	-3.44511E-003	2.20868E-004
STARTTIMEOFFSET	QUANT	862976	Start Time Offset (s)
