EXPLAIN
TAG	PWR800_DISCHARGE
TITLE	LABEL	PWR Discharge	Test Identifier
DATE	LABEL	10/15/2022	Date
TIME	LABEL	21:59:09	Time
NOTES	NOTES	1	Notes...
	
PSTAT	PSTAT	REF3000-21114	Potentiostat
CAPACITY	QUANT	5.30000E-002	Capacity (A-hr)
CELLTYPE	SELECTOR	1	Cell Type
WORKINGCONNECTION	SELECTOR	0	Working Connection
MAXDISCHARGETIME	VARIABLEANDUNITS	7.20000E+003	s	2.00000E+000	hour(s)	Max Discharge Time
DISCHARGEMODE	MULTIPARAM	0	1.00000E-001	Discharge Mode	Constant Current	Amp(s)
VOLTAGEFINISH	TWOPARAM	T	5.00000E-003	7.20000E+003	Voltage Finish	I (A) <	Max Time(s)
SAMPLETIME	QUANT	1.00000E+000	Sample Period (s)
DISCHARGESTOPAT1	MULTIPARAM	1	5.00000E-002	Stop At 1	|Voltage| < Limit	V
DISCHARGESTOPAT2	MULTIPARAM	0	0.00000E+000	Stop At 2	None	N/A
AESELECTOR	AESELECTOR	0x1	T	Set Limits	AE Channels
AESBHCSELECTOR	TOGGLE	F	Save Both Half Cells
IRCOMP	TOGGLE	F	IR Measure
EOC	QUANT	0.5513125	Open Circuit (V)
SEQUENCER	TOGGLE	TRUE	Run as Sequence
PSTATMODEL	IQUANT	5	Pstat Model
PSTATSECTION	LABEL	REF3000-21114	Pstat Section
PSTATSERIALNO	LABEL	21114	Pstat Serial Number
CTRLMODE	IQUANT	0	Control Mode
ELECTROMETER	IQUANT	0	RE=0 or CS=1
IESTAB	IQUANT	0	I/E Stability
CASPEED	IQUANT	4	Control Amp Speed
CONVENTION	IQUANT	1	Current Convention
ICHRANGE	IQUANT	2	Ich Range
ICHRANGEMODE	TOGGLE	T	Ich Auto Range
ICHOFFSETENABLE	TOGGLE	F	Ich Offset Enable
ICHOFFSET	QUANT	0	Ich Offset (V)
ICHFILTER	IQUANT	1	Ich Filter
VCHRANGE	IQUANT	3	Vch Range
VCHRANGEMODE	TOGGLE	T	Vch Auto Range
VCHOFFSETENABLE	TOGGLE	F	Vch Offset Enable
VCHOFFSET	QUANT	0	Vch Offset (V)
VCHFILTER	IQUANT	1	Vch Filter
ACHRANGE	IQUANT	2	Ach Range
ACHOFFSETENABLE	TOGGLE	F	Ach Offset Enable
ACHOFFSET	QUANT	0	Ach Offset (V)
ACHFILTER	IQUANT	1	Ach Filter
IERANGELOWERLIMIT	IQUANT	9	I/E Range Lower Limit
IERANGEMODE	TOGGLE	F	I/E AutoRange
IERANGE	IQUANT	9	I/E Range
POSFEEDENABLE	TOGGLE	F	Positive Feedback IR Comp
POSFEEDRESISTANCE	QUANT	0	Positive Feedback Resistance (ohm)
ACHSELECT	IQUANT	1	Ach Select
SENSECABLEID	IQUANT	13	Sense Cable ID
PWRCABLEID	IQUANT	13	Power Cable ID
DCCALDATE	LABEL		DC Calibration Date
ACCALDATE	LABEL		AC Calibration Date
THERMOSELECT	IQUANT	1	Thermo Select
FRAMEWORKVERSION	LABEL	7.8.6	Framework Version
INSTRUMENTVERSION	LABEL	4.50	Instrument Version
COMPLIANCEVOLTAGE	IQUANT	0	Compliance Voltage
CURVE	TABLE	138
	Pt	T	Vf	Im	Vu	Pwr	Sig	Ach	Temp	IERange	Over	Vf1	Vf2	Vf3	Vf4	Vf5	Vf6	Vf7	Vf8	Pwr1	Pwr2	Pwr3	Pwr4	Pwr5	Pwr6	Pwr7	Pwr8
	#	s	V	A	V	W	V	V	deg C	#	bits	V	V	V	V	V	V	V	V	W	W	W	W	W	W	W	W
	0	1	3.12713E-001	-1.00082E-001	0.00000E+000	-3.12970E-002	-9.94000E-001	3.57167E-002	2.99701E+001	11	...........	5.93989E-002	-4.18681E-003	5.76618E-001	6.12699E-001	-2.87299E-002	-3.89558E-002	6.67279E-001	-4.30881E-002	-5.94478E-003	4.19026E-004	-5.77093E-002	-6.13204E-002	2.87535E-003	3.89879E-003	-6.67829E-002	4.31236E-003
	1	2	2.18313E-001	-1.00083E-001	0.00000E+000	-2.18495E-002	-9.94000E-001	3.57662E-002	2.90033E+001	11	...........	5.94554E-002	-4.27861E-003	5.76671E-001	6.12794E-001	-2.87147E-002	-3.89654E-002	6.67379E-001	-4.31551E-002	-5.95050E-003	4.28218E-004	-5.77152E-002	-6.13305E-002	2.87387E-003	3.89979E-003	-6.67936E-002	4.31911E-003
	2	3	1.38621E-001	-1.00083E-001	0.00000E+000	-1.38736E-002	-9.94000E-001	3.56837E-002	2.79044E+001	11	...........	5.93165E-002	-4.32569E-003	5.76813E-001	6.12859E-001	-2.87318E-002	-3.89360E-002	6.67383E-001	-4.32506E-002	-5.93659E-003	4.32929E-004	-5.77293E-002	-6.13369E-002	2.87557E-003	3.89684E-003	-6.67938E-002	4.32865E-003
	3	3.78333	7.51097E-002	-1.00083E-001	0.00000E+000	-7.51723E-003	-9.94000E-001	3.56048E-002	2.76008E+001	11	...........	5.91911E-002	-4.30213E-003	5.76811E-001	6.12799E-001	-2.87129E-002	-3.89347E-002	6.67362E-001	-4.33264E-002	-5.92405E-003	4.30571E-004	-5.77292E-002	-6.13310E-002	2.87369E-003	3.89672E-003	-6.67918E-002	4.33625E-003
	4	4	4.93155E-002	-9.43750E-002	0.00000E+000	-4.65415E-003	-9.37243E-001	3.57488E-002	2.75562E+001	11	...........	5.94942E-002	-4.30192E-003	5.76874E-001	6.12751E-001	-2.87000E-002	-3.89397E-002	6.67306E-001	-4.32346E-002	-5.61477E-003	4.05994E-004	-5.44425E-002	-5.78284E-002	2.70856E-003	3.67494E-003	-6.29770E-002	4.08027E-003
	5	5	4.96117E-002	-7.34301E-002	0.00000E+000	-3.64299E-003	-7.28995E-001	3.57163E-002	2.83363E+001	11	...........	5.96703E-002	-4.27736E-003	5.76894E-001	6.12559E-001	-2.87147E-002	-3.89286E-002	6.67328E-001	-4.31289E-002	-4.38160E-003	3.14087E-004	-4.23614E-002	-4.49803E-002	2.10853E-003	2.85853E-003	-4.90020E-002	3.16696E-003
	6	6	4.97883E-002	-5.39374E-002	0.00000E+000	-2.68545E-003	-5.35183E-001	3.58924E-002	2.95590E+001	11	...........	5.96717E-002	-4.32708E-003	5.76785E-001	6.12422E-001	-2.87154E-002	-3.89181E-002	6.67463E-001	-4.31549E-002	-3.21853E-003	2.33391E-004	-3.11103E-002	-3.30324E-002	1.54883E-003	2.09914E-003	-3.60012E-002	2.32766E-003
	7	7	4.98654E-002	-4.36859E-002	0.00000E+000	-2.17842E-003	-4.33254E-001	3.59566E-002	3.01965E+001	11	...........	5.97512E-002	-4.32194E-003	5.76837E-001	6.12297E-001	-2.86649E-002	-3.89569E-002	6.67459E-001	-4.31518E-002	-2.61029E-003	1.88808E-004	-2.51996E-002	-2.67487E-002	1.25225E-003	1.70187E-003	-2.91585E-002	1.88512E-003
	8	8	4.99000E-002	-3.73272E-002	0.00000E+000	-1.86263E-003	-3.70036E-001	3.60063E-002	3.03667E+001	11	...........	5.98214E-002	-4.33097E-003	5.76908E-001	6.12302E-001	-2.86867E-002	-3.89828E-002	6.67419E-001	-4.31753E-002	-2.23296E-003	1.61663E-004	-2.15343E-002	-2.28555E-002	1.07079E-003	1.45512E-003	-2.49129E-002	1.61161E-003
	9	9	4.99292E-002	-3.32313E-002	0.00000E+000	-1.65921E-003	-3.29301E-001	3.60667E-002	3.09883E+001	11	...........	5.99333E-002	-4.34847E-003	5.77130E-001	6.12314E-001	-2.87007E-002	-3.89699E-002	6.67529E-001	-4.31350E-002	-1.99166E-003	1.44505E-004	-1.91788E-002	-2.03479E-002	9.53760E-004	1.29502E-003	-2.21828E-002	1.43343E-003
	10	10	4.99328E-002	-3.02927E-002	0.00000E+000	-1.51260E-003	-3.00103E-001	3.60831E-002	3.11584E+001	11	...........	5.99396E-002	-4.28681E-003	5.77081E-001	6.12450E-001	-2.87028E-002	-3.89275E-002	6.67560E-001	-4.33037E-002	-1.81573E-003	1.29859E-004	-1.74813E-002	-1.85527E-002	8.69483E-004	1.17922E-003	-2.02222E-002	1.31179E-003
	11	11	4.99421E-002	-2.80322E-002	0.00000E+000	-1.39999E-003	-2.77629E-001	3.61232E-002	3.13475E+001	11	...........	6.00607E-002	-4.30472E-003	5.77099E-001	6.12374E-001	-2.87106E-002	-3.88847E-002	6.67484E-001	-4.32244E-002	-1.68363E-003	1.20671E-004	-1.61773E-002	-1.71662E-002	8.04820E-004	1.09002E-003	-1.87110E-002	1.21168E-003
	12	12	4.99420E-002	-2.61926E-002	0.00000E+000	-1.30811E-003	-2.59333E-001	3.61111E-002	3.07932E+001	11	...........	6.00196E-002	-4.34542E-003	5.77244E-001	6.12405E-001	-2.86849E-002	-3.89015E-002	6.67395E-001	-4.32226E-002	-1.57207E-003	1.13818E-004	-1.51195E-002	-1.60405E-002	7.51331E-004	1.01893E-003	-1.74808E-002	1.13211E-003
	13	13	4.99616E-002	-2.49876E-002	0.00000E+000	-1.24842E-003	-2.47345E-001	3.62296E-002	3.15527E+001	11	...........	6.02021E-002	-4.36903E-003	5.77177E-001	6.12395E-001	-2.86360E-002	-3.89539E-002	6.67411E-001	-4.32596E-002	-1.50431E-003	1.09172E-004	-1.44223E-002	-1.53023E-002	7.15545E-004	9.73366E-004	-1.66770E-002	1.08095E-003
	14	14	4.99570E-002	-2.41437E-002	0.00000E+000	-1.20615E-003	-2.38954E-001	3.62096E-002	3.20852E+001	11	...........	6.01715E-002	-4.38694E-003	5.77052E-001	6.12379E-001	-2.86856E-002	-3.89854E-002	6.67556E-001	-4.31410E-002	-1.45277E-003	1.05917E-004	-1.39322E-002	-1.47851E-002	6.92577E-004	9.41254E-004	-1.61173E-002	1.04158E-003
	15	15	4.99492E-002	-2.33136E-002	0.00000E+000	-1.16450E-003	-2.30707E-001	3.63373E-002	3.15880E+001	11	...........	6.04192E-002	-4.37972E-003	5.76930E-001	6.12401E-001	-2.86968E-002	-3.89711E-002	6.67533E-001	-4.30832E-002	-1.40859E-003	1.02107E-004	-1.34503E-002	-1.42773E-002	6.69026E-004	9.08557E-004	-1.55626E-002	1.00442E-003
	16	16	4.99656E-002	-2.24081E-002	0.00000E+000	-1.11963E-003	-2.21693E-001	3.63147E-002	3.12431E+001	11	...........	6.03315E-002	-4.40111E-003	5.76920E-001	6.12541E-001	-2.86751E-002	-3.89375E-002	6.67392E-001	-4.30983E-002	-1.35191E-003	9.86204E-005	-1.29277E-002	-1.37259E-002	6.42555E-004	8.72514E-004	-1.49550E-002	9.65751E-004
	17	17	4.99613E-002	-2.18316E-002	0.00000E+000	-1.09073E-003	-2.15973E-001	3.62631E-002	3.19177E+001	11	...........	6.02817E-002	-4.39778E-003	5.77072E-001	6.12615E-001	-2.86710E-002	-3.89343E-002	6.67471E-001	-4.30731E-002	-1.31604E-003	9.60105E-005	-1.25984E-002	-1.33743E-002	6.25933E-004	8.49998E-004	-1.45719E-002	9.40353E-004
	18	18	4.99632E-002	-2.14601E-002	0.00000E+000	-1.07221E-003	-2.12276E-001	3.63663E-002	3.21684E+001	11	...........	6.04422E-002	-4.40972E-003	5.76997E-001	6.12543E-001	-2.86394E-002	-3.89614E-002	6.67630E-001	-4.30812E-002	-1.29709E-003	9.46329E-005	-1.23824E-002	-1.31452E-002	6.14604E-004	8.36114E-004	-1.43274E-002	9.24526E-004
	19	19	4.99620E-002	-2.09735E-002	0.00000E+000	-1.04788E-003	-2.07427E-001	3.64183E-002	3.20963E+001	11	...........	6.05390E-002	-4.36875E-003	5.77007E-001	6.12522E-001	-2.86319E-002	-3.89744E-002	6.67578E-001	-4.31468E-002	-1.26972E-003	9.16281E-005	-1.21019E-002	-1.28467E-002	6.00513E-004	8.17431E-004	-1.40015E-002	9.04941E-004
	20	20	4.99590E-002	-2.02812E-002	0.00000E+000	-1.01323E-003	-2.00553E-001	3.63191E-002	3.19307E+001	11	...........	6.05083E-002	-4.28042E-003	5.77083E-001	6.12527E-001	-2.86576E-002	-3.90021E-002	6.67582E-001	-4.31207E-002	-1.22718E-003	8.68121E-005	-1.17040E-002	-1.24228E-002	5.81212E-004	7.91010E-004	-1.35394E-002	8.74540E-004
	21	21	4.99625E-002	-1.98477E-002	0.00000E+000	-9.91644E-004	-1.96235E-001	3.62084E-002	3.14045E+001	11	...........	6.04224E-002	-4.33014E-003	5.77218E-001	6.12621E-001	-2.86628E-002	-3.89878E-002	6.67611E-001	-4.31607E-002	-1.19925E-003	8.59435E-005	-1.14565E-002	-1.21592E-002	5.68891E-004	7.73819E-004	-1.32506E-002	8.56642E-004
	22	22	4.99673E-002	-1.96556E-002	0.00000E+000	-9.82139E-004	-1.94317E-001	3.63523E-002	3.24225E+001	11	...........	6.07142E-002	-4.33917E-003	5.77270E-001	6.12629E-001	-2.86862E-002	-3.89289E-002	6.67736E-001	-4.32014E-002	-1.19337E-003	8.52890E-005	-1.13466E-002	-1.20416E-002	5.63846E-004	7.65171E-004	-1.31248E-002	8.49150E-004
	23	23	4.99604E-002	-1.92746E-002	0.00000E+000	-9.62969E-004	-1.90531E-001	3.63357E-002	3.20414E+001	11	...........	6.06957E-002	-4.31278E-003	5.77209E-001	6.12621E-001	-2.86749E-002	-3.89200E-002	6.67673E-001	-4.31940E-002	-1.16989E-003	8.31273E-005	-1.11255E-002	-1.18081E-002	5.52698E-004	7.50169E-004	-1.28692E-002	8.32550E-004
	24	24	4.99649E-002	-1.89588E-002	0.00000E+000	-9.47275E-004	-1.87406E-001	3.63657E-002	3.24738E+001	11	...........	6.07122E-002	-4.31194E-003	5.77166E-001	6.12502E-001	-2.86493E-002	-3.89304E-002	6.67529E-001	-4.31618E-002	-1.15103E-003	8.17493E-005	-1.09424E-002	-1.16123E-002	5.43156E-004	7.38074E-004	-1.26555E-002	8.18296E-004
	25	25	4.99626E-002	-1.85148E-002	0.00000E+000	-9.25047E-004	-1.82986E-001	3.63055E-002	3.17995E+001	11	...........	6.06131E-002	-4.31111E-003	5.77020E-001	6.12531E-001	-2.86561E-002	-3.89358E-002	6.67563E-001	-4.31736E-002	-1.12224E-003	7.98193E-005	-1.06834E-002	-1.13409E-002	5.30562E-004	7.20889E-004	-1.23598E-002	7.99350E-004
	26	26	4.99651E-002	-1.81210E-002	0.00000E+000	-9.05421E-004	-1.79079E-001	3.62539E-002	3.16507E+001	11	...........	6.05186E-002	-4.31417E-003	5.76984E-001	6.12391E-001	-2.86856E-002	-3.89436E-002	6.67612E-001	-4.31285E-002	-1.09666E-003	7.81772E-005	-1.04556E-002	-1.10972E-002	5.19812E-004	7.05699E-004	-1.20978E-002	7.81533E-004
	27	27	4.99656E-002	-1.80234E-002	0.00000E+000	-9.00548E-004	-1.78112E-001	3.64909E-002	3.28128E+001	11	...........	6.08796E-002	-4.34069E-003	5.76693E-001	6.12471E-001	-2.86733E-002	-3.89111E-002	6.67630E-001	-4.31499E-002	-1.09725E-003	7.82339E-005	-1.03939E-002	-1.10388E-002	5.16790E-004	7.01309E-004	-1.20329E-002	7.77705E-004
	28	28	4.99583E-002	-1.77359E-002	0.00000E+000	-8.86056E-004	-1.75247E-001	3.64563E-002	3.22025E+001	11	...........	6.08601E-002	-4.32556E-003	5.76632E-001	6.12432E-001	-2.86675E-002	-3.88619E-002	6.67610E-001	-4.32457E-002	-1.07941E-003	7.67177E-005	-1.02271E-002	-1.08620E-002	5.08445E-004	6.89252E-004	-1.18407E-002	7.67002E-004
	29	29	4.99682E-002	-1.72106E-002	0.00000E+000	-8.59985E-004	-1.70011E-001	3.63643E-002	3.24656E+001	11	...........	6.07121E-002	-4.34528E-003	5.76721E-001	6.12699E-001	-2.86912E-002	-3.88192E-002	6.67459E-001	-4.32047E-002	-1.04489E-003	7.47850E-005	-9.92573E-003	-1.05449E-002	4.93795E-004	6.68103E-004	-1.14874E-002	7.43581E-004
	30	30	4.99648E-002	-1.70174E-002	0.00000E+000	-8.50271E-004	-1.68085E-001	3.63751E-002	3.17475E+001	11	...........	6.07308E-002	-4.34167E-003	5.76703E-001	6.12717E-001	-2.86622E-002	-3.88331E-002	6.67464E-001	-4.32543E-002	-1.03348E-003	7.38839E-005	-9.81399E-003	-1.04268E-002	4.87757E-004	6.60838E-004	-1.13585E-002	7.36076E-004
	31	31	4.99668E-002	-1.68485E-002	0.00000E+000	-8.41865E-004	-1.66401E-001	3.64949E-002	3.24202E+001	11	...........	6.09043E-002	-4.30042E-003	5.76772E-001	6.12622E-001	-2.86700E-002	-3.88603E-002	6.67578E-001	-4.31428E-002	-1.02614E-003	7.24555E-005	-9.71774E-003	-1.03217E-002	4.83046E-004	6.54736E-004	-1.12477E-002	7.26890E-004
	32	32	4.99635E-002	-1.66199E-002	0.00000E+000	-8.30389E-004	-1.64151E-001	3.64709E-002	3.29343E+001	11	...........	6.08610E-002	-4.34861E-003	5.76897E-001	6.12803E-001	-2.87225E-002	-3.88757E-002	6.67633E-001	-4.30997E-002	-1.01150E-003	7.22735E-005	-9.58797E-003	-1.01847E-002	4.77365E-004	6.46110E-004	-1.10960E-002	7.16313E-004
	33	33	4.99621E-002	-1.63589E-002	0.00000E+000	-8.17327E-004	-1.61553E-001	3.64637E-002	3.21432E+001	11	...........	6.08506E-002	-4.36181E-003	5.76897E-001	6.12905E-001	-2.86875E-002	-3.88500E-002	6.67586E-001	-4.30862E-002	-9.95450E-004	7.13545E-005	-9.43743E-003	-1.00265E-002	4.69297E-004	6.35545E-004	-1.09210E-002	7.04845E-004
	34	34	4.99692E-002	-1.61434E-002	0.00000E+000	-8.06670E-004	-1.59405E-001	3.65479E-002	3.29976E+001	11	...........	6.09972E-002	-4.37167E-003	5.76894E-001	6.12895E-001	-2.86874E-002	-3.88232E-002	6.67697E-001	-4.31615E-002	-9.84700E-004	7.05734E-005	-9.31301E-003	-9.89418E-003	4.63110E-004	6.26737E-004	-1.07789E-002	6.96772E-004
	35	35	4.99652E-002	-1.58738E-002	0.00000E+000	-7.93137E-004	-1.56718E-001	3.64265E-002	3.23025E+001	11	...........	6.08085E-002	-4.31083E-003	5.76903E-001	6.12982E-001	-2.86740E-002	-3.88472E-002	6.67745E-001	-4.32592E-002	-9.65261E-004	6.84293E-005	-9.15764E-003	-9.73035E-003	4.55166E-004	6.16653E-004	-1.05997E-002	6.86687E-004
	36	36	4.99643E-002	-1.56225E-002	0.00000E+000	-7.80565E-004	-1.54219E-001	3.64748E-002	3.22925E+001	11	...........	6.09082E-002	-4.25250E-003	5.76807E-001	6.13031E-001	-2.86632E-002	-3.88457E-002	6.67713E-001	-4.31424E-002	-9.51536E-004	6.64345E-005	-9.01115E-003	-9.57705E-003	4.47790E-004	6.06865E-004	-1.04313E-002	6.73990E-004
	37	37	4.99658E-002	-1.54653E-002	0.00000E+000	-7.72733E-004	-1.52663E-001	3.65931E-002	3.33374E+001	11	...........	6.10585E-002	-4.30500E-003	5.76669E-001	6.12984E-001	-2.87381E-002	-3.88589E-002	6.67616E-001	-4.32356E-002	-9.44285E-004	6.65780E-005	-8.91834E-003	-9.47995E-003	4.44442E-004	6.00963E-004	-1.03249E-002	6.68649E-004
	38	38	4.99632E-002	-1.52631E-002	0.00000E+000	-7.62591E-004	-1.50652E-001	3.65356E-002	3.27347E+001	11	...........	6.09678E-002	-4.30333E-003	5.76612E-001	6.12993E-001	-2.87631E-002	-3.88187E-002	6.67616E-001	-4.33040E-002	-9.30555E-004	6.56820E-005	-8.80086E-003	-9.35615E-003	4.39012E-004	5.92493E-004	-1.01899E-002	6.60952E-004
	39	39	4.99649E-002	-1.49930E-002	0.00000E+000	-7.49122E-004	-1.47961E-001	3.65667E-002	3.27312E+001	11	...........	6.10251E-002	-4.36167E-003	5.76581E-001	6.12952E-001	-2.87578E-002	-3.88178E-002	6.67543E-001	-4.34149E-002	-9.14949E-004	6.53944E-005	-8.64466E-003	-9.18998E-003	4.31165E-004	5.81994E-004	-1.00085E-002	6.50918E-004
	40	40	4.99673E-002	-1.48807E-002	0.00000E+000	-7.43550E-004	-1.46836E-001	3.66184E-002	3.29966E+001	11	...........	6.11093E-002	-4.37653E-003	5.76507E-001	6.12852E-001	-2.87367E-002	-3.88676E-002	6.67629E-001	-4.34004E-002	-9.09350E-004	6.51259E-005	-8.57884E-003	-9.11968E-003	4.27622E-004	5.78378E-004	-9.93480E-003	6.45829E-004
	41	41	4.99651E-002	-1.45101E-002	0.00000E+000	-7.24998E-004	-1.43141E-001	3.64230E-002	3.27361E+001	11	...........	6.08174E-002	-4.36819E-003	5.76497E-001	6.12885E-001	-2.87862E-002	-3.88300E-002	6.67834E-001	-4.34987E-002	-8.82465E-004	6.33829E-005	-8.36502E-003	-8.89301E-003	4.17691E-004	5.63426E-004	-9.69033E-003	6.31170E-004
	42	42	4.99675E-002	-1.44379E-002	0.00000E+000	-7.21426E-004	-1.42419E-001	3.66167E-002	3.28209E+001	11	...........	6.11322E-002	-4.32375E-003	5.76573E-001	6.12801E-001	-2.87903E-002	-3.88078E-002	6.67829E-001	-4.33617E-002	-8.82621E-004	6.24259E-005	-8.32450E-003	-8.84756E-003	4.15671E-004	5.60303E-004	-9.64204E-003	6.26051E-004
	43	43	4.99671E-002	-1.42435E-002	0.00000E+000	-7.11704E-004	-1.40495E-001	3.66171E-002	3.29327E+001	11	...........	6.11108E-002	-4.36653E-003	5.76572E-001	6.12746E-001	-2.87639E-002	-3.88118E-002	6.67792E-001	-4.31918E-002	-8.70429E-004	6.21944E-005	-8.21237E-003	-8.72762E-003	4.09697E-004	5.52814E-004	-9.51166E-003	6.15200E-004
	44	44	4.99622E-002	-1.39185E-002	0.00000E+000	-6.95400E-004	-1.37276E-001	3.65482E-002	3.24816E+001	11	...........	6.10228E-002	-4.38347E-003	5.76437E-001	6.12881E-001	-2.87850E-002	-3.88396E-002	6.67747E-001	-4.32592E-002	-8.49347E-004	6.10115E-005	-8.02315E-003	-8.53040E-003	4.00645E-004	5.40590E-004	-9.29405E-003	6.02104E-004
	45	45	4.99680E-002	-1.37560E-002	0.00000E+000	-6.87359E-004	-1.35663E-001	3.65548E-002	3.23801E+001	11	...........	6.10093E-002	-4.40014E-003	5.76477E-001	6.12877E-001	-2.88321E-002	-3.88411E-002	6.67741E-001	-4.31943E-002	-8.39243E-004	6.05283E-005	-7.93001E-003	-8.43073E-003	3.96614E-004	5.34298E-004	-9.18544E-003	5.94180E-004
	46	46	4.99647E-002	-1.37016E-002	0.00000E+000	-6.84596E-004	-1.35123E-001	3.67153E-002	3.31958E+001	11	...........	6.12553E-002	-4.39847E-003	5.76467E-001	6.12893E-001	-2.88475E-002	-3.87729E-002	6.67773E-001	-4.32333E-002	-8.39296E-004	6.02661E-005	-7.89852E-003	-8.39762E-003	3.95257E-004	5.31251E-004	-9.14956E-003	5.92366E-004
	47	47	4.99635E-002	-1.34015E-002	0.00000E+000	-6.69585E-004	-1.32133E-001	3.66293E-002	3.23746E+001	11	...........	6.11389E-002	-4.36931E-003	5.76373E-001	6.12931E-001	-2.87682E-002	-3.87900E-002	6.67780E-001	-4.32218E-002	-8.19352E-004	5.85552E-005	-7.72425E-003	-8.21419E-003	3.85537E-004	5.19844E-004	-8.94925E-003	5.79236E-004
	48	48	4.99652E-002	-1.31532E-002	0.00000E+000	-6.57204E-004	-1.29659E-001	3.66318E-002	3.20613E+001	11	...........	6.11576E-002	-4.33083E-003	5.76442E-001	6.12916E-001	-2.88229E-002	-3.88058E-002	6.67648E-001	-4.33532E-002	-8.04421E-004	5.69645E-005	-7.58209E-003	-8.06184E-003	3.79115E-004	5.10423E-004	-8.78174E-003	5.70235E-004
	49	49	4.99683E-002	-1.30728E-002	0.00000E+000	-6.53225E-004	-1.28859E-001	3.66553E-002	3.27830E+001	11	...........	6.11679E-002	-4.37319E-003	5.76452E-001	6.12885E-001	-2.88279E-002	-3.87983E-002	6.67657E-001	-4.32682E-002	-7.99634E-004	5.71698E-005	-7.53583E-003	-8.01210E-003	3.76861E-004	5.07202E-004	-8.72812E-003	5.65635E-004
	50	50	4.99658E-002	-1.29578E-002	0.00000E+000	-6.47450E-004	-1.27727E-001	3.66021E-002	3.31935E+001	11	...........	6.10833E-002	-4.38694E-003	5.76536E-001	6.12942E-001	-2.88375E-002	-3.87792E-002	6.67655E-001	-4.32825E-002	-7.91508E-004	5.68454E-005	-7.47066E-003	-7.94241E-003	3.73672E-004	5.02495E-004	-8.65137E-003	5.60848E-004
	51	51	4.99667E-002	-1.27956E-002	0.00000E+000	-6.39354E-004	-1.26120E-001	3.67425E-002	3.34746E+001	11	...........	6.13364E-002	-4.36708E-003	5.76535E-001	6.12989E-001	-2.87876E-002	-3.88237E-002	6.67719E-001	-4.32715E-002	-7.84836E-004	5.58795E-005	-7.37711E-003	-7.84357E-003	3.68355E-004	4.96773E-004	-8.54386E-003	5.53685E-004
	52	52	4.99642E-002	-1.25773E-002	0.00000E+000	-6.28415E-004	-1.23945E-001	3.66389E-002	3.30434E+001	11	...........	6.11676E-002	-4.33431E-003	5.76570E-001	6.13054E-001	-2.88086E-002	-3.88531E-002	6.67692E-001	-4.31689E-002	-7.69324E-004	5.45139E-005	-7.25169E-003	-7.71056E-003	3.62335E-004	4.88667E-004	-8.39776E-003	5.42948E-004
	53	53	4.99649E-002	-1.23845E-002	0.00000E+000	-6.18789E-004	-1.22021E-001	3.67047E-002	3.26268E+001	11	...........	6.12690E-002	-4.33194E-003	5.76675E-001	6.13113E-001	-2.88617E-002	-3.88692E-002	6.67713E-001	-4.31244E-002	-7.58784E-004	5.36488E-005	-7.14181E-003	-7.59307E-003	3.57436E-004	4.81374E-004	-8.26926E-003	5.34073E-004
	54	54	4.99690E-002	-1.22911E-002	0.00000E+000	-6.14174E-004	-1.21091E-001	3.67697E-002	3.32499E+001	11	...........	6.13604E-002	-4.35069E-003	5.76809E-001	6.13365E-001	-2.88335E-002	-3.88854E-002	6.67609E-001	-4.32154E-002	-7.54187E-004	5.34748E-005	-7.08962E-003	-7.53893E-003	3.54395E-004	4.77945E-004	-8.20565E-003	5.31165E-004
	55	55	4.99654E-002	-1.21205E-002	0.00000E+000	-6.05604E-004	-1.19389E-001	3.66247E-002	3.35812E+001	11	...........	6.11401E-002	-4.36722E-003	5.76962E-001	6.13431E-001	-2.88328E-002	-3.88461E-002	6.67492E-001	-4.32678E-002	-7.41048E-004	5.29328E-005	-6.99306E-003	-7.43508E-003	3.49467E-004	4.70833E-004	-8.09032E-003	5.24426E-004
	56	56	4.99635E-002	-1.18939E-002	0.00000E+000	-5.94263E-004	-1.17128E-001	3.67812E-002	3.28976E+001	11	...........	6.13931E-002	-4.37417E-003	5.76856E-001	6.13473E-001	-2.88808E-002	-3.87896E-002	6.67592E-001	-4.32362E-002	-7.30205E-004	5.20261E-005	-6.86109E-003	-7.29661E-003	3.43507E-004	4.61361E-004	-7.94030E-003	5.14249E-004
	57	57	4.99689E-002	-1.16963E-002	0.00000E+000	-5.84450E-004	-1.15160E-001	3.66247E-002	3.24834E+001	11	...........	6.11351E-002	-4.36375E-003	5.76778E-001	6.13323E-001	-2.88407E-002	-3.88153E-002	6.67496E-001	-4.32372E-002	-7.15053E-004	5.10396E-005	-6.74616E-003	-7.17360E-003	3.37329E-004	4.53994E-004	-7.80721E-003	5.05714E-004
	58	58	4.99660E-002	-1.16767E-002	0.00000E+000	-5.83440E-004	-1.14966E-001	3.67669E-002	3.35258E+001	11	...........	6.13725E-002	-4.37250E-003	5.76750E-001	6.13126E-001	-2.88299E-002	-3.88614E-002	6.67509E-001	-4.32785E-002	-7.16630E-004	5.10565E-005	-6.73455E-003	-7.15931E-003	3.36638E-004	4.53774E-004	-7.79432E-003	5.05351E-004
	59	59	4.99679E-002	-1.15585E-002	0.00000E+000	-5.77552E-004	-1.13812E-001	3.67877E-002	3.33524E+001	11	...........	6.13929E-002	-4.37000E-003	5.76805E-001	6.13034E-001	-2.88662E-002	-3.88351E-002	6.67462E-001	-4.32039E-002	-7.09608E-004	5.05105E-005	-6.66698E-003	-7.08573E-003	3.33650E-004	4.48875E-004	-7.71484E-003	4.99371E-004
	60	60	4.99606E-002	-1.13249E-002	0.00000E+000	-5.65800E-004	-1.11490E-001	3.67232E-002	3.38222E+001	11	...........	6.12983E-002	-4.34917E-003	5.76914E-001	6.12962E-001	-2.88418E-002	-3.87915E-002	6.67498E-001	-4.32621E-002	-6.94198E-004	4.92539E-005	-6.53350E-003	-6.94174E-003	3.26631E-004	4.39311E-004	-7.55936E-003	4.89939E-004
	61	61	4.99671E-002	-1.11316E-002	0.00000E+000	-5.56214E-004	-1.09565E-001	3.67467E-002	3.25073E+001	11	...........	6.13253E-002	-4.33611E-003	5.77166E-001	6.12963E-001	-2.88661E-002	-3.88050E-002	6.67541E-001	-4.31529E-002	-6.82649E-004	4.82679E-005	-6.42480E-003	-6.82327E-003	3.21326E-004	4.31962E-004	-7.43081E-003	4.80362E-004
	62	62	4.99700E-002	-1.10684E-002	0.00000E+000	-5.53091E-004	-1.08928E-001	3.68449E-002	3.35420E+001	11	...........	6.15082E-002	-4.30667E-003	5.77274E-001	6.12951E-001	-2.88158E-002	-3.88139E-002	6.67447E-001	-4.31235E-002	-6.80800E-004	4.76681E-005	-6.38953E-003	-6.78442E-003	3.18947E-004	4.29610E-004	-7.38761E-003	4.77310E-004
	63	63	4.99658E-002	-1.09777E-002	0.00000E+000	-5.48511E-004	-1.08025E-001	3.66580E-002	3.32588E+001	11	...........	6.11799E-002	-4.26667E-003	5.77272E-001	6.13009E-001	-2.88619E-002	-3.88193E-002	6.67429E-001	-4.31086E-002	-6.71616E-004	4.68383E-005	-6.33714E-003	-6.72944E-003	3.16839E-004	4.26148E-004	-7.32686E-003	4.73234E-004
	64	64	4.99665E-002	-1.08090E-002	0.00000E+000	-5.40088E-004	-1.06348E-001	3.68747E-002	3.32360E+001	11	...........	6.15578E-002	-4.27361E-003	5.77169E-001	6.12988E-001	-2.88501E-002	-3.88117E-002	6.67411E-001	-4.32458E-002	-6.65378E-004	4.61935E-005	-6.23862E-003	-6.62579E-003	3.11841E-004	4.19515E-004	-7.21404E-003	4.67444E-004
	65	65	4.99652E-002	-1.06239E-002	0.00000E+000	-5.30823E-004	-1.04503E-001	3.67690E-002	3.31186E+001	11	...........	6.13567E-002	-4.29444E-003	5.77280E-001	6.12934E-001	-2.88696E-002	-3.88136E-002	6.67364E-001	-4.32333E-002	-6.51844E-004	4.56235E-005	-6.13293E-003	-6.51172E-003	3.06706E-004	4.12350E-004	-7.08998E-003	4.59305E-004
	66	66	4.99669E-002	-1.04615E-002	0.00000E+000	-5.22730E-004	-1.02905E-001	3.67494E-002	3.27649E+001	11	...........	6.13350E-002	-4.31778E-003	5.77339E-001	6.12935E-001	-2.88118E-002	-3.88486E-002	6.67516E-001	-4.32549E-002	-6.41657E-004	4.51705E-005	-6.03985E-003	-6.41223E-003	3.01415E-004	4.06416E-004	-6.98323E-003	4.52512E-004
	67	67	4.99679E-002	-1.04187E-002	0.00000E+000	-5.20602E-004	-1.02475E-001	3.68253E-002	3.36061E+001	11	...........	6.14737E-002	-4.35347E-003	5.77369E-001	6.12861E-001	-2.88010E-002	-3.88396E-002	6.67633E-001	-4.33864E-002	-6.40478E-004	4.53576E-005	-6.01545E-003	-6.38523E-003	3.00069E-004	4.04659E-004	-6.95589E-003	4.52031E-004
	68	68	4.99655E-002	-1.03020E-002	0.00000E+000	-5.14742E-004	-1.01338E-001	3.67187E-002	3.32291E+001	11	...........	6.12961E-002	-4.35486E-003	5.77296E-001	6.12731E-001	-2.88028E-002	-3.88344E-002	6.67648E-001	-4.34349E-002	-6.31470E-004	4.48636E-005	-5.94727E-003	-6.31233E-003	2.96725E-004	4.00071E-004	-6.87808E-003	4.47464E-004
	69	69	4.99672E-002	-1.01972E-002	0.00000E+000	-5.09528E-004	-1.00311E-001	3.69737E-002	3.36286E+001	11	...........	6.16961E-002	-4.36486E-003	5.77246E-001	6.12473E-001	-2.87651E-002	-3.88550E-002	6.67581E-001	-4.34681E-002	-6.29130E-004	4.45095E-005	-5.88632E-003	-6.24553E-003	2.93325E-004	3.96214E-004	-6.80748E-003	4.43254E-004
	70	70	4.99660E-002	-1.00462E-002	0.00000E+000	-5.01969E-004	-9.88007E-002	3.67711E-002	3.29622E+001	11	...........	6.13594E-002	-4.37792E-003	5.77281E-001	6.12204E-001	-2.88196E-002	-3.88856E-002	6.67494E-001	-4.33086E-002	-6.16431E-004	4.39815E-005	-5.79950E-003	-6.15034E-003	2.89528E-004	3.90653E-004	-6.70579E-003	4.35088E-004
	71	71	4.99665E-002	-9.91341E-003	0.00000E+000	-4.95338E-004	-9.74800E-002	3.68569E-002	3.37119E+001	11	...........	6.15185E-002	-4.34681E-003	5.77356E-001	6.12275E-001	-2.88454E-002	-3.88562E-002	6.67544E-001	-4.33601E-002	-6.09858E-004	4.30916E-005	-5.72357E-003	-6.06973E-003	2.85956E-004	3.85198E-004	-6.61763E-003	4.29847E-004
	72	72	4.99663E-002	-9.83071E-003	0.00000E+000	-4.91205E-004	-9.66580E-002	3.68783E-002	3.35640E+001	11	...........	6.15585E-002	-4.34736E-003	5.77372E-001	6.12331E-001	-2.87962E-002	-3.89104E-002	6.67513E-001	-4.33662E-002	-6.05164E-004	4.27377E-005	-5.67598E-003	-6.01965E-003	2.83088E-004	3.82517E-004	-6.56213E-003	4.26321E-004
	73	73	4.99671E-002	-9.70363E-003	0.00000E+000	-4.84862E-004	-9.53867E-002	3.69144E-002	3.28918E+001	11	...........	6.16044E-002	-4.34194E-003	5.77372E-001	6.12290E-001	-2.88407E-002	-3.89432E-002	6.67539E-001	-4.33218E-002	-5.97787E-004	4.21326E-005	-5.60260E-003	-5.94144E-003	2.79859E-004	3.77890E-004	-6.47755E-003	4.20379E-004
	74	74	4.99654E-002	-9.55235E-003	0.00000E+000	-4.77287E-004	-9.38767E-002	3.67704E-002	3.32685E+001	11	...........	6.13721E-002	-4.32958E-003	5.77105E-001	6.12179E-001	-2.88661E-002	-3.89126E-002	6.67448E-001	-4.33183E-002	-5.86248E-004	4.13577E-005	-5.51271E-003	-5.84775E-003	2.75739E-004	3.71707E-004	-6.37570E-003	4.13792E-004
	75	75	4.99672E-002	-9.50631E-003	0.00000E+000	-4.75004E-004	-9.34213E-002	3.68720E-002	3.37609E+001	11	...........	6.15601E-002	-4.34486E-003	5.77050E-001	6.12195E-001	-2.88242E-002	-3.88893E-002	6.67460E-001	-4.32085E-002	-5.85210E-004	4.13036E-005	-5.48562E-003	-5.81972E-003	2.74012E-004	3.69694E-004	-6.34508E-003	4.10753E-004
	76	76	4.99672E-002	-9.36393E-003	0.00000E+000	-4.67890E-004	-9.20000E-002	3.68857E-002	3.32725E+001	11	...........	6.15797E-002	-4.30181E-003	5.76961E-001	6.12181E-001	-2.88521E-002	-3.89200E-002	6.67414E-001	-4.31679E-002	-5.76628E-004	4.02818E-005	-5.40262E-003	-5.73242E-003	2.70169E-004	3.64444E-004	-6.24962E-003	4.04221E-004
	77	77	4.99668E-002	-9.28576E-003	0.00000E+000	-4.63979E-004	-9.12133E-002	3.69295E-002	3.36691E+001	11	...........	6.16232E-002	-4.34611E-003	5.76843E-001	6.12030E-001	-2.88601E-002	-3.88811E-002	6.67568E-001	-4.31026E-002	-5.72218E-004	4.03569E-005	-5.35643E-003	-5.68316E-003	2.67988E-004	3.61040E-004	-6.19887E-003	4.00241E-004
	78	78	4.99668E-002	-9.01459E-003	0.00000E+000	-4.50430E-004	-8.85327E-002	3.68142E-002	3.27915E+001	11	...........	6.14386E-002	-4.34333E-003	5.76952E-001	6.11983E-001	-2.88821E-002	-3.88518E-002	6.67581E-001	-4.32590E-002	-5.53844E-004	3.91534E-005	-5.20099E-003	-5.51678E-003	2.60360E-004	3.50233E-004	-6.01797E-003	3.89962E-004
	79	79	4.99658E-002	-8.91882E-003	0.00000E+000	-4.45636E-004	-8.75847E-002	3.68015E-002	3.25285E+001	11	...........	6.14344E-002	-4.34014E-003	5.76961E-001	6.12119E-001	-2.88644E-002	-3.88925E-002	6.67647E-001	-4.33147E-002	-5.47923E-004	3.87089E-005	-5.14581E-003	-5.45938E-003	2.57437E-004	3.46875E-004	-5.95463E-003	3.86316E-004
	80	80	4.99677E-002	-8.95241E-003	0.00000E+000	-4.47332E-004	-8.79240E-002	3.70395E-002	3.37810E+001	11	...........	6.18257E-002	-4.41028E-003	5.76930E-001	6.12310E-001	-2.88721E-002	-3.89144E-002	6.67649E-001	-4.32732E-002	-5.53489E-004	3.94826E-005	-5.16492E-003	-5.48165E-003	2.58475E-004	3.48378E-004	-5.97707E-003	3.87400E-004
	81	81	4.99655E-002	-8.82692E-003	0.00000E+000	-4.41041E-004	-8.66780E-002	3.69758E-002	3.31422E+001	11	...........	6.17374E-002	-4.38569E-003	5.76957E-001	6.12283E-001	-2.88619E-002	-3.88962E-002	6.67658E-001	-4.32574E-002	-5.44951E-004	3.87122E-005	-5.09276E-003	-5.40458E-003	2.54762E-004	3.43334E-004	-5.89336E-003	3.81829E-004
	82	82	4.99678E-002	-8.70374E-003	0.00000E+000	-4.34907E-004	-8.54453E-002	3.69218E-002	3.28855E+001	11	...........	6.16443E-002	-4.36208E-003	5.76911E-001	6.12382E-001	-2.88340E-002	-3.89354E-002	6.67748E-001	-4.31269E-002	-5.36536E-004	3.79664E-005	-5.02128E-003	-5.33001E-003	2.50964E-004	3.38884E-004	-5.81190E-003	3.75366E-004
	83	83	4.99689E-002	-8.65488E-003	0.00000E+000	-4.32475E-004	-8.49613E-002	3.69492E-002	3.40132E+001	11	...........	6.16792E-002	-4.35611E-003	5.76990E-001	6.12334E-001	-2.88856E-002	-3.89194E-002	6.67828E-001	-4.30751E-002	-5.33826E-004	3.77016E-005	-4.99378E-003	-5.29968E-003	2.50001E-004	3.36843E-004	-5.77997E-003	3.72810E-004
	84	84	4.99657E-002	-8.58106E-003	0.00000E+000	-4.28759E-004	-8.42267E-002	3.68892E-002	3.33495E+001	11	...........	6.15729E-002	-4.31861E-003	5.76997E-001	6.12288E-001	-2.88772E-002	-3.88744E-002	6.67822E-001	-4.30762E-002	-5.28361E-004	3.70583E-005	-4.95125E-003	-5.25409E-003	2.47797E-004	3.33584E-004	-5.73062E-003	3.69640E-004
	85	85	4.99667E-002	-8.45915E-003	0.00000E+000	-4.22675E-004	-8.30053E-002	3.69522E-002	3.33600E+001	11	...........	6.17021E-002	-4.33389E-003	5.76930E-001	6.12342E-001	-2.88310E-002	-3.89074E-002	6.67810E-001	-4.31354E-002	-5.21947E-004	3.66610E-005	-4.88033E-003	-5.17989E-003	2.43885E-004	3.29123E-004	-5.64910E-003	3.64889E-004
	86	86	4.99673E-002	-8.40070E-003	0.00000E+000	-4.19760E-004	-8.24300E-002	3.70364E-002	3.37877E+001	11	...........	6.18018E-002	-4.34972E-003	5.77023E-001	6.12252E-001	-2.88786E-002	-3.89511E-002	6.67748E-001	-4.31839E-002	-5.19178E-004	3.65407E-005	-4.84739E-003	-5.14334E-003	2.42600E-004	3.27217E-004	-5.60955E-003	3.62775E-004
	87	87	4.99670E-002	-8.29422E-003	0.00000E+000	-4.14438E-004	-8.13707E-002	3.68792E-002	3.39926E+001	11	...........	6.15625E-002	-4.28028E-003	5.76979E-001	6.12239E-001	-2.88960E-002	-3.89560E-002	6.67609E-001	-4.33996E-002	-5.10613E-004	3.55016E-005	-4.78559E-003	-5.07805E-003	2.39670E-004	3.23110E-004	-5.53729E-003	3.59966E-004
	88	88	4.99665E-002	-8.16718E-003	0.00000E+000	-4.08085E-004	-8.01067E-002	3.70092E-002	3.30444E+001	11	...........	6.17571E-002	-4.30653E-003	5.76984E-001	6.12304E-001	-2.88819E-002	-3.89351E-002	6.67523E-001	-4.34428E-002	-5.04381E-004	3.51722E-005	-4.71233E-003	-5.00079E-003	2.35884E-004	3.17990E-004	-5.45178E-003	3.54805E-004
	89	89	4.99675E-002	-8.07191E-003	0.00000E+000	-4.03333E-004	-7.91547E-002	3.68864E-002	3.34019E+001	11	...........	6.15457E-002	-4.35292E-003	5.76771E-001	6.12250E-001	-2.88314E-002	-3.89681E-002	6.67553E-001	-4.32551E-002	-4.96791E-004	3.51363E-005	-4.65564E-003	-4.94203E-003	2.32724E-004	3.14546E-004	-5.38842E-003	3.49151E-004
	90	90	4.99671E-002	-8.07192E-003	0.00000E+000	-4.03330E-004	-7.91540E-002	3.70873E-002	3.41234E+001	11	...........	6.19207E-002	-4.38153E-003	5.76713E-001	6.12239E-001	-2.88585E-002	-3.89692E-002	6.67637E-001	-4.31889E-002	-4.99819E-004	3.53673E-005	-4.65518E-003	-4.94194E-003	2.32943E-004	3.14556E-004	-5.38911E-003	3.48617E-004
	91	91	4.99665E-002	-7.92485E-003	0.00000E+000	-3.95977E-004	-7.76927E-002	3.68878E-002	3.36310E+001	11	...........	6.15661E-002	-4.38347E-003	5.76730E-001	6.12108E-001	-2.88554E-002	-3.89281E-002	6.67543E-001	-4.31075E-002	-4.87902E-004	3.47384E-005	-4.57050E-003	-4.85086E-003	2.28675E-004	3.08499E-004	-5.29018E-003	3.41620E-004
	92	92	4.99668E-002	-7.80059E-003	0.00000E+000	-3.89770E-004	-7.64720E-002	3.70350E-002	3.32161E+001	11	...........	6.18151E-002	-4.36889E-003	5.76764E-001	6.12071E-001	-2.88521E-002	-3.89264E-002	6.67554E-001	-4.31479E-002	-4.82194E-004	3.40799E-005	-4.49910E-003	-4.77451E-003	2.25063E-004	3.03649E-004	-5.20731E-003	3.36579E-004
	93	93	4.99674E-002	-7.75978E-003	0.00000E+000	-3.87736E-004	-7.60733E-002	3.70108E-002	3.40604E+001	11	...........	6.17904E-002	-4.34806E-003	5.76837E-001	6.12056E-001	-2.88075E-002	-3.89506E-002	6.67552E-001	-4.32678E-002	-4.79480E-004	3.37399E-005	-4.47613E-003	-4.74942E-003	2.23540E-004	3.02248E-004	-5.18006E-003	3.35748E-004
	94	94	4.99674E-002	-7.68911E-003	0.00000E+000	-3.84205E-004	-7.53687E-002	3.69467E-002	3.39014E+001	11	...........	6.16790E-002	-4.35903E-003	5.76782E-001	6.11988E-001	-2.88393E-002	-3.89682E-002	6.67536E-001	-4.32064E-002	-4.74257E-004	3.35170E-005	-4.43494E-003	-4.70564E-003	2.21749E-004	2.99631E-004	-5.13276E-003	3.32219E-004
	95	95	4.99653E-002	-7.57242E-003	0.00000E+000	-3.78358E-004	-7.42060E-002	3.70233E-002	3.35694E+001	11	...........	6.17999E-002	-4.36319E-003	5.76576E-001	6.11926E-001	-2.88326E-002	-3.89669E-002	6.67543E-001	-4.31542E-002	-4.67974E-004	3.30399E-005	-4.36607E-003	-4.63376E-003	2.18333E-004	2.95074E-004	-5.05491E-003	3.26781E-004
	96	96	4.99671E-002	-7.48879E-003	0.00000E+000	-3.74193E-004	-7.33693E-002	3.70130E-002	3.32026E+001	11	...........	6.17885E-002	-4.41472E-003	5.76596E-001	6.12154E-001	-2.88308E-002	-3.89537E-002	6.67479E-001	-4.32158E-002	-4.62721E-004	3.30609E-005	-4.31800E-003	-4.58429E-003	2.15908E-004	2.91716E-004	-4.99861E-003	3.23634E-004
	97	97	4.99691E-002	-7.44979E-003	0.00000E+000	-3.72259E-004	-7.29840E-002	3.70385E-002	3.42032E+001	11	...........	6.18183E-002	-4.37736E-003	5.76665E-001	6.12296E-001	-2.87951E-002	-3.89832E-002	6.67468E-001	-4.32464E-002	-4.60533E-004	3.26104E-005	-4.29603E-003	-4.56147E-003	2.14518E-004	2.90416E-004	-4.97250E-003	3.22176E-004
	98	98	4.99666E-002	-7.39634E-003	0.00000E+000	-3.69570E-004	-7.24467E-002	3.68112E-002	3.36045E+001	11	...........	6.18387E-002	-4.37528E-003	5.76678E-001	6.12448E-001	-2.88406E-002	-3.90011E-002	6.67462E-001	-4.31581E-002	-4.57380E-004	3.23610E-005	-4.26530E-003	-4.52987E-003	2.13315E-004	2.88466E-004	-4.93678E-003	3.19212E-004
	99	99	4.99669E-002	-7.26122E-003	0.00000E+000	-3.62821E-004	-7.10987E-002	3.69327E-002	3.36987E+001	11	...........	6.16640E-002	-4.34750E-003	5.76525E-001	6.12723E-001	-2.88187E-002	-3.89821E-002	6.67610E-001	-4.31369E-002	-4.47756E-004	3.15682E-005	-4.18627E-003	-4.44912E-003	2.09259E-004	2.83057E-004	-4.84767E-003	3.13227E-004
	100	100	4.99677E-002	-7.24047E-003	0.00000E+000	-3.61790E-004	-7.08940E-002	3.70948E-002	3.40315E+001	11	...........	6.19054E-002	-4.37361E-003	5.76534E-001	6.12896E-001	-2.87999E-002	-3.89517E-002	6.67531E-001	-4.31629E-002	-4.48225E-004	3.16670E-005	-4.17438E-003	-4.43766E-003	2.08525E-004	2.82029E-004	-4.83324E-003	3.12520E-004
	101	101	4.99672E-002	-7.18792E-003	0.00000E+000	-3.59160E-004	-7.03680E-002	3.70604E-002	3.40754E+001	11	...........	6.18729E-002	-4.35972E-003	5.76735E-001	6.12941E-001	-2.87839E-002	-3.89510E-002	6.67603E-001	-4.31122E-002	-4.44738E-004	3.13373E-005	-4.14553E-003	-4.40577E-003	2.06896E-004	2.79976E-004	-4.79868E-003	3.09887E-004
	102	102	4.99668E-002	-7.06475E-003	0.00000E+000	-3.53003E-004	-6.91407E-002	3.69495E-002	3.36289E+001	11	...........	6.16846E-002	-4.34458E-003	5.76896E-001	6.12907E-001	-2.87618E-002	-3.89664E-002	6.67570E-001	-4.30771E-002	-4.35786E-004	3.06934E-005	-4.07563E-003	-4.33004E-003	2.03195E-004	2.75288E-004	-4.71622E-003	3.04329E-004
	103	103	4.99675E-002	-6.99527E-003	0.00000E+000	-3.49536E-004	-6.84513E-002	3.70477E-002	3.38992E+001	11	...........	6.18350E-002	-4.33472E-003	5.76865E-001	6.12806E-001	-2.87933E-002	-3.89664E-002	6.67597E-001	-4.31279E-002	-4.32553E-004	3.03226E-005	-4.03533E-003	-4.28674E-003	2.01417E-004	2.72580E-004	-4.67002E-003	3.01691E-004
	104	104	4.99672E-002	-6.96204E-003	0.00000E+000	-3.47874E-004	-6.81220E-002	3.70840E-002	3.42297E+001	11	...........	6.18951E-002	-4.33125E-003	5.76909E-001	6.12833E-001	-2.87807E-002	-3.89360E-002	6.67592E-001	-4.31142E-002	-4.30916E-004	3.01543E-005	-4.01646E-003	-4.26657E-003	2.00372E-004	2.71074E-004	-4.64780E-003	3.00162E-004
	105	105	4.99675E-002	-6.90560E-003	0.00000E+000	-3.45056E-004	-6.75560E-002	3.70665E-002	3.38972E+001	11	...........	6.18504E-002	-4.34181E-003	5.76823E-001	6.12865E-001	-2.87764E-002	-3.88979E-002	6.67635E-001	-4.31937E-002	-4.27114E-004	2.99828E-005	-3.98331E-003	-4.23220E-003	1.98718E-004	2.68614E-004	-4.61042E-003	2.98279E-004
	106	106	4.99661E-002	-6.79020E-003	0.00000E+000	-3.39280E-004	-6.64000E-002	3.71340E-002	3.37239E+001	11	...........	6.19785E-002	-4.35750E-003	5.76838E-001	6.12875E-001	-2.87924E-002	-3.88653E-002	6.67637E-001	-4.33487E-002	-4.20846E-004	2.95883E-005	-3.91685E-003	-4.16154E-003	1.95506E-004	2.63903E-004	-4.53339E-003	2.94347E-004
	107	107	4.99674E-002	-6.70540E-003	0.00000E+000	-3.35051E-004	-6.55567E-002	3.69268E-002	3.32254E+001	11	...........	6.16417E-002	-4.33778E-003	5.76793E-001	6.12893E-001	-2.87614E-002	-3.88750E-002	6.67672E-001	-4.31406E-002	-4.13332E-004	2.90865E-005	-3.86763E-003	-4.10969E-003	1.92857E-004	2.60672E-004	-4.47701E-003	2.89275E-004
	108	108	4.99678E-002	-6.69106E-003	0.00000E+000	-3.34337E-004	-6.54167E-002	3.71723E-002	3.38276E+001	11	...........	6.20517E-002	-4.34889E-003	5.76899E-001	6.12745E-001	-2.87462E-002	-3.89094E-002	6.67737E-001	-4.31344E-002	-4.15191E-004	2.90987E-005	-3.86007E-003	-4.09991E-003	1.92343E-004	2.60345E-004	-4.46786E-003	2.88615E-004
	109	109	4.99674E-002	-6.60676E-003	0.00000E+000	-3.30123E-004	-6.45687E-002	3.70948E-002	3.42024E+001	11	...........	6.19071E-002	-4.32806E-003	5.76990E-001	6.12801E-001	-2.87897E-002	-3.89204E-002	6.67702E-001	-4.31797E-002	-4.09005E-004	2.85944E-005	-3.81204E-003	-4.04863E-003	1.90207E-004	2.57138E-004	-4.41135E-003	2.85278E-004
	110	110	4.99668E-002	-6.53873E-003	0.00000E+000	-3.26719E-004	-6.38987E-002	3.70468E-002	3.37412E+001	11	...........	6.18203E-002	-4.33528E-003	5.77164E-001	6.12785E-001	-2.88074E-002	-3.89250E-002	6.67548E-001	-4.32532E-002	-4.04226E-004	2.83472E-005	-3.77392E-003	-4.00684E-003	1.88363E-004	2.54520E-004	-4.36492E-003	2.82821E-004
	111	111	4.99671E-002	-6.47312E-003	0.00000E+000	-3.23443E-004	-6.32507E-002	3.71103E-002	3.38136E+001	11	...........	6.19447E-002	-4.25639E-003	5.77141E-001	6.12900E-001	-2.87807E-002	-3.89044E-002	6.67636E-001	-4.34042E-002	-4.00976E-004	2.75521E-005	-3.73591E-003	-3.96738E-003	1.86301E-004	2.51833E-004	-4.32169E-003	2.80960E-004
	112	112	4.99684E-002	-6.45173E-003	0.00000E+000	-3.22382E-004	-6.30413E-002	3.71536E-002	3.39694E+001	11	...........	6.20140E-002	-4.27611E-003	5.76987E-001	6.12882E-001	-2.88099E-002	-3.88925E-002	6.67609E-001	-4.33251E-002	-4.00098E-004	2.75883E-005	-3.72256E-003	-3.95415E-003	1.85873E-004	2.50924E-004	-4.30723E-003	2.79522E-004
	113	113	4.99672E-002	-6.35623E-003	0.00000E+000	-3.17603E-004	-6.21107E-002	3.70393E-002	3.38102E+001	11	...........	6.18400E-002	-4.32500E-003	5.77029E-001	6.12843E-001	-2.88444E-002	-3.89086E-002	6.67511E-001	-4.34164E-002	-3.93069E-004	2.74907E-005	-3.66773E-003	-3.89538E-003	1.83342E-004	2.47312E-004	-4.24285E-003	2.75965E-004
	114	114	4.99668E-002	-6.27756E-003	0.00000E+000	-3.13669E-004	-6.13273E-002	3.70368E-002	3.40330E+001	11	...........	6.18260E-002	-4.32972E-003	5.77091E-001	6.12880E-001	-2.88261E-002	-3.88921E-002	6.67474E-001	-4.33649E-002	-3.88116E-004	2.71801E-005	-3.62272E-003	-3.84739E-003	1.80958E-004	2.44147E-004	-4.19011E-003	2.72225E-004
	115	115	4.99673E-002	-6.23048E-003	0.00000E+000	-3.11320E-004	-6.08533E-002	3.71198E-002	3.34605E+001	11	...........	6.19592E-002	-4.33667E-003	5.77246E-001	6.12953E-001	-2.87654E-002	-3.88789E-002	6.67553E-001	-4.32492E-002	-3.86035E-004	2.70195E-005	-3.59651E-003	-3.81899E-003	1.79222E-004	2.42234E-004	-4.15917E-003	2.69463E-004
	116	116	4.99681E-002	-6.19841E-003	0.00000E+000	-3.09723E-004	-6.05360E-002	3.71818E-002	3.43021E+001	11	...........	6.20768E-002	-4.35014E-003	5.77275E-001	6.12972E-001	-2.87558E-002	-3.88967E-002	6.67561E-001	-4.31521E-002	-3.84778E-004	2.69639E-005	-3.57819E-003	-3.79946E-003	1.78240E-004	2.41098E-004	-4.13782E-003	2.67474E-004
	117	117	4.99659E-002	-6.13113E-003	0.00000E+000	-3.06348E-004	-5.98633E-002	3.71699E-002	3.40217E+001	11	...........	6.20443E-002	-4.30708E-003	5.77184E-001	6.13002E-001	-2.87786E-002	-3.89314E-002	6.67609E-001	-4.31781E-002	-3.80402E-004	2.64073E-005	-3.53879E-003	-3.75840E-003	1.76445E-004	2.38693E-004	-4.09320E-003	2.64730E-004
	118	118	4.99676E-002	-6.05071E-003	0.00000E+000	-3.02339E-004	-5.90640E-002	3.71186E-002	3.37110E+001	11	...........	6.19551E-002	-4.29375E-003	5.77301E-001	6.13003E-001	-2.88140E-002	-3.89289E-002	6.67661E-001	-4.32628E-002	-3.74872E-004	2.59802E-005	-3.49308E-003	-3.70910E-003	1.74345E-004	2.35547E-004	-4.03983E-003	2.61770E-004
	119	119	4.99676E-002	-5.95218E-003	0.00000E+000	-2.97416E-004	-5.80853E-002	3.70522E-002	3.34086E+001	11	...........	6.18375E-002	-4.29875E-003	5.77309E-001	6.12967E-001	-2.88640E-002	-3.89304E-002	6.67584E-001	-4.31954E-002	-3.68068E-004	2.55869E-005	-3.43624E-003	-3.64849E-003	1.71804E-004	2.31721E-004	-3.97358E-003	2.57107E-004
	120	120	4.99687E-002	-5.96197E-003	0.00000E+000	-2.97912E-004	-5.81793E-002	3.71949E-002	3.37200E+001	11	...........	6.20921E-002	-4.33153E-003	5.77329E-001	6.12868E-001	-2.88717E-002	-3.89300E-002	6.67539E-001	-4.32283E-002	-3.70191E-004	2.58245E-005	-3.44202E-003	-3.65390E-003	1.72132E-004	2.32100E-004	-3.97985E-003	2.57726E-004
	121	121	4.99671E-002	-5.89958E-003	0.00000E+000	-2.94785E-004	-5.75573E-002	3.71397E-002	3.42760E+001	11	...........	6.19890E-002	-4.34097E-003	5.77527E-001	6.12894E-001	-2.88253E-002	-3.89240E-002	6.67620E-001	-4.31132E-002	-3.65709E-004	2.56099E-005	-3.40717E-003	-3.61582E-003	1.70057E-004	2.29635E-004	-3.93868E-003	2.54350E-004
	122	122	4.99672E-002	-5.84191E-003	0.00000E+000	-2.91904E-004	-5.69827E-002	3.71488E-002	3.42326E+001	11	...........	6.20224E-002	-4.25944E-003	5.77567E-001	6.12928E-001	-2.88417E-002	-3.89207E-002	6.67571E-001	-4.30947E-002	-3.62329E-004	2.48833E-005	-3.37409E-003	-3.58067E-003	1.68490E-004	2.27371E-004	-3.89989E-003	2.51756E-004
	123	123	4.99663E-002	-5.73445E-003	0.00000E+000	-2.86529E-004	-5.59127E-002	3.71543E-002	3.30185E+001	11	...........	6.20061E-002	-4.25917E-003	5.77578E-001	6.12969E-001	-2.88122E-002	-3.89275E-002	6.67535E-001	-4.31968E-002	-3.55571E-004	2.44240E-005	-3.31209E-003	-3.51504E-003	1.65222E-004	2.23228E-004	-3.82795E-003	2.47710E-004
	124	124	4.99685E-002	-5.70032E-003	0.00000E+000	-2.84837E-004	-5.55767E-002	3.71323E-002	3.41663E+001	11	...........	6.19954E-002	-4.20653E-003	5.77516E-001	6.12907E-001	-2.88043E-002	-3.89446E-002	6.67484E-001	-4.32103E-002	-3.53394E-004	2.39786E-005	-3.29203E-003	-3.49377E-003	1.64194E-004	2.21997E-004	-3.80487E-003	2.46313E-004
	125	125	4.99673E-002	-5.70175E-003	0.00000E+000	-2.84901E-004	-5.55893E-002	3.72388E-002	3.41323E+001	11	...........	6.21740E-002	-4.27625E-003	5.77549E-001	6.12904E-001	-2.88181E-002	-3.89272E-002	6.67506E-001	-4.32182E-002	-3.54501E-004	2.43821E-005	-3.29304E-003	-3.49462E-003	1.64313E-004	2.21953E-004	-3.80595E-003	2.46419E-004
	126	126	4.99675E-002	-5.62246E-003	0.00000E+000	-2.80940E-004	-5.47940E-002	3.71288E-002	3.41024E+001	11	...........	6.19828E-002	-4.32569E-003	5.77499E-001	6.12912E-001	-2.88742E-002	-3.89075E-002	6.67507E-001	-4.32069E-002	-3.48496E-004	2.43210E-005	-3.24697E-003	-3.44607E-003	1.62344E-004	2.18756E-004	-3.75303E-003	2.42929E-004
	127	127	4.99669E-002	-5.49702E-003	0.00000E+000	-2.74669E-004	-5.35440E-002	3.71302E-002	3.37466E+001	11	...........	6.19857E-002	-4.37194E-003	5.77381E-001	6.12868E-001	-2.88258E-002	-3.89176E-002	6.67583E-001	-4.32557E-002	-3.40737E-004	2.40327E-005	-3.17387E-003	-3.36895E-003	1.58456E-004	2.13931E-004	-3.66972E-003	2.37778E-004
	128	128	4.99674E-002	-5.47816E-003	0.00000E+000	-2.73729E-004	-5.33567E-002	3.70499E-002	3.28520E+001	11	...........	6.18333E-002	-4.32167E-003	5.77347E-001	6.12780E-001	-2.88017E-002	-3.89156E-002	6.67459E-001	-4.31406E-002	-3.38733E-004	2.36748E-005	-3.16279E-003	-3.35690E-003	1.57780E-004	2.13185E-004	-3.65645E-003	2.36331E-004
	129	129	4.99681E-002	-5.47868E-003	0.00000E+000	-2.73759E-004	-5.33607E-002	3.73096E-002	3.44236E+001	11	...........	6.22719E-002	-4.29417E-003	5.77440E-001	6.12804E-001	-2.87836E-002	-3.89440E-002	6.67531E-001	-4.30887E-002	-3.41168E-004	2.35264E-005	-3.16361E-003	-3.35736E-003	1.57696E-004	2.13362E-004	-3.65719E-003	2.36070E-004
	130	130	4.99670E-002	-5.43162E-003	0.00000E+000	-2.71402E-004	-5.28933E-002	3.72237E-002	3.36687E+001	11	...........	6.21344E-002	-4.29583E-003	5.77530E-001	6.12783E-001	-2.87760E-002	-3.89696E-002	6.67634E-001	-4.30172E-002	-3.37491E-004	2.33333E-005	-3.13692E-003	-3.32840E-003	1.56300E-004	2.11668E-004	-3.62633E-003	2.33653E-004
	131	131	4.99670E-002	-5.34017E-003	0.00000E+000	-2.66832E-004	-5.19873E-002	3.72058E-002	3.37324E+001	11	...........	6.20992E-002	-4.31833E-003	5.77326E-001	6.12718E-001	-2.88185E-002	-3.89824E-002	6.67520E-001	-4.30221E-002	-3.31620E-004	2.30606E-005	-3.08302E-003	-3.27202E-003	1.53896E-004	2.08172E-004	-3.56467E-003	2.29745E-004
	132	132	4.99684E-002	-5.32536E-003	0.00000E+000	-2.66100E-004	-5.18407E-002	3.72217E-002	3.39334E+001	11	...........	6.21287E-002	-4.32306E-003	5.77158E-001	6.12714E-001	-2.88358E-002	-3.89765E-002	6.67481E-001	-4.30619E-002	-3.30858E-004	2.30218E-005	-3.07358E-003	-3.26293E-003	1.53561E-004	2.07564E-004	-3.55458E-003	2.29320E-004
	133	133	4.99669E-002	-5.27666E-003	0.00000E+000	-2.63658E-004	-5.13567E-002	3.72475E-002	3.44207E+001	11	...........	6.21946E-002	-4.31819E-003	5.77104E-001	6.12586E-001	-2.88143E-002	-3.89590E-002	6.67495E-001	-4.30715E-002	-3.28180E-004	2.27856E-005	-3.04518E-003	-3.23241E-003	1.52043E-004	2.05574E-004	-3.52214E-003	2.27274E-004
	134	134	4.99671E-002	-5.19260E-003	0.00000E+000	-2.59459E-004	-5.05367E-002	3.72120E-002	3.28726E+001	11	...........	6.21162E-002	-4.34597E-003	5.77065E-001	6.12689E-001	-2.88312E-002	-3.89446E-002	6.67532E-001	-4.31010E-002	-3.22545E-004	2.25669E-005	-2.99647E-003	-3.18145E-003	1.49709E-004	2.02224E-004	-3.46623E-003	2.23806E-004
	135	135	4.99688E-002	-5.13386E-003	0.00000E+000	-2.56533E-004	-4.99533E-002	3.70961E-002	3.37938E+001	11	...........	6.19467E-002	-4.34319E-003	5.76813E-001	6.12803E-001	-2.88528E-002	-3.89121E-002	6.67610E-001	-4.31072E-002	-3.18026E-004	2.22974E-005	-2.96128E-003	-3.14605E-003	1.48126E-004	1.99769E-004	-3.42742E-003	2.21307E-004
	136	136	4.99670E-002	-5.13713E-003	0.00000E+000	-2.56687E-004	-4.99867E-002	3.72525E-002	3.40045E+001	11	...........	6.21857E-002	-4.36375E-003	5.76800E-001	6.12748E-001	-2.88311E-002	-3.89325E-002	6.67547E-001	-4.31375E-002	-3.19456E-004	2.24171E-005	-2.96310E-003	-3.14777E-003	1.48109E-004	2.00001E-004	-3.42928E-003	2.21603E-004
	137	136.988	4.99670E-002	-5.09358E-003	0.00000E+000	-2.54511E-004	-4.95565E-002	3.72951E-002	3.37602E+001	11	...........	6.22243E-002	-4.35469E-003	5.76631E-001	6.12651E-001	-2.88028E-002	-3.89122E-002	6.67372E-001	-4.30673E-002	-3.16944E-004	2.21810E-005	-2.93712E-003	-3.12059E-003	1.46710E-004	1.98202E-004	-3.39931E-003	2.19367E-004
STARTTIMEOFFSET	QUANT	784084.9	Start Time Offset (s)
