EXPLAIN
TAG	PWR800_DISCHARGE
TITLE	LABEL	PWR Discharge	Test Identifier
DATE	LABEL	10/12/2022	Date
TIME	LABEL	17:39:36	Time
NOTES	NOTES	1	Notes...
	
PSTAT	PSTAT	REF3000-21114	Potentiostat
CAPACITY	QUANT	5.30000E-002	Capacity (A-hr)
CELLTYPE	SELECTOR	1	Cell Type
WORKINGCONNECTION	SELECTOR	0	Working Connection
MAXDISCHARGETIME	VARIABLEANDUNITS	7.20000E+003	s	2.00000E+000	hour(s)	Max Discharge Time
DISCHARGEMODE	MULTIPARAM	0	1.00000E-001	Discharge Mode	Constant Current	Amp(s)
VOLTAGEFINISH	TWOPARAM	T	5.00000E-003	7.20000E+003	Voltage Finish	I (A) <	Max Time(s)
SAMPLETIME	QUANT	1.00000E+000	Sample Period (s)
DISCHARGESTOPAT1	MULTIPARAM	1	5.00000E-002	Stop At 1	|Voltage| < Limit	V
DISCHARGESTOPAT2	MULTIPARAM	0	0.00000E+000	Stop At 2	None	N/A
AESELECTOR	AESELECTOR	0x1	T	Set Limits	AE Channels
AESBHCSELECTOR	TOGGLE	F	Save Both Half Cells
IRCOMP	TOGGLE	F	IR Measure
EOC	QUANT	0.5468308	Open Circuit (V)
SEQUENCER	TOGGLE	TRUE	Run as Sequence
PSTATMODEL	IQUANT	5	Pstat Model
PSTATSECTION	LABEL	REF3000-21114	Pstat Section
PSTATSERIALNO	LABEL	21114	Pstat Serial Number
CTRLMODE	IQUANT	0	Control Mode
ELECTROMETER	IQUANT	0	RE=0 or CS=1
IESTAB	IQUANT	0	I/E Stability
CASPEED	IQUANT	4	Control Amp Speed
CONVENTION	IQUANT	1	Current Convention
ICHRANGE	IQUANT	2	Ich Range
ICHRANGEMODE	TOGGLE	T	Ich Auto Range
ICHOFFSETENABLE	TOGGLE	F	Ich Offset Enable
ICHOFFSET	QUANT	0	Ich Offset (V)
ICHFILTER	IQUANT	1	Ich Filter
VCHRANGE	IQUANT	3	Vch Range
VCHRANGEMODE	TOGGLE	T	Vch Auto Range
VCHOFFSETENABLE	TOGGLE	F	Vch Offset Enable
VCHOFFSET	QUANT	0	Vch Offset (V)
VCHFILTER	IQUANT	1	Vch Filter
ACHRANGE	IQUANT	2	Ach Range
ACHOFFSETENABLE	TOGGLE	F	Ach Offset Enable
ACHOFFSET	QUANT	0	Ach Offset (V)
ACHFILTER	IQUANT	1	Ach Filter
IERANGELOWERLIMIT	IQUANT	9	I/E Range Lower Limit
IERANGEMODE	TOGGLE	F	I/E AutoRange
IERANGE	IQUANT	9	I/E Range
POSFEEDENABLE	TOGGLE	F	Positive Feedback IR Comp
POSFEEDRESISTANCE	QUANT	0	Positive Feedback Resistance (ohm)
ACHSELECT	IQUANT	1	Ach Select
SENSECABLEID	IQUANT	13	Sense Cable ID
PWRCABLEID	IQUANT	13	Power Cable ID
DCCALDATE	LABEL		DC Calibration Date
ACCALDATE	LABEL		AC Calibration Date
THERMOSELECT	IQUANT	1	Thermo Select
FRAMEWORKVERSION	LABEL	7.8.6	Framework Version
INSTRUMENTVERSION	LABEL	4.50	Instrument Version
COMPLIANCEVOLTAGE	IQUANT	0	Compliance Voltage
CURVE	TABLE	96
	Pt	T	Vf	Im	Vu	Pwr	Sig	Ach	Temp	IERange	Over	Vf1	Vf2	Vf3	Vf4	Vf5	Vf6	Vf7	Vf8	Pwr1	Pwr2	Pwr3	Pwr4	Pwr5	Pwr6	Pwr7	Pwr8
	#	s	V	A	V	W	V	V	deg C	#	bits	V	V	V	V	V	V	V	V	W	W	W	W	W	W	W	W
	0	1	3.17195E-001	-1.00097E-001	0.00000E+000	-3.17503E-002	-9.94000E-001	3.73528E-002	3.01660E+001	11	...........	6.23435E-002	-4.46681E-003	5.63602E-001	6.50311E-001	-3.07029E-002	-4.02733E-002	6.37530E-001	-4.40903E-002	-6.24039E-003	4.47114E-004	-5.64149E-002	-6.50942E-002	3.07327E-003	4.03124E-003	-6.38148E-002	4.41330E-003
	1	2	2.22454E-001	-1.00097E-001	0.00000E+000	-2.22670E-002	-9.94000E-001	3.73953E-002	2.94577E+001	11	...........	6.24042E-002	-4.30653E-003	5.63593E-001	6.50409E-001	-3.06675E-002	-4.02650E-002	6.37591E-001	-4.40132E-002	-6.24646E-003	4.31070E-004	-5.64139E-002	-6.51039E-002	3.06972E-003	4.03040E-003	-6.38209E-002	4.40558E-003
	2	3	1.40048E-001	-1.00098E-001	0.00000E+000	-1.40184E-002	-9.94000E-001	3.73154E-002	2.87568E+001	11	...........	6.22906E-002	-4.28972E-003	5.63474E-001	6.50449E-001	-3.06806E-002	-4.03087E-002	6.37539E-001	-4.40531E-002	-6.23513E-003	4.29391E-004	-5.64023E-002	-6.51084E-002	3.07105E-003	4.03481E-003	-6.38160E-002	4.40960E-003
	3	3.725	7.55128E-002	-1.00098E-001	0.00000E+000	-7.55866E-003	-9.94000E-001	3.72937E-002	2.82312E+001	11	...........	6.22213E-002	-4.21647E-003	5.63502E-001	6.50428E-001	-3.07247E-002	-4.03080E-002	6.37542E-001	-4.41276E-002	-6.22820E-003	4.22059E-004	-5.64052E-002	-6.51063E-002	3.07547E-003	4.03474E-003	-6.38165E-002	4.41707E-003
	4	4	4.93337E-002	-9.21679E-002	0.00000E+000	-4.54699E-003	-9.15150E-001	3.74373E-002	2.84726E+001	11	...........	6.24722E-002	-4.19697E-003	5.63654E-001	6.50365E-001	-3.05808E-002	-4.03081E-002	6.37495E-001	-4.40434E-002	-5.75793E-003	3.86826E-004	-5.19508E-002	-5.99428E-002	2.81857E-003	3.71511E-003	-5.87566E-002	4.05939E-003
	5	5	4.96302E-002	-6.85135E-002	0.00000E+000	-3.40034E-003	-6.79987E-001	3.75818E-002	2.95731E+001	11	...........	6.26651E-002	-4.30639E-003	5.63835E-001	6.50479E-001	-3.05764E-002	-4.02025E-002	6.37626E-001	-4.40779E-002	-4.29341E-003	2.95046E-004	-3.86304E-002	-4.45666E-002	2.09490E-003	2.75442E-003	-4.36860E-002	3.01993E-003
	6	6	4.98097E-002	-4.83661E-002	0.00000E+000	-2.40910E-003	-4.79681E-001	3.76395E-002	3.05694E+001	11	...........	6.27946E-002	-4.37597E-003	5.63959E-001	6.50632E-001	-3.04732E-002	-4.01790E-002	6.37765E-001	-4.40869E-002	-3.03713E-003	2.11649E-004	-2.72765E-002	-3.14686E-002	1.47387E-003	1.94330E-003	-3.08462E-002	2.13232E-003
	7	7	4.98802E-002	-3.76538E-002	0.00000E+000	-1.87818E-003	-3.73184E-001	3.76802E-002	3.11472E+001	11	...........	6.28501E-002	-4.33764E-003	5.63991E-001	6.50753E-001	-3.04506E-002	-4.01928E-002	6.37636E-001	-4.39982E-002	-2.36655E-003	1.63329E-004	-2.12364E-002	-2.45033E-002	1.14658E-003	1.51341E-003	-2.40094E-002	1.65670E-003
	8	8	4.99166E-002	-3.11832E-002	0.00000E+000	-1.55656E-003	-3.08853E-001	3.77401E-002	3.15403E+001	11	...........	6.29361E-002	-4.30792E-003	5.64093E-001	6.50798E-001	-3.03960E-002	-4.01824E-002	6.37670E-001	-4.40050E-002	-1.96255E-003	1.34335E-004	-1.75903E-002	-2.02940E-002	9.47845E-004	1.25302E-003	-1.98846E-002	1.37222E-003
	9	9	4.99372E-002	-2.69826E-002	0.00000E+000	-1.34744E-003	-2.67091E-001	3.77709E-002	3.18341E+001	11	...........	6.29861E-002	-4.27486E-003	5.64132E-001	6.50861E-001	-3.03932E-002	-4.01874E-002	6.37681E-001	-4.39978E-002	-1.69953E-003	1.15347E-004	-1.52218E-002	-1.75619E-002	8.20088E-004	1.08436E-003	-1.72063E-002	1.18718E-003
	10	10	4.99487E-002	-2.40933E-002	0.00000E+000	-1.20343E-003	-2.38363E-001	3.78183E-002	3.20437E+001	11	...........	6.30758E-002	-4.23819E-003	5.64171E-001	6.50973E-001	-3.04036E-002	-4.01803E-002	6.37768E-001	-4.38446E-002	-1.51971E-003	1.02112E-004	-1.35928E-002	-1.56841E-002	7.32525E-004	9.68077E-004	-1.53660E-002	1.05636E-003
	11	11	4.99571E-002	-2.20117E-002	0.00000E+000	-1.09964E-003	-2.17666E-001	3.78681E-002	3.22281E+001	11	...........	6.31411E-002	-4.23250E-003	5.64101E-001	6.51228E-001	-3.03956E-002	-4.01421E-002	6.37813E-001	-4.38076E-002	-1.38984E-003	9.31645E-005	-1.24168E-002	-1.43346E-002	6.69058E-004	8.83596E-004	-1.40393E-002	9.64281E-004
	12	12	4.99620E-002	-2.04504E-002	0.00000E+000	-1.02175E-003	-2.02148E-001	3.78903E-002	3.23773E+001	11	...........	6.32149E-002	-4.26514E-003	5.64099E-001	6.51050E-001	-3.03831E-002	-4.01235E-002	6.37864E-001	-4.37978E-002	-1.29277E-003	8.72239E-005	-1.15361E-002	-1.33143E-002	6.21346E-004	8.20542E-004	-1.30446E-002	8.95683E-004
	13	13	4.99649E-002	-1.92371E-002	0.00000E+000	-9.61177E-004	-1.90072E-001	3.79589E-002	3.24703E+001	11	...........	6.33115E-002	-4.20486E-003	5.64139E-001	6.51021E-001	-3.04351E-002	-4.01879E-002	6.37846E-001	-4.40064E-002	-1.21793E-003	8.08891E-005	-1.08524E-002	-1.25237E-002	5.85482E-004	7.73097E-004	-1.22703E-002	8.46553E-004
	14	14	4.99675E-002	-1.82626E-002	0.00000E+000	-9.12534E-004	-1.80398E-001	3.79619E-002	3.24671E+001	11	...........	6.33022E-002	-4.29986E-003	5.64082E-001	6.51182E-001	-3.03922E-002	-4.01678E-002	6.37902E-001	-4.40229E-002	-1.15606E-003	7.85265E-005	-1.03016E-002	-1.18923E-002	5.55040E-004	7.33567E-004	-1.16497E-002	8.03972E-004
	15	15	4.99702E-002	-1.74750E-002	0.00000E+000	-8.73232E-004	-1.72556E-001	3.79633E-002	3.26470E+001	11	...........	6.33078E-002	-4.22653E-003	5.64058E-001	6.51051E-001	-3.04050E-002	-4.01412E-002	6.37827E-001	-4.38994E-002	-1.10631E-003	7.38587E-005	-9.85694E-003	-1.13771E-002	5.31329E-004	7.01470E-004	-1.11461E-002	7.67145E-004
	16	16	4.99722E-002	-1.69302E-002	0.00000E+000	-8.46042E-004	-1.67133E-001	3.79871E-002	3.27246E+001	11	...........	6.33724E-002	-4.13639E-003	5.64119E-001	6.51080E-001	-3.03575E-002	-4.01839E-002	6.37762E-001	-4.38008E-002	-1.07291E-003	7.00300E-005	-9.55067E-003	-1.10229E-002	5.13960E-004	6.80323E-004	-1.07975E-002	7.41558E-004
	17	17	4.99715E-002	-1.64161E-002	0.00000E+000	-8.20339E-004	-1.62035E-001	3.80443E-002	3.28428E+001	11	...........	6.34353E-002	-4.18889E-003	5.64149E-001	6.50974E-001	-3.03304E-002	-4.01687E-002	6.37700E-001	-4.39050E-002	-1.04136E-003	6.87653E-005	-9.26115E-003	-1.06865E-002	4.97908E-004	6.59415E-004	-1.04686E-002	7.20750E-004
	18	18	4.99721E-002	-1.58627E-002	0.00000E+000	-7.92690E-004	-1.56525E-001	3.80448E-002	3.29590E+001	11	...........	6.34686E-002	-4.18750E-003	5.64123E-001	6.50738E-001	-3.03343E-002	-4.01793E-002	6.37854E-001	-4.38915E-002	-1.00678E-003	6.64248E-005	-8.94849E-003	-1.03224E-002	4.81183E-004	6.37350E-004	-1.01181E-002	6.96236E-004
	19	19	4.99721E-002	-1.53571E-002	0.00000E+000	-7.67425E-004	-1.51497E-001	3.80773E-002	3.30259E+001	11	...........	6.35086E-002	-4.11722E-003	5.64071E-001	6.50632E-001	-3.03685E-002	-4.01969E-002	6.37833E-001	-4.39633E-002	-9.75307E-004	6.32285E-005	-8.66247E-003	-9.99180E-003	4.66371E-004	6.17308E-004	-9.79525E-003	6.75148E-004
	20	20	4.99731E-002	-1.49071E-002	0.00000E+000	-7.44954E-004	-1.47011E-001	3.79751E-002	3.30878E+001	11	...........	6.35436E-002	-4.09653E-003	5.64159E-001	6.50654E-001	-3.03693E-002	-4.02290E-002	6.37771E-001	-4.39921E-002	-9.47250E-004	6.10673E-005	-8.40997E-003	-9.69935E-003	4.52718E-004	5.99697E-004	-9.50731E-003	6.55794E-004
	21	21	4.99736E-002	-1.44995E-002	0.00000E+000	-7.24592E-004	-1.42942E-001	3.79203E-002	3.31324E+001	11	...........	6.35557E-002	-4.05667E-003	5.64280E-001	6.50858E-001	-3.04258E-002	-4.02303E-002	6.37727E-001	-4.42039E-002	-9.21526E-004	5.88196E-005	-8.18177E-003	-9.43711E-003	4.41159E-004	5.83319E-004	-9.24672E-003	6.40934E-004
	22	22	4.99736E-002	-1.41295E-002	0.00000E+000	-7.06104E-004	-1.39270E-001	3.79290E-002	3.31656E+001	11	...........	6.35689E-002	-4.11250E-003	5.64290E-001	6.50794E-001	-3.04742E-002	-4.02387E-002	6.37720E-001	-4.41626E-002	-8.98199E-004	5.81077E-005	-7.97315E-003	-9.19542E-003	4.30586E-004	5.68555E-004	-9.01070E-003	6.23998E-004
	23	23	4.99742E-002	-1.37799E-002	0.00000E+000	-6.88638E-004	-1.35803E-001	3.79570E-002	3.32038E+001	11	...........	6.36356E-002	-4.25667E-003	5.64117E-001	6.50926E-001	-3.04565E-002	-4.02257E-002	6.37731E-001	-4.40828E-002	-8.76891E-004	5.86564E-005	-7.77347E-003	-8.96968E-003	4.19687E-004	5.54306E-004	-8.78786E-003	6.07456E-004
	24	24	4.99745E-002	-1.34533E-002	0.00000E+000	-6.72320E-004	-1.32553E-001	3.79769E-002	3.32576E+001	11	...........	6.36706E-002	-4.41917E-003	5.64076E-001	6.50940E-001	-3.04632E-002	-4.02054E-002	6.37676E-001	-4.39622E-002	-8.56576E-004	5.94522E-005	-7.58867E-003	-8.75726E-003	4.09829E-004	5.40894E-004	-8.57882E-003	5.91435E-004
	25	25	4.99744E-002	-1.31518E-002	0.00000E+000	-6.57254E-004	-1.29552E-001	3.80153E-002	3.32950E+001	11	...........	6.37101E-002	-4.22194E-003	5.64013E-001	6.50897E-001	-3.04881E-002	-4.02147E-002	6.37740E-001	-4.39571E-002	-8.37904E-004	5.55262E-005	-7.41779E-003	-8.56048E-003	4.00973E-004	5.28897E-004	-8.38743E-003	5.78115E-004
	26	26	4.99748E-002	-1.28586E-002	0.00000E+000	-6.42605E-004	-1.26654E-001	3.80123E-002	3.33409E+001	11	...........	6.37169E-002	-4.10750E-003	5.63884E-001	6.50899E-001	-3.05065E-002	-4.02149E-002	6.37904E-001	-4.40843E-002	-8.19310E-004	5.28167E-005	-7.25075E-003	-8.36964E-003	3.92271E-004	5.17107E-004	-8.20254E-003	5.66862E-004
	27	27	4.99750E-002	-1.25747E-002	0.00000E+000	-6.28422E-004	-1.23815E-001	3.80575E-002	3.33805E+001	11	...........	6.37624E-002	-4.26903E-003	5.63830E-001	6.50893E-001	-3.04424E-002	-4.02137E-002	6.37947E-001	-4.39974E-002	-8.01794E-004	5.36818E-005	-7.09000E-003	-8.18479E-003	3.82804E-004	5.05677E-004	-8.02201E-003	5.53254E-004
	28	28	4.99749E-002	-1.23208E-002	0.00000E+000	-6.15730E-004	-1.21285E-001	3.80653E-002	3.34405E+001	11	...........	6.38026E-002	-4.28139E-003	5.63822E-001	6.50868E-001	-3.04194E-002	-4.01389E-002	6.37827E-001	-4.39550E-002	-7.86099E-004	5.27501E-005	-6.94673E-003	-8.01921E-003	3.74791E-004	4.94543E-004	-7.85853E-003	5.41560E-004
	29	29	4.99751E-002	-1.20742E-002	0.00000E+000	-6.03408E-004	-1.18831E-001	3.80760E-002	3.34750E+001	11	...........	6.38329E-002	-4.38653E-003	5.63697E-001	6.50784E-001	-3.04267E-002	-4.01761E-002	6.37839E-001	-4.38514E-002	-7.70730E-004	5.29637E-005	-6.80618E-003	-7.85769E-003	3.67377E-004	4.85094E-004	-7.70138E-003	5.29470E-004
	30	30	4.99756E-002	-1.18335E-002	0.00000E+000	-5.91388E-004	-1.16428E-001	3.80915E-002	3.35153E+001	11	...........	6.38487E-002	-4.39250E-003	5.63544E-001	6.50579E-001	-3.04269E-002	-4.01667E-002	6.37986E-001	-4.38003E-002	-7.55557E-004	5.19788E-005	-6.66872E-003	-7.69865E-003	3.60058E-004	4.75314E-004	-7.54963E-003	5.18312E-004
	31	31	4.99753E-002	-1.16003E-002	0.00000E+000	-5.79730E-004	-1.14125E-001	3.81314E-002	3.35294E+001	11	...........	6.38790E-002	-4.32792E-003	5.63532E-001	6.50501E-001	-3.03736E-002	-4.01829E-002	6.37994E-001	-4.38708E-002	-7.41017E-004	5.02052E-005	-6.53714E-003	-7.54602E-003	3.52344E-004	4.66135E-004	-7.40093E-003	5.08916E-004
	32	32	4.99756E-002	-1.13883E-002	0.00000E+000	-5.69137E-004	-1.12019E-001	3.81254E-002	3.35397E+001	11	...........	6.39081E-002	-4.26236E-003	5.63602E-001	6.50348E-001	-3.04174E-002	-4.01825E-002	6.37950E-001	-4.39282E-002	-7.27804E-004	4.85410E-005	-6.41847E-003	-7.40635E-003	3.46402E-004	4.57610E-004	-7.26517E-003	5.00267E-004
	33	33	4.99758E-002	-1.11756E-002	0.00000E+000	-5.58511E-004	-1.09901E-001	3.81532E-002	3.35724E+001	11	...........	6.39599E-002	-4.29347E-003	5.63653E-001	6.50305E-001	-3.04144E-002	-4.02001E-002	6.37930E-001	-4.39606E-002	-7.14792E-004	4.79823E-005	-6.29918E-003	-7.26756E-003	3.39901E-004	4.49262E-004	-7.12927E-003	4.91287E-004
	34	34	4.99758E-002	-1.09781E-002	0.00000E+000	-5.48640E-004	-1.07930E-001	3.81688E-002	3.36074E+001	11	...........	6.39821E-002	-4.32236E-003	5.63586E-001	6.50461E-001	-3.04240E-002	-4.01707E-002	6.37885E-001	-4.39139E-002	-7.02402E-004	4.74513E-005	-6.18711E-003	-7.14082E-003	3.33998E-004	4.40998E-004	-7.00276E-003	4.82091E-004
	35	35	4.99759E-002	-1.07930E-002	0.00000E+000	-5.39390E-004	-1.06091E-001	3.81711E-002	3.36508E+001	11	...........	6.40262E-002	-4.25472E-003	5.63553E-001	6.50553E-001	-3.04487E-002	-4.01200E-002	6.37955E-001	-4.38664E-002	-6.91036E-004	4.59213E-005	-6.08243E-003	-7.02142E-003	3.28634E-004	4.33016E-004	-6.88545E-003	4.73450E-004
	36	36	4.99760E-002	-1.06024E-002	0.00000E+000	-5.29864E-004	-1.04187E-001	3.81733E-002	3.36694E+001	11	...........	6.40064E-002	-4.22153E-003	5.63614E-001	6.50526E-001	-3.04578E-002	-4.01717E-002	6.37848E-001	-4.38460E-002	-6.78619E-004	4.47581E-005	-5.97563E-003	-6.89711E-003	3.22924E-004	4.25914E-004	-6.76269E-003	4.64871E-004
	37	37	4.99758E-002	-1.04223E-002	0.00000E+000	-5.20865E-004	-1.02424E-001	3.82038E-002	3.36778E+001	11	...........	6.40417E-002	-4.11722E-003	5.63575E-001	6.50383E-001	-3.03975E-002	-4.01421E-002	6.37853E-001	-4.39172E-002	-6.67464E-004	4.29111E-005	-5.87377E-003	-6.77851E-003	3.16813E-004	4.18375E-004	-6.64793E-003	4.57720E-004
	38	38	4.99762E-002	-1.02480E-002	0.00000E+000	-5.12157E-004	-1.00714E-001	3.82044E-002	3.36888E+001	11	...........	6.40680E-002	-4.12667E-003	5.63687E-001	6.50478E-001	-3.04217E-002	-4.01285E-002	6.37815E-001	-4.38843E-002	-6.56571E-004	4.22902E-005	-5.77668E-003	-6.66612E-003	3.11762E-004	4.11238E-004	-6.53634E-003	4.49728E-004
	39	39	4.99764E-002	-1.00842E-002	0.00000E+000	-5.03972E-004	-9.90863E-002	3.82536E-002	3.36962E+001	11	...........	6.41344E-002	-4.15708E-003	5.63904E-001	6.50396E-001	-3.03961E-002	-4.00710E-002	6.37914E-001	-4.38529E-002	-6.46744E-004	4.19208E-005	-5.68652E-003	-6.55872E-003	3.06520E-004	4.04084E-004	-6.43285E-003	4.42221E-004
	40	40	4.99760E-002	-9.92451E-003	0.00000E+000	-4.95988E-004	-9.75037E-002	3.82892E-002	3.37193E+001	11	...........	6.41312E-002	-4.21944E-003	5.63826E-001	6.50273E-001	-3.03706E-002	-4.00401E-002	6.37851E-001	-4.39139E-002	-6.36471E-004	4.18759E-005	-5.59570E-003	-6.45365E-003	3.01413E-004	3.97379E-004	-6.33036E-003	4.35824E-004
	41	41	4.99762E-002	-9.76330E-003	0.00000E+000	-4.87932E-004	-9.58887E-002	3.83096E-002	3.37160E+001	11	...........	6.42060E-002	-4.25236E-003	5.63570E-001	6.50382E-001	-3.04456E-002	-4.00374E-002	6.37668E-001	-4.38237E-002	-6.26862E-004	4.15171E-005	-5.50230E-003	-6.34987E-003	2.97249E-004	3.90897E-004	-6.22574E-003	4.27864E-004
	42	42	4.99764E-002	-9.59747E-003	0.00000E+000	-4.79647E-004	-9.42460E-002	3.83402E-002	3.37312E+001	11	...........	6.42426E-002	-4.23417E-003	5.63679E-001	6.50347E-001	-3.03508E-002	-4.00081E-002	6.37660E-001	-4.38774E-002	-6.16567E-004	4.06373E-005	-5.40989E-003	-6.24168E-003	2.91291E-004	3.83976E-004	-6.11992E-003	4.21111E-004
	43	43	4.99759E-002	-9.44031E-003	0.00000E+000	-4.71788E-004	-9.26740E-002	3.83394E-002	3.37450E+001	11	...........	6.42419E-002	-4.29986E-003	5.63574E-001	6.50439E-001	-3.03482E-002	-4.00546E-002	6.37741E-001	-4.39217E-002	-6.06464E-004	4.05920E-005	-5.32031E-003	-6.14034E-003	2.86496E-004	3.78128E-004	-6.02047E-003	4.14634E-004
	44	44	4.99766E-002	-9.28835E-003	0.00000E+000	-4.64200E-004	-9.11610E-002	3.83604E-002	3.37489E+001	11	...........	6.42694E-002	-4.20542E-003	5.63753E-001	6.50616E-001	-3.03081E-002	-4.00411E-002	6.37663E-001	-4.38656E-002	-5.96957E-004	3.90614E-005	-5.23633E-003	-6.04315E-003	2.81512E-004	3.71916E-004	-5.92284E-003	4.07439E-004
	45	45	4.99765E-002	-9.14847E-003	0.00000E+000	-4.57209E-004	-8.97680E-002	3.83933E-002	3.37538E+001	11	...........	6.43111E-002	-4.14111E-003	5.63969E-001	6.50627E-001	-3.02553E-002	-4.00561E-002	6.37790E-001	-4.38443E-002	-5.88348E-004	3.78848E-005	-5.15946E-003	-5.95225E-003	2.76790E-004	3.66452E-004	-5.83481E-003	4.01108E-004
	46	46	4.99763E-002	-9.00747E-003	0.00000E+000	-4.50160E-004	-8.83810E-002	3.83820E-002	3.37588E+001	11	...........	6.42918E-002	-4.07222E-003	5.64080E-001	6.50486E-001	-3.03086E-002	-4.00894E-002	6.37791E-001	-4.38282E-002	-5.79107E-004	3.66804E-005	-5.08093E-003	-5.85924E-003	2.73004E-004	3.61105E-004	-5.74488E-003	3.94781E-004
	47	47	4.99765E-002	-8.87091E-003	0.00000E+000	-4.43337E-004	-8.70253E-002	3.83586E-002	3.37905E+001	11	...........	6.42904E-002	-4.05139E-003	5.63930E-001	6.50372E-001	-3.03176E-002	-4.00871E-002	6.37782E-001	-4.38150E-002	-5.70315E-004	3.59395E-005	-5.00257E-003	-5.76939E-003	2.68945E-004	3.55609E-004	-5.65771E-003	3.88679E-004
	48	48	4.99767E-002	-8.74109E-003	0.00000E+000	-4.36851E-004	-8.57323E-002	3.83877E-002	3.37968E+001	11	...........	6.43194E-002	-4.03528E-003	5.64061E-001	6.50272E-001	-3.03360E-002	-4.00903E-002	6.37783E-001	-4.38381E-002	-5.62222E-004	3.52727E-005	-4.93051E-003	-5.68409E-003	2.65170E-004	3.50433E-004	-5.57492E-003	3.83192E-004
	49	49	4.99766E-002	-8.61782E-003	0.00000E+000	-4.30689E-004	-8.45137E-002	3.84292E-002	3.38087E+001	11	...........	6.43626E-002	-4.09250E-003	5.64169E-001	6.50482E-001	-3.02912E-002	-4.00189E-002	6.37758E-001	-4.38185E-002	-5.54666E-004	3.52684E-005	-4.86191E-003	-5.60574E-003	2.61045E-004	3.44876E-004	-5.49609E-003	3.77620E-004
	50	50	4.99767E-002	-8.49891E-003	0.00000E+000	-4.24747E-004	-8.33140E-002	3.84067E-002	3.38278E+001	11	...........	6.43306E-002	-4.16250E-003	5.64197E-001	6.50560E-001	-3.03794E-002	-4.00356E-002	6.37572E-001	-4.38217E-002	-5.46740E-004	3.53767E-005	-4.79506E-003	-5.52905E-003	2.58192E-004	3.40259E-004	-5.41867E-003	3.72436E-004
	51	51	4.99769E-002	-8.38002E-003	0.00000E+000	-4.18807E-004	-8.21410E-002	3.84499E-002	3.38590E+001	11	...........	6.43987E-002	-4.06500E-003	5.64327E-001	6.50773E-001	-3.03549E-002	-4.00262E-002	6.37571E-001	-4.36896E-002	-5.39663E-004	3.40648E-005	-4.72907E-003	-5.45349E-003	2.54374E-004	3.35421E-004	-5.34286E-003	3.66120E-004
	52	52	4.99766E-002	-8.26134E-003	0.00000E+000	-4.12874E-004	-8.09600E-002	3.84378E-002	3.38931E+001	11	...........	6.44018E-002	-4.13417E-003	5.64256E-001	6.50787E-001	-3.05046E-002	-3.99862E-002	6.37659E-001	-4.37176E-002	-5.32045E-004	3.41538E-005	-4.66152E-003	-5.37638E-003	2.52009E-004	3.30340E-004	-5.26792E-003	3.61166E-004
	53	53	4.99768E-002	-8.14981E-003	0.00000E+000	-4.07301E-004	-7.98483E-002	3.84534E-002	3.39105E+001	11	...........	6.44375E-002	-4.24097E-003	5.64264E-001	6.50699E-001	-3.03086E-002	-4.00172E-002	6.37887E-001	-4.37189E-002	-5.25153E-004	3.45631E-005	-4.59865E-003	-5.30308E-003	2.47009E-004	3.26133E-004	-5.19866E-003	3.56301E-004
	54	54	4.99769E-002	-8.03755E-003	0.00000E+000	-4.01692E-004	-7.87340E-002	3.84871E-002	3.39417E+001	11	...........	6.44619E-002	-4.25875E-003	5.64357E-001	6.50806E-001	-3.03043E-002	-3.99583E-002	6.37905E-001	-4.37274E-002	-5.18116E-004	3.42299E-005	-4.53605E-003	-5.23089E-003	2.43572E-004	3.21167E-004	-5.12719E-003	3.51461E-004
	55	55	4.99768E-002	-7.93167E-003	0.00000E+000	-3.96399E-004	-7.76743E-002	3.84750E-002	3.39835E+001	11	...........	6.44385E-002	-4.18750E-003	5.64428E-001	6.50784E-001	-3.03628E-002	-3.99840E-002	6.37917E-001	-4.39400E-002	-5.11105E-004	3.32139E-005	-4.47686E-003	-5.16181E-003	2.40828E-004	3.17140E-004	-5.05975E-003	3.48518E-004
	56	56	4.99770E-002	-7.82819E-003	0.00000E+000	-3.91230E-004	-7.66633E-002	3.84817E-002	3.40115E+001	11	...........	6.44714E-002	-4.15444E-003	5.64478E-001	6.50891E-001	-3.06801E-002	-3.99939E-002	6.37936E-001	-4.39642E-002	-5.04694E-004	3.25218E-005	-4.41884E-003	-5.09530E-003	2.40170E-004	3.13080E-004	-4.99389E-003	3.44160E-004
	57	57	4.99771E-002	-7.72914E-003	0.00000E+000	-3.86280E-004	-7.56770E-002	3.84842E-002	3.40248E+001	11	...........	6.44594E-002	-4.29028E-003	5.64468E-001	6.50660E-001	-3.03931E-002	-4.01014E-002	6.37890E-001	-4.39672E-002	-4.98216E-004	3.31602E-005	-4.36286E-003	-5.02904E-003	2.34912E-004	3.09949E-004	-4.93034E-003	3.39829E-004
	58	58	4.99767E-002	-7.62931E-003	0.00000E+000	-3.81288E-004	-7.46740E-002	3.84776E-002	3.40225E+001	11	...........	6.44614E-002	-4.29639E-003	5.64147E-001	6.50587E-001	-3.03943E-002	-4.01237E-002	6.37843E-001	-4.38728E-002	-4.91796E-004	3.27785E-005	-4.30405E-003	-4.96353E-003	2.31888E-004	3.06117E-004	-4.86630E-003	3.34719E-004
	59	59	4.99769E-002	-7.52830E-003	0.00000E+000	-3.76241E-004	-7.36670E-002	3.84922E-002	3.40215E+001	11	...........	6.44730E-002	-4.27556E-003	5.64077E-001	6.50733E-001	-3.03657E-002	-4.01079E-002	6.37716E-001	-4.37887E-002	-4.85372E-004	3.21877E-005	-4.24654E-003	-4.89891E-003	2.28602E-004	3.01944E-004	-4.80091E-003	3.29655E-004
	60	60	4.99772E-002	-7.43119E-003	0.00000E+000	-3.71390E-004	-7.26940E-002	3.84894E-002	3.40623E+001	11	...........	6.44621E-002	-4.26653E-003	5.63954E-001	6.50739E-001	-3.04404E-002	-4.01217E-002	6.37798E-001	-4.39379E-002	-4.79030E-004	3.17054E-005	-4.19085E-003	-4.83576E-003	2.26208E-004	2.98152E-004	-4.73960E-003	3.26511E-004
	61	61	4.99768E-002	-7.33517E-003	0.00000E+000	-3.66588E-004	-7.17413E-002	3.85207E-002	3.40990E+001	11	...........	6.45043E-002	-4.25042E-003	5.63830E-001	6.50751E-001	-3.08710E-002	-4.00854E-002	6.37876E-001	-4.40235E-002	-4.73150E-004	3.11775E-005	-4.13579E-003	-4.77337E-003	2.26444E-004	2.94033E-004	-4.67893E-003	3.22920E-004
	62	62	4.99771E-002	-7.24479E-003	0.00000E+000	-3.62074E-004	-7.08367E-002	3.84986E-002	3.41363E+001	11	...........	6.45083E-002	-4.28153E-003	5.63808E-001	6.50769E-001	-3.32657E-002	-4.03258E-002	6.37770E-001	-4.38876E-002	-4.67349E-004	3.10188E-005	-4.08467E-003	-4.71468E-003	2.41003E-004	2.92152E-004	-4.62051E-003	3.17957E-004
	63	63	4.99771E-002	-7.15695E-003	0.00000E+000	-3.57684E-004	-6.99620E-002	3.85162E-002	3.41467E+001	11	...........	6.45387E-002	-4.31139E-003	5.64030E-001	6.50461E-001	-4.38454E-002	-4.24139E-002	6.38005E-001	-4.39276E-002	-4.61900E-004	3.08564E-005	-4.03673E-003	-4.65531E-003	3.13799E-004	3.03554E-004	-4.56617E-003	3.14388E-004
	64	64	4.99768E-002	-7.06303E-003	0.00000E+000	-3.52988E-004	-6.90287E-002	3.85321E-002	3.41335E+001	11	...........	6.45740E-002	-4.28750E-003	5.64398E-001	6.49614E-001	-1.02049E-001	-5.26826E-002	6.38910E-001	-4.41839E-002	-4.56088E-004	3.02827E-005	-3.98636E-003	-4.58824E-003	7.20774E-004	3.72099E-004	-4.51264E-003	3.12072E-004
	65	65	4.99771E-002	-6.97297E-003	0.00000E+000	-3.48489E-004	-6.81340E-002	3.85372E-002	3.41375E+001	11	...........	6.45743E-002	-4.07319E-003	5.64161E-001	6.50284E-001	-4.66581E-002	-5.30426E-002	6.37525E-001	-4.37237E-002	-4.50275E-004	2.84023E-005	-3.93388E-003	-4.53441E-003	3.25345E-004	3.69865E-004	-4.44544E-003	3.04884E-004
	66	66	4.99773E-002	-6.88838E-003	0.00000E+000	-3.44263E-004	-6.72877E-002	3.85482E-002	3.41684E+001	11	...........	6.45956E-002	-4.03917E-003	5.63989E-001	6.50602E-001	-1.27147E-002	-4.79326E-002	6.37092E-001	-4.36028E-002	-4.44959E-004	2.78233E-005	-3.88497E-003	-4.48159E-003	8.75838E-005	3.30178E-004	-4.38853E-003	3.00352E-004
	67	67	4.99770E-002	-6.80504E-003	0.00000E+000	-3.40096E-004	-6.64650E-002	3.85912E-002	3.41414E+001	11	...........	6.46439E-002	-3.92917E-003	5.64055E-001	6.50569E-001	-7.73750E-003	-4.45475E-002	6.37317E-001	-4.35887E-002	-4.39904E-004	2.67381E-005	-3.83842E-003	-4.42715E-003	5.26540E-005	3.03147E-004	-4.33697E-003	2.96623E-004
	68	68	4.99770E-002	-6.72357E-003	0.00000E+000	-3.36024E-004	-6.56560E-002	3.85992E-002	3.41399E+001	11	...........	6.46432E-002	-3.95431E-003	5.64059E-001	6.50418E-001	-1.22639E-002	-4.24485E-002	6.37684E-001	-4.37299E-002	-4.34633E-004	2.65870E-005	-3.79249E-003	-4.37313E-003	8.24571E-005	2.85405E-004	-4.28751E-003	2.94021E-004
	69	69	4.99773E-002	-6.64654E-003	0.00000E+000	-3.32176E-004	-6.48923E-002	3.86228E-002	3.41493E+001	11	...........	6.46901E-002	-4.17278E-003	5.64139E-001	6.50261E-001	-1.68657E-002	-4.07476E-002	6.37831E-001	-4.38043E-002	-4.29966E-004	2.77345E-005	-3.74957E-003	-4.32199E-003	1.12099E-004	2.70831E-004	-4.23937E-003	2.91147E-004
	70	70	4.99770E-002	-6.57048E-003	0.00000E+000	-3.28373E-004	-6.41223E-002	3.86234E-002	3.41381E+001	11	...........	6.46858E-002	-4.25333E-003	5.64129E-001	6.50300E-001	-1.81296E-002	-4.07987E-002	6.37754E-001	-4.38333E-002	-4.25017E-004	2.79464E-005	-3.70660E-003	-4.27278E-003	1.19120E-004	2.68067E-004	-4.19035E-003	2.88006E-004
	71	71	4.99772E-002	-6.48548E-003	0.00000E+000	-3.24126E-004	-6.32927E-002	3.86412E-002	3.41213E+001	11	...........	6.47103E-002	-4.11778E-003	5.64068E-001	6.50321E-001	-2.03228E-002	-4.00432E-002	6.37702E-001	-4.40100E-002	-4.19677E-004	2.67057E-005	-3.65825E-003	-4.21764E-003	1.31803E-004	2.59699E-004	-4.13580E-003	2.85426E-004
	72	72	4.99774E-002	-6.40639E-003	0.00000E+000	-3.20175E-004	-6.25170E-002	3.86168E-002	3.40949E+001	11	...........	6.47229E-002	-4.13417E-003	5.64047E-001	6.50164E-001	-2.23850E-002	-3.93961E-002	6.37456E-001	-4.40675E-002	-4.14640E-004	2.64851E-005	-3.61351E-003	-4.16521E-003	1.43407E-004	2.52387E-004	-4.08379E-003	2.82314E-004
	73	73	4.99772E-002	-6.33454E-003	0.00000E+000	-3.16583E-004	-6.18000E-002	3.86189E-002	3.40654E+001	11	...........	6.47210E-002	-4.06931E-003	5.64017E-001	6.50113E-001	-2.44100E-002	-3.87818E-002	6.37693E-001	-4.40074E-002	-4.09977E-004	2.57772E-005	-3.57278E-003	-4.11816E-003	1.54626E-004	2.45665E-004	-4.03949E-003	2.78766E-004
	74	74	4.99773E-002	-6.26731E-003	0.00000E+000	-3.13223E-004	-6.11317E-002	3.86432E-002	3.40797E+001	11	...........	6.47315E-002	-4.12278E-003	5.63906E-001	6.50190E-001	-2.58924E-002	-3.83501E-002	6.37810E-001	-4.38918E-002	-4.05693E-004	2.58387E-005	-3.53418E-003	-4.07494E-003	1.62275E-004	2.40352E-004	-3.99735E-003	2.75084E-004
	75	75	4.99773E-002	-6.19413E-003	0.00000E+000	-3.09566E-004	-6.04030E-002	3.86503E-002	3.41012E+001	11	...........	6.47571E-002	-4.11472E-003	5.63779E-001	6.50373E-001	-2.70890E-002	-3.80708E-002	6.37747E-001	-4.38929E-002	-4.01114E-004	2.54871E-005	-3.49212E-003	-4.02850E-003	1.67793E-004	2.35816E-004	-3.95029E-003	2.71878E-004
	76	76	4.99772E-002	-6.12373E-003	0.00000E+000	-3.06047E-004	-5.96970E-002	3.86519E-002	3.41185E+001	11	...........	6.47453E-002	-4.07069E-003	5.63717E-001	6.50354E-001	-2.80708E-002	-3.79485E-002	6.37767E-001	-4.39608E-002	-3.96483E-004	2.49278E-005	-3.45205E-003	-3.98259E-003	1.71898E-004	2.32386E-004	-3.90551E-003	2.69204E-004
	77	77	4.99772E-002	-6.05738E-003	0.00000E+000	-3.02731E-004	-5.90360E-002	3.85642E-002	3.41337E+001	11	...........	6.47685E-002	-4.16403E-003	5.63648E-001	6.50189E-001	-2.88161E-002	-3.79101E-002	6.37635E-001	-4.40265E-002	-3.92327E-004	2.52231E-005	-3.41423E-003	-3.93844E-003	1.74550E-004	2.29636E-004	-3.86239E-003	2.66685E-004
	78	78	4.99774E-002	-5.98683E-003	0.00000E+000	-2.99206E-004	-5.83350E-002	3.86505E-002	3.41600E+001	11	...........	6.47971E-002	-4.18028E-003	5.63489E-001	6.50082E-001	-2.94290E-002	-3.78656E-002	6.37596E-001	-4.40093E-002	-3.87929E-004	2.50266E-005	-3.37351E-003	-3.89193E-003	1.76186E-004	2.26694E-004	-3.81718E-003	2.63476E-004
	79	79	4.99773E-002	-5.91923E-003	0.00000E+000	-2.95827E-004	-5.76573E-002	3.86718E-002	3.41874E+001	11	...........	6.47961E-002	-4.13278E-003	5.63582E-001	6.50131E-001	-2.98871E-002	-3.78496E-002	6.37559E-001	-4.40597E-002	-3.83543E-004	2.44629E-005	-3.33597E-003	-3.84827E-003	1.76909E-004	2.24040E-004	-3.77386E-003	2.60800E-004
	80	80	4.99773E-002	-5.85244E-003	0.00000E+000	-2.92489E-004	-5.69900E-002	3.86700E-002	3.42074E+001	11	...........	6.47775E-002	-4.10556E-003	5.63594E-001	6.50207E-001	-3.02619E-002	-3.79053E-002	6.37683E-001	-4.40954E-002	-3.79107E-004	2.40275E-005	-3.29840E-003	-3.80530E-003	1.77106E-004	2.21838E-004	-3.73200E-003	2.58066E-004
	81	81	4.99775E-002	-5.78902E-003	0.00000E+000	-2.89321E-004	-5.63627E-002	3.86893E-002	3.42346E+001	11	...........	6.48149E-002	-4.11889E-003	5.63441E-001	6.50310E-001	-3.05028E-002	-3.79522E-002	6.37713E-001	-4.40437E-002	-3.75215E-004	2.38443E-005	-3.26177E-003	-3.76466E-003	1.76581E-004	2.19706E-004	-3.69173E-003	2.54970E-004
	82	82	4.99772E-002	-5.72800E-003	0.00000E+000	-2.86269E-004	-5.57527E-002	3.86597E-002	3.42467E+001	11	...........	6.48030E-002	-4.22333E-003	5.63508E-001	6.50233E-001	-3.07733E-002	-3.80661E-002	6.37625E-001	-4.39793E-002	-3.71192E-004	2.41912E-005	-3.22777E-003	-3.72453E-003	1.76270E-004	2.18043E-004	-3.65231E-003	2.51913E-004
	83	83	4.99775E-002	-5.66500E-003	0.00000E+000	-2.83122E-004	-5.51290E-002	3.86826E-002	3.42752E+001	11	...........	6.48318E-002	-4.14028E-003	5.63668E-001	6.50385E-001	-3.08536E-002	-3.80876E-002	6.37621E-001	-4.39387E-002	-3.67272E-004	2.34547E-005	-3.19318E-003	-3.68443E-003	1.74786E-004	2.15767E-004	-3.61212E-003	2.48913E-004
	84	84	4.99775E-002	-5.60533E-003	0.00000E+000	-2.80140E-004	-5.45303E-002	3.86882E-002	3.42822E+001	11	...........	6.48140E-002	-4.16472E-003	5.63579E-001	6.50499E-001	-3.09544E-002	-3.81897E-002	6.37562E-001	-4.38826E-002	-3.63304E-004	2.33446E-005	-3.15905E-003	-3.64626E-003	1.73510E-004	2.14066E-004	-3.57374E-003	2.45977E-004
	85	85	4.99774E-002	-5.54815E-003	0.00000E+000	-2.77282E-004	-5.39647E-002	3.87086E-002	3.43016E+001	11	...........	6.48318E-002	-4.18347E-003	5.63633E-001	6.50224E-001	-3.10632E-002	-3.82921E-002	6.37764E-001	-4.38689E-002	-3.59696E-004	2.32105E-005	-3.12712E-003	-3.60754E-003	1.72343E-004	2.12450E-004	-3.53841E-003	2.43391E-004
	86	86	4.99774E-002	-5.49467E-003	0.00000E+000	-2.74609E-004	-5.34273E-002	3.86959E-002	3.43183E+001	11	...........	6.48419E-002	-4.18597E-003	5.63621E-001	6.50098E-001	-3.10825E-002	-3.84139E-002	6.37754E-001	-4.38972E-002	-3.56285E-004	2.30005E-005	-3.09691E-003	-3.57207E-003	1.70788E-004	2.11072E-004	-3.50425E-003	2.41201E-004
	87	87	4.99774E-002	-5.43321E-003	0.00000E+000	-2.71538E-004	-5.28183E-002	3.87063E-002	3.43156E+001	11	...........	6.48694E-002	-4.01889E-003	5.63642E-001	6.50046E-001	-3.11115E-002	-3.85025E-002	6.37541E-001	-4.39035E-002	-3.52449E-004	2.18355E-005	-3.06239E-003	-3.53184E-003	1.69036E-004	2.09192E-004	-3.46390E-003	2.38537E-004
	88	88	4.99775E-002	-5.37459E-003	0.00000E+000	-2.68609E-004	-5.22353E-002	3.87106E-002	3.43002E+001	11	...........	6.48644E-002	-4.08597E-003	5.63727E-001	6.50110E-001	-3.11517E-002	-3.85499E-002	6.37551E-001	-4.38524E-002	-3.48620E-004	2.19604E-005	-3.02980E-003	-3.49408E-003	1.67428E-004	2.07190E-004	-3.42658E-003	2.35689E-004
	89	89	4.99774E-002	-5.31887E-003	0.00000E+000	-2.65824E-004	-5.16770E-002	3.87109E-002	3.42857E+001	11	...........	6.48897E-002	-4.15319E-003	5.63920E-001	6.49936E-001	-3.11717E-002	-3.86194E-002	6.37737E-001	-4.38200E-002	-3.45140E-004	2.20903E-005	-2.99942E-003	-3.45693E-003	1.65798E-004	2.05412E-004	-3.39204E-003	2.33073E-004
	90	90	4.99775E-002	-5.26505E-003	0.00000E+000	-2.63134E-004	-5.11567E-002	3.87480E-002	3.42819E+001	11	...........	6.49089E-002	-4.15528E-003	5.63913E-001	6.49897E-001	-3.11175E-002	-3.86703E-002	6.37734E-001	-4.39546E-002	-3.41748E-004	2.18777E-005	-2.96903E-003	-3.42174E-003	1.63835E-004	2.03601E-004	-3.35770E-003	2.31423E-004
	91	91	4.99775E-002	-5.21048E-003	0.00000E+000	-2.60407E-004	-5.06230E-002	3.87618E-002	3.42889E+001	11	...........	6.49214E-002	-4.13611E-003	5.63917E-001	6.50000E-001	-3.11165E-002	-3.87236E-002	6.37779E-001	-4.40711E-002	-3.38272E-004	2.15511E-005	-2.93828E-003	-3.38682E-003	1.62132E-004	2.01769E-004	-3.32314E-003	2.29632E-004
	92	92	4.99775E-002	-5.15726E-003	0.00000E+000	-2.57747E-004	-5.00850E-002	3.87367E-002	3.43145E+001	11	...........	6.48833E-002	-4.22389E-003	5.63869E-001	6.50112E-001	-3.11206E-002	-3.87825E-002	6.37742E-001	-4.40839E-002	-3.34620E-004	2.17837E-005	-2.90802E-003	-3.35280E-003	1.60497E-004	2.00012E-004	-3.28901E-003	2.27352E-004
	93	93	4.99776E-002	-5.11018E-003	0.00000E+000	-2.55394E-004	-4.96110E-002	3.87167E-002	3.43332E+001	11	...........	6.48867E-002	-4.18819E-003	5.63825E-001	6.50153E-001	-3.11099E-002	-3.89083E-002	6.37732E-001	-4.41217E-002	-3.31582E-004	2.14024E-005	-2.88125E-003	-3.32240E-003	1.58977E-004	1.98828E-004	-3.25892E-003	2.25470E-004
	94	94	4.99775E-002	-5.06145E-003	0.00000E+000	-2.52959E-004	-4.91217E-002	3.87016E-002	3.43400E+001	11	...........	6.48711E-002	-4.19569E-003	5.63775E-001	6.50164E-001	-3.11522E-002	-3.90110E-002	6.37674E-001	-4.41449E-002	-3.28342E-004	2.12363E-005	-2.85352E-003	-3.29077E-003	1.57675E-004	1.97452E-004	-3.22756E-003	2.23437E-004
	95	94.125	4.99776E-002	-5.02734E-003	0.00000E+000	-2.51254E-004	-4.87867E-002	3.86993E-002	3.43267E+001	11	...........	6.48878E-002	-4.13889E-003	5.63982E-001	6.50147E-001	-3.10111E-002	-3.90144E-002	6.37798E-001	-4.40144E-002	-3.26213E-004	2.08076E-005	-2.83533E-003	-3.26851E-003	1.55903E-004	1.96139E-004	-3.20642E-003	2.21275E-004
STARTTIMEOFFSET	QUANT	509387	Start Time Offset (s)
