EXPLAIN
TAG	PWR800_DISCHARGE
TITLE	LABEL	PWR Discharge	Test Identifier
DATE	LABEL	10/14/2022	Date
TIME	LABEL	2:44:27	Time
NOTES	NOTES	1	Notes...
	
PSTAT	PSTAT	REF3000-21114	Potentiostat
CAPACITY	QUANT	5.30000E-002	Capacity (A-hr)
CELLTYPE	SELECTOR	1	Cell Type
WORKINGCONNECTION	SELECTOR	0	Working Connection
MAXDISCHARGETIME	VARIABLEANDUNITS	7.20000E+003	s	2.00000E+000	hour(s)	Max Discharge Time
DISCHARGEMODE	MULTIPARAM	0	1.00000E-001	Discharge Mode	Constant Current	Amp(s)
VOLTAGEFINISH	TWOPARAM	T	5.00000E-003	7.20000E+003	Voltage Finish	I (A) <	Max Time(s)
SAMPLETIME	QUANT	1.00000E+000	Sample Period (s)
DISCHARGESTOPAT1	MULTIPARAM	1	5.00000E-002	Stop At 1	|Voltage| < Limit	V
DISCHARGESTOPAT2	MULTIPARAM	0	0.00000E+000	Stop At 2	None	N/A
AESELECTOR	AESELECTOR	0x1	T	Set Limits	AE Channels
AESBHCSELECTOR	TOGGLE	F	Save Both Half Cells
IRCOMP	TOGGLE	F	IR Measure
EOC	QUANT	0.5742188	Open Circuit (V)
SEQUENCER	TOGGLE	TRUE	Run as Sequence
PSTATMODEL	IQUANT	5	Pstat Model
PSTATSECTION	LABEL	REF3000-21114	Pstat Section
PSTATSERIALNO	LABEL	21114	Pstat Serial Number
CTRLMODE	IQUANT	0	Control Mode
ELECTROMETER	IQUANT	0	RE=0 or CS=1
IESTAB	IQUANT	0	I/E Stability
CASPEED	IQUANT	4	Control Amp Speed
CONVENTION	IQUANT	1	Current Convention
ICHRANGE	IQUANT	2	Ich Range
ICHRANGEMODE	TOGGLE	T	Ich Auto Range
ICHOFFSETENABLE	TOGGLE	F	Ich Offset Enable
ICHOFFSET	QUANT	0	Ich Offset (V)
ICHFILTER	IQUANT	1	Ich Filter
VCHRANGE	IQUANT	3	Vch Range
VCHRANGEMODE	TOGGLE	T	Vch Auto Range
VCHOFFSETENABLE	TOGGLE	F	Vch Offset Enable
VCHOFFSET	QUANT	0	Vch Offset (V)
VCHFILTER	IQUANT	1	Vch Filter
ACHRANGE	IQUANT	2	Ach Range
ACHOFFSETENABLE	TOGGLE	F	Ach Offset Enable
ACHOFFSET	QUANT	0	Ach Offset (V)
ACHFILTER	IQUANT	1	Ach Filter
IERANGELOWERLIMIT	IQUANT	9	I/E Range Lower Limit
IERANGEMODE	TOGGLE	F	I/E AutoRange
IERANGE	IQUANT	9	I/E Range
POSFEEDENABLE	TOGGLE	F	Positive Feedback IR Comp
POSFEEDRESISTANCE	QUANT	0	Positive Feedback Resistance (ohm)
ACHSELECT	IQUANT	1	Ach Select
SENSECABLEID	IQUANT	13	Sense Cable ID
PWRCABLEID	IQUANT	13	Power Cable ID
DCCALDATE	LABEL		DC Calibration Date
ACCALDATE	LABEL		AC Calibration Date
THERMOSELECT	IQUANT	1	Thermo Select
FRAMEWORKVERSION	LABEL	7.8.6	Framework Version
INSTRUMENTVERSION	LABEL	4.50	Instrument Version
COMPLIANCEVOLTAGE	IQUANT	0	Compliance Voltage
CURVE	TABLE	258
	Pt	T	Vf	Im	Vu	Pwr	Sig	Ach	Temp	IERange	Over	Vf1	Vf2	Vf3	Vf4	Vf5	Vf6	Vf7	Vf8	Pwr1	Pwr2	Pwr3	Pwr4	Pwr5	Pwr6	Pwr7	Pwr8
	#	s	V	A	V	W	V	V	deg C	#	bits	V	V	V	V	V	V	V	V	W	W	W	W	W	W	W	W
	0	1	3.50840E-001	-1.00096E-001	0.00000E+000	-3.51176E-002	-9.94000E-001	3.71963E-002	3.16248E+001	11	...........	6.18543E-002	-5.22861E-003	6.05791E-001	5.40416E-001	-2.69597E-002	-3.80103E-002	7.05838E-001	-4.36703E-002	-6.19135E-003	5.23362E-004	-6.06371E-002	-5.40933E-002	2.69855E-003	3.80467E-003	-7.06514E-002	4.37121E-003
	1	2	2.65919E-001	-1.00096E-001	0.00000E+000	-2.66174E-002	-9.94000E-001	3.72423E-002	3.07099E+001	11	...........	6.19269E-002	-5.16153E-003	6.05770E-001	5.40536E-001	-2.69904E-002	-3.80310E-002	7.05945E-001	-4.37181E-002	-6.19861E-003	5.16646E-004	-6.06349E-002	-5.41053E-002	2.70162E-003	3.80673E-003	-7.06619E-002	4.37599E-003
	2	3	2.03691E-001	-1.00096E-001	0.00000E+000	-2.03887E-002	-9.94000E-001	3.71731E-002	3.01840E+001	11	...........	6.18144E-002	-5.13222E-003	6.05740E-001	5.40563E-001	-2.69815E-002	-3.80619E-002	7.05885E-001	-4.37115E-002	-6.18738E-003	5.13715E-004	-6.06322E-002	-5.41082E-002	2.70074E-003	3.80985E-003	-7.06563E-002	4.37535E-003
	3	4	1.55016E-001	-1.00097E-001	0.00000E+000	-1.55166E-002	-9.94000E-001	3.71651E-002	2.95881E+001	11	...........	6.17893E-002	-5.15069E-003	6.05773E-001	5.40670E-001	-2.69862E-002	-3.80740E-002	7.05901E-001	-4.36565E-002	-6.18490E-003	5.15567E-004	-6.06358E-002	-5.41192E-002	2.70123E-003	3.81108E-003	-7.06583E-002	4.36987E-003
	4	5	1.16495E-001	-1.00096E-001	0.00000E+000	-1.16607E-002	-9.94000E-001	3.71482E-002	2.91163E+001	11	...........	6.17615E-002	-5.14347E-003	6.05681E-001	5.40600E-001	-2.69762E-002	-3.80735E-002	7.05975E-001	-4.37011E-002	-6.18211E-003	5.14843E-004	-6.06265E-002	-5.41122E-002	2.70023E-003	3.81102E-003	-7.06656E-002	4.37433E-003
	5	6	8.64374E-002	-1.00097E-001	0.00000E+000	-8.65209E-003	-9.94000E-001	3.71703E-002	2.88263E+001	11	...........	6.17804E-002	-5.18292E-003	6.05756E-001	5.40591E-001	-2.69694E-002	-3.80317E-002	7.06011E-001	-4.36921E-002	-6.18401E-003	5.18792E-004	-6.06342E-002	-5.41113E-002	2.69955E-003	3.80684E-003	-7.06693E-002	4.37343E-003
	6	7	6.33468E-002	-1.00096E-001	0.00000E+000	-6.34078E-003	-9.94000E-001	3.72486E-002	2.86703E+001	11	...........	6.19143E-002	-5.16458E-003	6.05791E-001	5.40652E-001	-2.69885E-002	-3.80240E-002	7.06039E-001	-4.38526E-002	-6.19740E-003	5.16956E-004	-6.06375E-002	-5.41173E-002	2.70145E-003	3.80607E-003	-7.06719E-002	4.38949E-003
	7	7.265	5.21291E-002	-1.00097E-001	0.00000E+000	-5.21797E-003	-9.94000E-001	3.72975E-002	2.86157E+001	11	...........	6.20314E-002	-5.25472E-003	6.05818E-001	5.40725E-001	-2.69754E-002	-3.80356E-002	7.06203E-001	-4.38574E-002	-6.20916E-003	5.25982E-004	-6.06406E-002	-5.41250E-002	2.70015E-003	3.80725E-003	-7.06888E-002	4.39000E-003
	8	8	4.98390E-002	-9.49975E-002	0.00000E+000	-4.73458E-003	-9.43284E-001	3.73522E-002	2.80453E+001	11	...........	6.21079E-002	-5.21485E-003	6.05824E-001	5.40772E-001	-2.69864E-002	-3.80325E-002	7.06006E-001	-4.37519E-002	-5.90009E-003	4.95398E-004	-5.75518E-002	-5.13720E-002	2.56364E-003	3.61299E-003	-6.70688E-002	4.15632E-003
	9	9	4.99052E-002	-8.65487E-002	0.00000E+000	-4.31923E-003	-8.59280E-001	3.74217E-002	2.89557E+001	11	...........	6.22000E-002	-5.22417E-003	6.05828E-001	5.40802E-001	-2.69758E-002	-3.80583E-002	7.06051E-001	-4.38107E-002	-5.38333E-003	4.52145E-004	-5.24336E-002	-4.68057E-002	2.33472E-003	3.29390E-003	-6.11078E-002	3.79176E-003
	10	10	4.99340E-002	-8.18791E-002	0.00000E+000	-4.08855E-003	-8.12857E-001	3.74847E-002	2.90046E+001	11	...........	6.23258E-002	-5.22889E-003	6.05602E-001	5.40806E-001	-2.69853E-002	-3.80682E-002	7.06041E-001	-4.38190E-002	-5.10318E-003	4.28137E-004	-4.95861E-002	-4.42808E-002	2.20953E-003	3.11699E-003	-5.78100E-002	3.58786E-003
	11	11	4.99602E-002	-7.91245E-002	0.00000E+000	-3.95308E-003	-7.85475E-001	3.76313E-002	2.95424E+001	11	...........	6.25519E-002	-5.10167E-003	6.05635E-001	5.40843E-001	-2.69700E-002	-3.80776E-002	7.06011E-001	-4.37432E-002	-4.94939E-003	4.03667E-004	-4.79205E-002	-4.27939E-002	2.13399E-003	3.01287E-003	-5.58628E-002	3.46116E-003
	12	12	4.99661E-002	-7.71550E-002	0.00000E+000	-3.85513E-003	-7.65884E-001	3.77090E-002	2.98131E+001	11	...........	6.26730E-002	-5.22500E-003	6.05708E-001	5.41017E-001	-2.69818E-002	-3.80868E-002	7.06006E-001	-4.37813E-002	-4.83554E-003	4.03135E-004	-4.67335E-002	-4.17422E-002	2.08178E-003	2.93859E-003	-5.44719E-002	3.37794E-003
	13	13	4.99652E-002	-7.53005E-002	0.00000E+000	-3.76240E-003	-7.47442E-001	3.78277E-002	2.96990E+001	11	...........	6.28686E-002	-5.25917E-003	6.05600E-001	5.40986E-001	-2.69990E-002	-3.80961E-002	7.05890E-001	-4.37668E-002	-4.73404E-003	3.96018E-004	-4.56020E-002	-4.07365E-002	2.03304E-003	2.86866E-003	-5.31539E-002	3.29566E-003
	14	14	4.99761E-002	-7.38355E-002	0.00000E+000	-3.69001E-003	-7.32867E-001	3.79001E-002	3.00541E+001	11	...........	6.29935E-002	-5.19389E-003	6.05702E-001	5.40884E-001	-2.70064E-002	-3.80918E-002	7.05857E-001	-4.38290E-002	-4.65115E-003	3.83493E-004	-4.47223E-002	-3.99364E-002	1.99403E-003	2.81253E-003	-5.21173E-002	3.23614E-003
	15	15	4.99756E-002	-7.26748E-002	0.00000E+000	-3.63197E-003	-7.21324E-001	3.79836E-002	3.01870E+001	11	...........	6.31610E-002	-5.24597E-003	6.05778E-001	5.40851E-001	-2.69982E-002	-3.80965E-002	7.05910E-001	-4.40186E-002	-4.59021E-003	3.81250E-004	-4.40248E-002	-3.93063E-002	1.96209E-003	2.76866E-003	-5.13019E-002	3.19905E-003
	16	16	4.99744E-002	-7.14369E-002	0.00000E+000	-3.57001E-003	-7.09051E-001	3.80883E-002	3.02942E+001	11	...........	6.33261E-002	-5.31375E-003	6.05734E-001	5.40886E-001	-2.69921E-002	-3.81090E-002	7.05922E-001	-4.39986E-002	-4.52382E-003	3.79598E-004	-4.32717E-002	-3.86392E-002	1.92823E-003	2.72239E-003	-5.04289E-002	3.14312E-003
	17	17	4.99749E-002	-7.04101E-002	0.00000E+000	-3.51874E-003	-6.98837E-001	3.81939E-002	3.03866E+001	11	...........	6.34808E-002	-5.36417E-003	6.05643E-001	5.40870E-001	-2.69901E-002	-3.80857E-002	7.05898E-001	-4.39500E-002	-4.46969E-003	3.77692E-004	-4.26434E-002	-3.80827E-002	1.90038E-003	2.68162E-003	-4.97024E-002	3.09452E-003
	18	18	4.99786E-002	-6.93100E-002	0.00000E+000	-3.46401E-003	-6.87902E-001	3.82526E-002	3.05010E+001	11	...........	6.35825E-002	-5.32125E-003	6.05732E-001	5.40899E-001	-2.70099E-002	-3.80585E-002	7.05934E-001	-4.39274E-002	-4.40690E-003	3.68816E-004	-4.19833E-002	-3.74897E-002	1.87205E-003	2.63783E-003	-4.89283E-002	3.04460E-003
	19	19	4.99740E-002	-6.85536E-002	0.00000E+000	-3.42589E-003	-6.80373E-001	3.83500E-002	3.05664E+001	11	...........	6.37419E-002	-5.34139E-003	6.05655E-001	5.40974E-001	-2.69953E-002	-3.80717E-002	7.05884E-001	-4.38810E-002	-4.36974E-003	3.66171E-004	-4.15198E-002	-3.70857E-002	1.85062E-003	2.60995E-003	-4.83908E-002	3.00820E-003
	20	20	4.99566E-002	-6.74879E-002	0.00000E+000	-3.37147E-003	-6.69776E-001	3.83182E-002	3.00693E+001	11	...........	6.38492E-002	-5.36722E-003	6.05736E-001	5.41143E-001	-2.69918E-002	-3.80801E-002	7.05857E-001	-4.37517E-002	-4.30905E-003	3.62223E-004	-4.08799E-002	-3.65206E-002	1.82162E-003	2.56995E-003	-4.76368E-002	2.95271E-003
	21	21	5.00015E-002	-6.64032E-002	0.00000E+000	-3.32026E-003	-6.58987E-001	3.83548E-002	3.05607E+001	11	...........	6.40064E-002	-5.39333E-003	6.05824E-001	5.41211E-001	-2.69967E-002	-3.80546E-002	7.05869E-001	-4.38275E-002	-4.25023E-003	3.58135E-004	-4.02287E-002	-3.59381E-002	1.79266E-003	2.52695E-003	-4.68720E-002	2.91029E-003
	22	22	4.99800E-002	-6.63163E-002	0.00000E+000	-3.31449E-003	-6.58124E-001	3.83818E-002	3.07235E+001	11	...........	6.40524E-002	-5.32403E-003	6.05909E-001	5.41148E-001	-2.69821E-002	-3.81049E-002	7.05856E-001	-4.38626E-002	-4.24772E-003	3.53070E-004	-4.01817E-002	-3.58870E-002	1.78935E-003	2.52697E-003	-4.68098E-002	2.90881E-003
	23	23	4.99711E-002	-6.50130E-002	0.00000E+000	-3.24877E-003	-6.45160E-001	3.84984E-002	3.06235E+001	11	...........	6.42436E-002	-5.27569E-003	6.05991E-001	5.41218E-001	-2.69839E-002	-3.80976E-002	7.05934E-001	-4.37960E-002	-4.17667E-003	3.42989E-004	-3.93973E-002	-3.51862E-002	1.75430E-003	2.47684E-003	-4.58949E-002	2.84731E-003
	24	24	4.99574E-002	-6.37062E-002	0.00000E+000	-3.18260E-003	-6.32164E-001	3.84567E-002	2.95529E+001	11	...........	6.41879E-002	-5.28500E-003	6.05902E-001	5.41118E-001	-2.69794E-002	-3.80728E-002	7.05715E-001	-4.38196E-002	-4.08917E-003	3.36687E-004	-3.85998E-002	-3.44726E-002	1.71876E-003	2.42547E-003	-4.49584E-002	2.79158E-003
	25	25	5.00042E-002	-6.32000E-002	0.00000E+000	-3.16026E-003	-6.27133E-001	3.86777E-002	3.06055E+001	11	...........	6.45340E-002	-5.28014E-003	6.05942E-001	5.41152E-001	-2.69786E-002	-3.80717E-002	7.05676E-001	-4.38315E-002	-4.07855E-003	3.33705E-004	-3.82955E-002	-3.42008E-002	1.70505E-003	2.40613E-003	-4.45987E-002	2.77015E-003
	26	26	4.99857E-002	-6.32750E-002	0.00000E+000	-3.16285E-003	-6.27879E-001	3.86298E-002	3.09119E+001	11	...........	6.44515E-002	-5.28125E-003	6.06236E-001	5.41229E-001	-2.69854E-002	-3.80812E-002	7.05649E-001	-4.37811E-002	-4.07817E-003	3.34171E-004	-3.83596E-002	-3.42463E-002	1.70750E-003	2.40959E-003	-4.46500E-002	2.77025E-003
	27	27	4.99748E-002	-6.27257E-002	0.00000E+000	-3.13471E-003	-6.22415E-001	3.87254E-002	3.09281E+001	11	...........	6.46112E-002	-5.29806E-003	6.06397E-001	5.41086E-001	-2.69829E-002	-3.80868E-002	7.05712E-001	-4.38506E-002	-4.05279E-003	3.32324E-004	-3.80367E-002	-3.39400E-002	1.69252E-003	2.38902E-003	-4.42663E-002	2.75056E-003
	28	28	4.99799E-002	-6.20923E-002	0.00000E+000	-3.10337E-003	-6.16118E-001	3.87914E-002	3.10082E+001	11	...........	6.47155E-002	-5.36806E-003	6.06344E-001	5.41211E-001	-2.69810E-002	-3.80594E-002	7.05673E-001	-4.37282E-002	-4.01834E-003	3.33315E-004	-3.76493E-002	-3.36050E-002	1.67531E-003	2.36320E-003	-4.38169E-002	2.71519E-003
	29	29	4.99838E-002	-6.13653E-002	0.00000E+000	-3.06727E-003	-6.08907E-001	3.88137E-002	3.10417E+001	11	...........	6.47699E-002	-5.34917E-003	6.06353E-001	5.41337E-001	-2.69837E-002	-3.80547E-002	7.05664E-001	-4.38489E-002	-3.97462E-003	3.28253E-004	-3.72091E-002	-3.32194E-002	1.65587E-003	2.33524E-003	-4.33033E-002	2.69080E-003
	30	30	4.99721E-002	-6.09050E-002	0.00000E+000	-3.04355E-003	-6.04329E-001	3.88587E-002	3.02691E+001	11	...........	6.48247E-002	-5.28292E-003	6.06233E-001	5.41337E-001	-2.69656E-002	-3.80657E-002	7.05735E-001	-4.38931E-002	-3.94815E-003	3.21756E-004	-3.69226E-002	-3.29701E-002	1.64234E-003	2.31839E-003	-4.29828E-002	2.67331E-003
	31	31	4.99917E-002	-5.99319E-002	0.00000E+000	-2.99610E-003	-5.94648E-001	3.89290E-002	3.09973E+001	11	...........	6.49733E-002	-5.17347E-003	6.06172E-001	5.41348E-001	-2.69521E-002	-3.80593E-002	7.05855E-001	-4.39017E-002	-3.89398E-003	3.10056E-004	-3.63291E-002	-3.24441E-002	1.61529E-003	2.28097E-003	-4.23032E-002	2.63111E-003
	32	32	4.99771E-002	-5.97123E-002	0.00000E+000	-2.98425E-003	-5.92464E-001	3.89737E-002	3.11504E+001	11	...........	6.50190E-002	-5.24208E-003	6.06162E-001	5.41359E-001	-2.69803E-002	-3.80410E-002	7.05882E-001	-4.38874E-002	-3.88244E-003	3.13017E-004	-3.61953E-002	-3.23258E-002	1.61105E-003	2.27151E-003	-4.21498E-002	2.62062E-003
	33	33	4.99851E-002	-5.90702E-002	0.00000E+000	-2.95263E-003	-5.86086E-001	3.90147E-002	3.12178E+001	11	...........	6.51154E-002	-5.24736E-003	6.06255E-001	5.41246E-001	-2.69644E-002	-3.80399E-002	7.05832E-001	-4.37936E-002	-3.84638E-003	3.09963E-004	-3.58116E-002	-3.19715E-002	1.59279E-003	2.24702E-003	-4.16936E-002	2.58690E-003
	34	34	4.99739E-002	-5.80421E-002	0.00000E+000	-2.90059E-003	-5.75858E-001	3.91297E-002	3.10643E+001	11	...........	6.52801E-002	-5.27958E-003	6.06293E-001	5.41241E-001	-2.69590E-002	-3.80281E-002	7.05715E-001	-4.38426E-002	-3.78899E-003	3.06438E-004	-3.51905E-002	-3.14147E-002	1.56476E-003	2.20723E-003	-4.09611E-002	2.54472E-003
	35	35	4.99807E-002	-5.72122E-002	0.00000E+000	-2.85951E-003	-5.67598E-001	3.90705E-002	3.07295E+001	11	...........	6.51864E-002	-5.21972E-003	6.06339E-001	5.41282E-001	-2.69665E-002	-3.80271E-002	7.05802E-001	-4.38758E-002	-3.72945E-003	2.98632E-004	-3.46900E-002	-3.09679E-002	1.54281E-003	2.17561E-003	-4.03805E-002	2.51023E-003
	36	36	4.99910E-002	-5.73562E-002	0.00000E+000	-2.86730E-003	-5.69032E-001	3.92454E-002	3.12564E+001	11	...........	6.54826E-002	-5.25208E-003	6.06331E-001	5.41295E-001	-2.69462E-002	-3.80294E-002	7.05751E-001	-4.38851E-002	-3.75584E-003	3.01240E-004	-3.47769E-002	-3.10466E-002	1.54554E-003	2.18123E-003	-4.04792E-002	2.51709E-003
	37	37	4.99757E-002	-5.68519E-002	0.00000E+000	-2.84121E-003	-5.64016E-001	3.92627E-002	3.14230E+001	11	...........	6.55156E-002	-5.20542E-003	6.06388E-001	5.41200E-001	-2.69517E-002	-3.80260E-002	7.05952E-001	-4.39051E-002	-3.72468E-003	2.95938E-004	-3.44743E-002	-3.07683E-002	1.53225E-003	2.16185E-003	-4.01347E-002	2.49609E-003
	38	38	4.99720E-002	-5.62058E-002	0.00000E+000	-2.80871E-003	-5.57590E-001	3.92839E-002	3.07205E+001	11	...........	6.55474E-002	-5.18431E-003	6.06564E-001	5.41280E-001	-2.69610E-002	-3.80278E-002	7.05833E-001	-4.39331E-002	-3.68414E-003	2.91388E-004	-3.40924E-002	-3.04230E-002	1.51536E-003	2.13738E-003	-3.96719E-002	2.46929E-003
	39	39	4.99938E-002	-5.53560E-002	0.00000E+000	-2.76746E-003	-5.49132E-001	3.93417E-002	3.14021E+001	11	...........	6.56483E-002	-5.23069E-003	6.06549E-001	5.41360E-001	-2.69597E-002	-3.80051E-002	7.05842E-001	-4.39136E-002	-3.63403E-003	2.89550E-004	-3.35761E-002	-2.99675E-002	1.49238E-003	2.10381E-003	-3.90726E-002	2.43088E-003
	40	40	4.99758E-002	-5.52221E-002	0.00000E+000	-2.75977E-003	-5.47800E-001	3.93924E-002	3.15686E+001	11	...........	6.57207E-002	-5.33111E-003	6.06472E-001	5.41323E-001	-2.69236E-002	-3.80040E-002	7.05947E-001	-4.38504E-002	-3.62923E-003	2.94395E-004	-3.34907E-002	-2.98930E-002	1.48678E-003	2.09866E-003	-3.89838E-002	2.42151E-003
	41	41	4.99844E-002	-5.47736E-002	0.00000E+000	-2.73782E-003	-5.43345E-001	3.94281E-002	3.15769E+001	11	...........	6.57986E-002	-5.33375E-003	6.06329E-001	5.41402E-001	-2.69386E-002	-3.79869E-002	7.05992E-001	-4.37626E-002	-3.60403E-003	2.92149E-004	-3.32108E-002	-2.96545E-002	1.47552E-003	2.08068E-003	-3.86697E-002	2.39704E-003
	42	42	4.99845E-002	-5.42874E-002	0.00000E+000	-2.71353E-003	-5.38519E-001	3.95107E-002	3.16032E+001	11	...........	6.59087E-002	-5.36181E-003	6.06369E-001	5.41534E-001	-2.69440E-002	-3.79949E-002	7.05965E-001	-4.37528E-002	-3.57801E-003	2.91078E-004	-3.29182E-002	-2.93984E-002	1.46272E-003	2.06264E-003	-3.83250E-002	2.37522E-003
	43	43	4.99720E-002	-5.36827E-002	0.00000E+000	-2.68263E-003	-5.32504E-001	3.95626E-002	3.11155E+001	11	...........	6.60122E-002	-5.32986E-003	6.06244E-001	5.41503E-001	-2.69514E-002	-3.79868E-002	7.06036E-001	-4.38310E-002	-3.54371E-003	2.86121E-004	-3.25448E-002	-2.90693E-002	1.44682E-003	2.03923E-003	-3.79019E-002	2.35296E-003
	44	44	4.99916E-002	-5.26167E-002	0.00000E+000	-2.63039E-003	-5.21891E-001	3.95756E-002	3.16253E+001	11	...........	6.60401E-002	-5.26069E-003	6.06266E-001	5.41461E-001	-2.69567E-002	-3.79978E-002	7.06056E-001	-4.38993E-002	-3.47481E-003	2.76800E-004	-3.18997E-002	-2.84899E-002	1.41837E-003	1.99932E-003	-3.71503E-002	2.30984E-003
	45	45	4.99816E-002	-5.27360E-002	0.00000E+000	-2.63583E-003	-5.23081E-001	3.96179E-002	3.18250E+001	11	...........	6.61017E-002	-5.21194E-003	6.06257E-001	5.41495E-001	-2.69536E-002	-3.79958E-002	7.06102E-001	-4.38344E-002	-3.48594E-003	2.74857E-004	-3.19716E-002	-2.85563E-002	1.42143E-003	2.00375E-003	-3.72370E-002	2.31165E-003
	46	46	4.99791E-002	-5.18657E-002	0.00000E+000	-2.59220E-003	-5.14434E-001	3.96895E-002	3.12655E+001	11	...........	6.62265E-002	-5.22639E-003	6.06230E-001	5.41553E-001	-2.69687E-002	-3.79971E-002	7.06183E-001	-4.37036E-002	-3.43489E-003	2.71070E-004	-3.14426E-002	-2.80880E-002	1.39875E-003	1.97075E-003	-3.66267E-002	2.26672E-003
	47	47	4.99812E-002	-5.08316E-002	0.00000E+000	-2.54062E-003	-5.04177E-001	3.95893E-002	3.12519E+001	11	...........	6.60635E-002	-5.17611E-003	6.06164E-001	5.41467E-001	-2.69731E-002	-3.80128E-002	7.06060E-001	-4.38075E-002	-3.35811E-003	2.63110E-004	-3.08123E-002	-2.75236E-002	1.37108E-003	1.93225E-003	-3.58902E-002	2.22681E-003
	48	48	4.99817E-002	-5.10104E-002	0.00000E+000	-2.54959E-003	-5.05955E-001	3.98213E-002	3.18456E+001	11	...........	6.64447E-002	-5.17458E-003	6.06154E-001	5.41463E-001	-2.69714E-002	-3.79926E-002	7.05930E-001	-4.38363E-002	-3.38937E-003	2.63957E-004	-3.09202E-002	-2.76202E-002	1.37582E-003	1.93802E-003	-3.60097E-002	2.23610E-003
	49	49	4.99808E-002	-5.05329E-002	0.00000E+000	-2.52568E-003	-5.01200E-001	3.97991E-002	3.19863E+001	11	...........	6.64025E-002	-5.19292E-003	6.06100E-001	5.41559E-001	-2.69353E-002	-3.80096E-002	7.05952E-001	-4.37992E-002	-3.35551E-003	2.62413E-004	-3.06280E-002	-2.73666E-002	1.36112E-003	1.92074E-003	-3.56738E-002	2.21330E-003
	50	50	4.99836E-002	-5.02085E-002	0.00000E+000	-2.50960E-003	-4.97976E-001	3.97693E-002	3.20569E+001	11	...........	6.65186E-002	-5.27708E-003	6.06309E-001	5.41588E-001	-2.69465E-002	-3.79928E-002	7.05894E-001	-4.38682E-002	-3.33980E-003	2.64954E-004	-3.04419E-002	-2.71923E-002	1.35294E-003	1.90756E-003	-3.54419E-002	2.20256E-003
	51	51	4.99839E-002	-4.95985E-002	0.00000E+000	-2.47913E-003	-4.91917E-001	3.98868E-002	3.18232E+001	11	...........	6.65557E-002	-5.29667E-003	6.06303E-001	5.41443E-001	-2.69403E-002	-3.79956E-002	7.05843E-001	-4.38193E-002	-3.30106E-003	2.62707E-004	-3.00717E-002	-2.68548E-002	1.33620E-003	1.88452E-003	-3.50088E-002	2.17337E-003
	52	52	4.99811E-002	-4.90068E-002	0.00000E+000	-2.44941E-003	-4.86038E-001	3.99261E-002	3.19984E+001	11	...........	6.66032E-002	-5.32292E-003	6.06366E-001	5.41507E-001	-2.69349E-002	-3.79808E-002	7.06022E-001	-4.38144E-002	-3.26401E-003	2.60859E-004	-2.97161E-002	-2.65375E-002	1.31999E-003	1.86132E-003	-3.45999E-002	2.14721E-003
	53	53	4.99833E-002	-4.84996E-002	0.00000E+000	-2.42417E-003	-4.80989E-001	3.99929E-002	3.21041E+001	11	...........	6.67306E-002	-5.27708E-003	6.06486E-001	5.41642E-001	-2.69490E-002	-3.79956E-002	7.06118E-001	-4.37924E-002	-3.23641E-003	2.55937E-004	-2.94143E-002	-2.62694E-002	1.30702E-003	1.84277E-003	-3.42465E-002	2.12391E-003
	54	54	4.99829E-002	-4.82777E-002	0.00000E+000	-2.41306E-003	-4.78777E-001	4.00332E-002	3.21273E+001	11	...........	6.67974E-002	-5.28153E-003	6.06513E-001	5.41601E-001	-2.69554E-002	-3.80086E-002	7.06146E-001	-4.36967E-002	-3.22482E-003	2.54980E-004	-2.92810E-002	-2.61472E-002	1.30134E-003	1.83497E-003	-3.40911E-002	2.10957E-003
	55	55	4.99783E-002	-4.75853E-002	0.00000E+000	-2.37823E-003	-4.71887E-001	4.00673E-002	3.21669E+001	11	...........	6.68375E-002	-5.22750E-003	6.06571E-001	5.41669E-001	-2.69315E-002	-3.79861E-002	7.06101E-001	-4.38017E-002	-3.18048E-003	2.48752E-004	-2.88639E-002	-2.57754E-002	1.28154E-003	1.80758E-003	-3.36000E-002	2.08431E-003
	56	56	4.99843E-002	-4.72803E-002	0.00000E+000	-2.36327E-003	-4.68857E-001	4.01280E-002	3.21906E+001	11	...........	6.69626E-002	-5.20347E-003	6.06592E-001	5.41681E-001	-2.69544E-002	-3.80010E-002	7.06168E-001	-4.37949E-002	-3.16601E-003	2.46022E-004	-2.86798E-002	-2.56108E-002	1.27441E-003	1.79670E-003	-3.33878E-002	2.07063E-003
	57	57	4.99647E-002	-4.62831E-002	0.00000E+000	-2.31252E-003	-4.58945E-001	4.01399E-002	3.09803E+001	11	...........	6.69836E-002	-5.14208E-003	6.06501E-001	5.41811E-001	-2.69568E-002	-3.79999E-002	7.06211E-001	-4.37779E-002	-3.10021E-003	2.37992E-004	-2.80708E-002	-2.50767E-002	1.24765E-003	1.75875E-003	-3.26857E-002	2.02618E-003
	58	58	4.99997E-002	-4.52051E-002	0.00000E+000	-2.26024E-003	-4.48220E-001	4.01274E-002	3.18158E+001	11	...........	6.69557E-002	-5.12625E-003	6.06599E-001	5.41864E-001	-2.69340E-002	-3.79900E-002	7.06101E-001	-4.37953E-002	-3.02674E-003	2.31733E-004	-2.74214E-002	-2.44950E-002	1.21755E-003	1.71734E-003	-3.19193E-002	1.97977E-003
	59	59	4.99833E-002	-4.57382E-002	0.00000E+000	-2.28615E-003	-4.53524E-001	4.01823E-002	3.23450E+001	11	...........	6.70461E-002	-5.15097E-003	6.06612E-001	5.41902E-001	-2.69450E-002	-3.79697E-002	7.06079E-001	-4.38107E-002	-3.06657E-003	2.35596E-004	-2.77454E-002	-2.47856E-002	1.23242E-003	1.73667E-003	-3.22948E-002	2.00382E-003
	60	60	4.99797E-002	-4.54149E-002	0.00000E+000	-2.26982E-003	-4.50305E-001	4.02402E-002	3.20129E+001	11	...........	6.71230E-002	-5.19403E-003	6.06612E-001	5.41621E-001	-2.69669E-002	-3.79622E-002	7.06206E-001	-4.38435E-002	-3.04839E-003	2.35886E-004	-2.75492E-002	-2.45977E-002	1.22470E-003	1.72405E-003	-3.20722E-002	1.99115E-003
	61	61	4.99817E-002	-4.43893E-002	0.00000E+000	-2.21866E-003	-4.40109E-001	4.01775E-002	3.18699E+001	11	...........	6.70361E-002	-5.21694E-003	6.06488E-001	5.41602E-001	-2.69821E-002	-3.79844E-002	7.06194E-001	-4.39089E-002	-2.97569E-003	2.31577E-004	-2.69216E-002	-2.40413E-002	1.19772E-003	1.68610E-003	-3.13474E-002	1.94909E-003
	62	62	4.99852E-002	-4.44458E-002	0.00000E+000	-2.22163E-003	-4.40671E-001	4.03722E-002	3.24874E+001	11	...........	6.73757E-002	-5.25889E-003	6.06577E-001	5.41507E-001	-2.69812E-002	-3.79640E-002	7.06138E-001	-4.38250E-002	-2.99457E-003	2.33736E-004	-2.69598E-002	-2.40677E-002	1.19920E-003	1.68734E-003	-3.13849E-002	1.94784E-003
	63	63	4.99838E-002	-4.39820E-002	0.00000E+000	-2.19839E-003	-4.36068E-001	4.03082E-002	3.25050E+001	11	...........	6.72694E-002	-5.24444E-003	6.06545E-001	5.41533E-001	-2.69869E-002	-3.79483E-002	7.06082E-001	-4.38951E-002	-2.95865E-003	2.30661E-004	-2.66771E-002	-2.38177E-002	1.18694E-003	1.66904E-003	-3.10549E-002	1.93060E-003
	64	64	4.99824E-002	-4.35695E-002	0.00000E+000	-2.17771E-003	-4.31966E-001	4.03437E-002	3.25634E+001	11	...........	6.73231E-002	-5.36583E-003	6.06516E-001	5.41514E-001	-2.69908E-002	-3.79385E-002	7.06091E-001	-4.38657E-002	-2.93323E-003	2.33787E-004	-2.64256E-002	-2.35935E-002	1.17598E-003	1.65296E-003	-3.07640E-002	1.91121E-003
	65	65	4.99813E-002	-4.31946E-002	0.00000E+000	-2.15892E-003	-4.28232E-001	4.04101E-002	3.26609E+001	11	...........	6.74349E-002	-5.27375E-003	6.06578E-001	5.41618E-001	-2.69833E-002	-3.79496E-002	7.06162E-001	-4.38474E-002	-2.91282E-003	2.27798E-004	-2.62009E-002	-2.33950E-002	1.16554E-003	1.63922E-003	-3.05024E-002	1.89397E-003
	66	66	4.99813E-002	-4.22860E-002	0.00000E+000	-2.11351E-003	-4.19198E-001	4.04840E-002	3.21885E+001	11	...........	6.75621E-002	-5.21625E-003	6.06538E-001	5.41746E-001	-2.69972E-002	-3.79528E-002	7.06109E-001	-4.38500E-002	-2.85693E-003	2.20575E-004	-2.56481E-002	-2.29083E-002	1.14161E-003	1.60487E-003	-2.98586E-002	1.85424E-003
	67	67	4.99795E-002	-4.14329E-002	0.00000E+000	-2.07079E-003	-4.10717E-001	4.03199E-002	3.19097E+001	11	...........	6.72707E-002	-5.39333E-003	6.06440E-001	5.41584E-001	-2.69962E-002	-3.79496E-002	7.06062E-001	-4.37312E-002	-2.78722E-003	2.23461E-004	-2.51266E-002	-2.24394E-002	1.11853E-003	1.57236E-003	-2.92542E-002	1.81191E-003
	68	68	4.99866E-002	-4.16368E-002	0.00000E+000	-2.08128E-003	-4.12735E-001	4.05744E-002	3.26261E+001	11	...........	6.76982E-002	-5.33722E-003	6.06281E-001	5.41632E-001	-2.69799E-002	-3.79493E-002	7.06039E-001	-4.37747E-002	-2.81874E-003	2.22225E-004	-2.52436E-002	-2.25518E-002	1.12336E-003	1.58009E-003	-2.93972E-002	1.82264E-003
	69	69	4.99870E-002	-4.14183E-002	0.00000E+000	-2.07038E-003	-4.10570E-001	4.05169E-002	3.25836E+001	11	...........	6.76014E-002	-5.22667E-003	6.06247E-001	5.41629E-001	-2.69950E-002	-3.79417E-002	7.05938E-001	-4.37778E-002	-2.79994E-003	2.16480E-004	-2.51097E-002	-2.24334E-002	1.11809E-003	1.57148E-003	-2.92388E-002	1.81320E-003
	70	70	4.99798E-002	-4.08556E-002	0.00000E+000	-2.04195E-003	-4.04996E-001	4.05683E-002	3.26197E+001	11	...........	6.76832E-002	-5.26722E-003	6.06230E-001	5.41818E-001	-2.69757E-002	-3.79531E-002	7.05867E-001	-4.38226E-002	-2.76523E-003	2.15195E-004	-2.47679E-002	-2.21363E-002	1.10211E-003	1.55059E-003	-2.88386E-002	1.79040E-003
	71	71	4.99834E-002	-4.05462E-002	0.00000E+000	-2.02664E-003	-4.01920E-001	4.05878E-002	3.27070E+001	11	...........	6.77207E-002	-5.30347E-003	6.06245E-001	5.41798E-001	-2.69785E-002	-3.79786E-002	7.05892E-001	-4.38810E-002	-2.74582E-003	2.15036E-004	-2.45809E-002	-2.19679E-002	1.09387E-003	1.53989E-003	-2.86212E-002	1.77921E-003
	72	72	4.99771E-002	-3.99785E-002	0.00000E+000	-1.99801E-003	-3.96270E-001	4.06044E-002	3.26009E+001	11	...........	6.77592E-002	-5.30375E-003	6.06131E-001	5.41729E-001	-2.69944E-002	-3.80019E-002	7.05864E-001	-4.39228E-002	-2.70891E-003	2.12036E-004	-2.42322E-002	-2.16575E-002	1.07920E-003	1.51926E-003	-2.82194E-002	1.75597E-003
	73	73	4.99875E-002	-3.96094E-002	0.00000E+000	-1.97997E-003	-3.92603E-001	4.06513E-002	3.27914E+001	11	...........	6.78376E-002	-5.23931E-003	6.06180E-001	5.41751E-001	-2.69960E-002	-3.80126E-002	7.05962E-001	-4.39224E-002	-2.68701E-003	2.07526E-004	-2.40104E-002	-2.14584E-002	1.06929E-003	1.50566E-003	-2.79627E-002	1.73974E-003
	74	74	4.99826E-002	-3.91912E-002	0.00000E+000	-1.95888E-003	-3.88441E-001	4.07141E-002	3.28922E+001	11	...........	6.79471E-002	-5.17500E-003	6.06263E-001	5.41904E-001	-2.69975E-002	-3.80181E-002	7.06129E-001	-4.39324E-002	-2.66293E-003	2.02815E-004	-2.37602E-002	-2.12379E-002	1.05806E-003	1.48997E-003	-2.76741E-002	1.72176E-003
	75	75	4.99802E-002	-3.86140E-002	0.00000E+000	-1.92993E-003	-3.82716E-001	4.07132E-002	3.29160E+001	11	...........	6.79462E-002	-5.15583E-003	6.06343E-001	5.41982E-001	-2.69867E-002	-3.80319E-002	7.06132E-001	-4.39354E-002	-2.62368E-003	1.99087E-004	-2.34133E-002	-2.09281E-002	1.04206E-003	1.46857E-003	-2.72666E-002	1.69652E-003
	76	76	4.99875E-002	-3.83560E-002	0.00000E+000	-1.91732E-003	-3.80144E-001	4.07367E-002	3.25440E+001	11	...........	6.79697E-002	-5.13917E-003	6.06488E-001	5.41818E-001	-2.69768E-002	-3.80157E-002	7.06156E-001	-4.39460E-002	-2.60705E-003	1.97118E-004	-2.32625E-002	-2.07820E-002	1.03472E-003	1.45813E-003	-2.70853E-002	1.68559E-003
	77	77	4.99814E-002	-3.76261E-002	0.00000E+000	-1.88060E-003	-3.72880E-001	4.06918E-002	3.26082E+001	11	...........	6.78958E-002	-5.13264E-003	6.06486E-001	5.41703E-001	-2.69785E-002	-3.80101E-002	7.06117E-001	-4.39115E-002	-2.55465E-003	1.93121E-004	-2.28197E-002	-2.03821E-002	1.01509E-003	1.43017E-003	-2.65684E-002	1.65222E-003
	78	78	4.99790E-002	-3.73543E-002	0.00000E+000	-1.86693E-003	-3.70178E-001	4.08293E-002	3.29725E+001	11	...........	6.81276E-002	-5.20236E-003	6.06483E-001	5.41529E-001	-2.69549E-002	-3.80107E-002	7.06179E-001	-4.38068E-002	-2.54486E-003	1.94331E-004	-2.26547E-002	-2.02284E-002	1.00688E-003	1.41986E-003	-2.63788E-002	1.63637E-003
	79	79	4.99864E-002	-3.70370E-002	0.00000E+000	-1.85135E-003	-3.67021E-001	4.07849E-002	3.31759E+001	11	...........	6.80646E-002	-5.15958E-003	6.06375E-001	5.41379E-001	-2.69578E-002	-3.80276E-002	7.06197E-001	-4.37596E-002	-2.52091E-003	1.91096E-004	-2.24583E-002	-2.00511E-002	9.98436E-004	1.40843E-003	-2.61554E-002	1.62072E-003
	80	80	4.99777E-002	-3.62061E-002	0.00000E+000	-1.80950E-003	-3.58758E-001	4.08544E-002	3.28158E+001	11	...........	6.81619E-002	-5.31611E-003	6.06414E-001	5.41310E-001	-2.69446E-002	-3.80242E-002	7.06236E-001	-4.38144E-002	-2.46788E-003	1.92476E-004	-2.19559E-002	-1.95987E-002	9.75559E-004	1.37671E-003	-2.55701E-002	1.58635E-003
	81	81	4.99837E-002	-3.56099E-002	0.00000E+000	-1.77992E-003	-3.52824E-001	4.07013E-002	3.24219E+001	11	...........	6.79336E-002	-5.22444E-003	6.06266E-001	5.41255E-001	-2.69181E-002	-3.80156E-002	7.06172E-001	-4.38126E-002	-2.41911E-003	1.86042E-004	-2.15891E-002	-1.92741E-002	9.58550E-004	1.35373E-003	-2.51467E-002	1.56017E-003
	82	82	4.99887E-002	-3.57399E-002	0.00000E+000	-1.78659E-003	-3.54117E-001	4.09145E-002	3.31788E+001	11	...........	6.82706E-002	-5.17806E-003	6.06186E-001	5.41128E-001	-2.69253E-002	-3.79783E-002	7.06094E-001	-4.38044E-002	-2.43999E-003	1.85063E-004	-2.16650E-002	-1.93399E-002	9.62308E-004	1.35734E-003	-2.52357E-002	1.56557E-003
	83	83	4.99835E-002	-3.55494E-002	0.00000E+000	-1.77689E-003	-3.52224E-001	4.08889E-002	3.33628E+001	11	...........	6.82282E-002	-5.15056E-003	6.06066E-001	5.41015E-001	-2.69750E-002	-3.79653E-002	7.05926E-001	-4.38925E-002	-2.42547E-003	1.83099E-004	-2.15453E-002	-1.92328E-002	9.58946E-004	1.34964E-003	-2.50953E-002	1.56035E-003
	84	84	4.99822E-002	-3.50195E-002	0.00000E+000	-1.75035E-003	-3.46942E-001	4.09053E-002	3.33520E+001	11	...........	6.82633E-002	-5.20375E-003	6.05796E-001	5.41036E-001	-2.69696E-002	-3.79657E-002	7.05834E-001	-4.38831E-002	-2.39055E-003	1.82233E-004	-2.12147E-002	-1.89468E-002	9.44462E-004	1.32954E-003	-2.47180E-002	1.53676E-003
	85	85	4.99827E-002	-3.47128E-002	0.00000E+000	-1.73504E-003	-3.43904E-001	4.09462E-002	3.34046E+001	11	...........	6.83181E-002	-5.17778E-003	6.05873E-001	5.41019E-001	-2.69792E-002	-3.79568E-002	7.05988E-001	-4.38562E-002	-2.37151E-003	1.79735E-004	-2.10315E-002	-1.87803E-002	9.36522E-004	1.31759E-003	-2.45068E-002	1.52237E-003
	86	86	4.99758E-002	-3.40993E-002	0.00000E+000	-1.70414E-003	-3.37804E-001	4.09012E-002	3.24431E+001	11	...........	6.82369E-002	-5.21403E-003	6.05911E-001	5.40988E-001	-2.69740E-002	-3.79694E-002	7.05965E-001	-4.37051E-002	-2.32683E-003	1.77795E-004	-2.06611E-002	-1.84473E-002	9.19795E-004	1.29473E-003	-2.40729E-002	1.49031E-003
	87	87	4.99948E-002	-3.40015E-002	0.00000E+000	-1.69990E-003	-3.36829E-001	4.10223E-002	3.34020E+001	11	...........	6.84679E-002	-5.23167E-003	6.05963E-001	5.41022E-001	-2.69728E-002	-3.79694E-002	7.05953E-001	-4.36169E-002	-2.32801E-003	1.77885E-004	-2.06036E-002	-1.83955E-002	9.17115E-004	1.29102E-003	-2.40035E-002	1.48304E-003
	88	88	4.99786E-002	-3.36743E-002	0.00000E+000	-1.68299E-003	-3.33574E-001	4.09730E-002	3.36022E+001	11	...........	6.83649E-002	-5.24972E-003	6.05965E-001	5.40854E-001	-2.69585E-002	-3.80014E-002	7.06087E-001	-4.38169E-002	-2.30214E-003	1.76781E-004	-2.04054E-002	-1.82129E-002	9.07807E-004	1.27967E-003	-2.37770E-002	1.47550E-003
	89	89	4.99865E-002	-3.32557E-002	0.00000E+000	-1.66234E-003	-3.29419E-001	4.10270E-002	3.35821E+001	11	...........	6.84504E-002	-5.22000E-003	6.05939E-001	5.40733E-001	-2.69860E-002	-3.80167E-002	7.05965E-001	-4.38060E-002	-2.27637E-003	1.73595E-004	-2.01509E-002	-1.79825E-002	8.97438E-004	1.26427E-003	-2.34774E-002	1.45680E-003
	90	90	4.99812E-002	-3.28792E-002	0.00000E+000	-1.64334E-003	-3.25668E-001	4.10547E-002	3.34970E+001	11	...........	6.85200E-002	-5.24569E-003	6.06046E-001	5.40646E-001	-2.69954E-002	-3.80153E-002	7.05972E-001	-4.37975E-002	-2.25288E-003	1.72474E-004	-1.99263E-002	-1.77760E-002	8.87588E-004	1.24991E-003	-2.32118E-002	1.44003E-003
	91	91	4.99850E-002	-3.24245E-002	0.00000E+000	-1.62074E-003	-3.21140E-001	4.11355E-002	3.31306E+001	11	...........	6.86315E-002	-5.30333E-003	6.06017E-001	5.40639E-001	-2.69882E-002	-3.80325E-002	7.06010E-001	-4.36856E-002	-2.22535E-003	1.71958E-004	-1.96498E-002	-1.75300E-002	8.75080E-004	1.23319E-003	-2.28920E-002	1.41648E-003
	92	92	4.99808E-002	-3.15777E-002	0.00000E+000	-1.57828E-003	-3.12728E-001	4.09673E-002	3.27151E+001	11	...........	6.83618E-002	-5.35125E-003	6.06122E-001	5.40612E-001	-2.69910E-002	-3.80621E-002	7.06051E-001	-4.36058E-002	-2.15871E-003	1.68980E-004	-1.91399E-002	-1.70712E-002	8.52311E-004	1.20191E-003	-2.22954E-002	1.37697E-003
	93	93	4.99842E-002	-3.16781E-002	0.00000E+000	-1.58340E-003	-3.13725E-001	4.11818E-002	3.34354E+001	11	...........	6.87210E-002	-5.30347E-003	6.06288E-001	5.40606E-001	-2.70043E-002	-3.80464E-002	7.06045E-001	-4.36881E-002	-2.17695E-003	1.68004E-004	-1.92061E-002	-1.71254E-002	8.55445E-004	1.20524E-003	-2.23662E-002	1.38395E-003
	94	94	4.99848E-002	-3.14273E-002	0.00000E+000	-1.57089E-003	-3.11221E-001	4.11402E-002	3.33216E+001	11	...........	6.86492E-002	-5.27000E-003	6.06382E-001	5.40764E-001	-2.69686E-002	-3.80493E-002	7.06005E-001	-4.36000E-002	-2.15746E-003	1.65622E-004	-1.90569E-002	-1.69947E-002	8.47550E-004	1.19579E-003	-2.21878E-002	1.37023E-003
	95	95	4.99868E-002	-3.10826E-002	0.00000E+000	-1.55372E-003	-3.07805E-001	4.11847E-002	3.35666E+001	11	...........	6.87215E-002	-5.19069E-003	6.06450E-001	5.40736E-001	-2.69636E-002	-3.80515E-002	7.06014E-001	-4.34906E-002	-2.13604E-003	1.61340E-004	-1.88501E-002	-1.68075E-002	8.38099E-004	1.18274E-003	-2.19448E-002	1.35180E-003
	96	96	4.99835E-002	-3.07635E-002	0.00000E+000	-1.53767E-003	-3.04668E-001	4.12143E-002	3.36028E+001	11	...........	6.87621E-002	-5.28764E-003	6.06517E-001	5.40638E-001	-2.69657E-002	-3.80553E-002	7.06048E-001	-4.35542E-002	-2.11536E-003	1.62666E-004	-1.86586E-002	-1.66319E-002	8.29559E-004	1.17071E-003	-2.17205E-002	1.33988E-003
	97	97	4.99847E-002	-3.04895E-002	0.00000E+000	-1.52401E-003	-3.01940E-001	4.12329E-002	3.36735E+001	11	...........	6.87822E-002	-5.33139E-003	6.06541E-001	5.40661E-001	-2.69671E-002	-3.80375E-002	7.06160E-001	-4.36758E-002	-2.09714E-003	1.62552E-004	-1.84931E-002	-1.64845E-002	8.22214E-004	1.15975E-003	-2.15305E-002	1.33166E-003
	98	98	4.99838E-002	-3.01078E-002	0.00000E+000	-1.50490E-003	-2.98134E-001	4.12715E-002	3.36912E+001	11	...........	6.88624E-002	-5.23347E-003	6.06430E-001	5.40629E-001	-2.69911E-002	-3.80282E-002	7.06262E-001	-4.37401E-002	-2.07329E-003	1.57568E-004	-1.82583E-002	-1.62771E-002	8.12642E-004	1.14494E-003	-2.12640E-002	1.31692E-003
	99	99	4.99850E-002	-2.98421E-002	0.00000E+000	-1.49166E-003	-2.95487E-001	4.12808E-002	3.37465E+001	11	...........	6.88792E-002	-5.24667E-003	6.06469E-001	5.40740E-001	-2.69740E-002	-3.80435E-002	7.06021E-001	-4.38300E-002	-2.05550E-003	1.56572E-004	-1.80983E-002	-1.61368E-002	8.04963E-004	1.13530E-003	-2.10692E-002	1.30798E-003
	100	100	4.99791E-002	-2.92735E-002	0.00000E+000	-1.46306E-003	-2.89841E-001	4.13431E-002	3.32143E+001	11	...........	6.89817E-002	-5.32611E-003	6.06474E-001	5.40785E-001	-2.69729E-002	-3.80442E-002	7.05983E-001	-4.37544E-002	-2.01934E-003	1.55914E-004	-1.77536E-002	-1.58307E-002	7.89593E-004	1.11369E-003	-2.06666E-002	1.28085E-003
	101	101	4.99815E-002	-2.83246E-002	0.00000E+000	-1.41571E-003	-2.80407E-001	4.10535E-002	3.24407E+001	11	...........	6.84978E-002	-5.27472E-003	6.06424E-001	5.40815E-001	-2.69722E-002	-3.80636E-002	7.05937E-001	-4.38088E-002	-1.94018E-003	1.49405E-004	-1.71767E-002	-1.53184E-002	7.63979E-004	1.07814E-003	-1.99954E-002	1.24087E-003
	102	102	4.99881E-002	-2.85327E-002	0.00000E+000	-1.42630E-003	-2.82472E-001	4.14540E-002	3.37716E+001	11	...........	6.91792E-002	-5.27153E-003	6.06259E-001	5.40758E-001	-2.69607E-002	-3.80440E-002	7.06044E-001	-4.38793E-002	-1.97387E-003	1.50411E-004	-1.72982E-002	-1.54293E-002	7.69262E-004	1.08550E-003	-2.01454E-002	1.25200E-003
	103	103	4.99835E-002	-2.81957E-002	0.00000E+000	-1.40932E-003	-2.79130E-001	4.13112E-002	3.39355E+001	11	...........	6.89483E-002	-5.28125E-003	6.06333E-001	5.40566E-001	-2.69489E-002	-3.80226E-002	7.06047E-001	-4.39485E-002	-1.94405E-003	1.48909E-004	-1.70960E-002	-1.52416E-002	7.59843E-004	1.07208E-003	-1.99075E-002	1.23916E-003
	104	104	4.99838E-002	-2.78359E-002	0.00000E+000	-1.39134E-003	-2.75545E-001	4.13707E-002	3.36418E+001	11	...........	6.90299E-002	-5.24653E-003	6.06081E-001	5.40414E-001	-2.69403E-002	-3.80050E-002	7.06100E-001	-4.39114E-002	-1.92151E-003	1.46042E-004	-1.68708E-002	-1.50429E-002	7.49906E-004	1.05790E-003	-1.96549E-002	1.22231E-003
	105	105	4.99843E-002	-2.75208E-002	0.00000E+000	-1.37561E-003	-2.72409E-001	4.13929E-002	3.38334E+001	11	...........	6.90711E-002	-5.23222E-003	6.06091E-001	5.40496E-001	-2.69342E-002	-3.80082E-002	7.06032E-001	-4.38382E-002	-1.90090E-003	1.43995E-004	-1.66801E-002	-1.48749E-002	7.41251E-004	1.04602E-003	-1.94306E-002	1.20646E-003
	106	106	4.99857E-002	-2.72673E-002	0.00000E+000	-1.36297E-003	-2.69878E-001	4.14286E-002	3.39006E+001	11	...........	6.91357E-002	-5.17806E-003	6.06227E-001	5.40519E-001	-2.69219E-002	-3.80185E-002	7.06025E-001	-4.37725E-002	-1.88514E-003	1.41191E-004	-1.65301E-002	-1.47385E-002	7.34088E-004	1.03666E-003	-1.92514E-002	1.19356E-003
	107	107	4.99832E-002	-2.70189E-002	0.00000E+000	-1.35049E-003	-2.67413E-001	4.14622E-002	3.39845E+001	11	...........	6.91821E-002	-5.22667E-003	6.06186E-001	5.40623E-001	-2.69185E-002	-3.80312E-002	7.06025E-001	-4.37126E-002	-1.86923E-003	1.41219E-004	-1.63785E-002	-1.46071E-002	7.27308E-004	1.02756E-003	-1.90760E-002	1.18107E-003
	108	108	4.99840E-002	-2.66741E-002	0.00000E+000	-1.33328E-003	-2.63991E-001	4.14918E-002	3.40381E+001	11	...........	6.92272E-002	-5.25500E-003	6.06176E-001	5.40639E-001	-2.69097E-002	-3.80264E-002	7.06061E-001	-4.37311E-002	-1.84658E-003	1.40173E-004	-1.61692E-002	-1.44211E-002	7.17794E-004	1.01432E-003	-1.88336E-002	1.16649E-003
	109	109	4.99851E-002	-2.64050E-002	0.00000E+000	-1.31986E-003	-2.61310E-001	4.14896E-002	3.39097E+001	11	...........	6.92314E-002	-5.25194E-003	6.06219E-001	5.40775E-001	-2.69049E-002	-3.79972E-002	7.06065E-001	-4.38156E-002	-1.82805E-003	1.38677E-004	-1.60072E-002	-1.42792E-002	7.10422E-004	1.00332E-003	-1.86436E-002	1.15695E-003
	110	110	4.99822E-002	-2.58864E-002	0.00000E+000	-1.29386E-003	-2.56156E-001	4.14272E-002	3.33845E+001	11	...........	6.91210E-002	-5.37056E-003	6.06354E-001	5.40773E-001	-2.69092E-002	-3.79506E-002	7.06139E-001	-4.37767E-002	-1.78929E-003	1.39024E-004	-1.56963E-002	-1.39987E-002	6.96582E-004	9.82404E-004	-1.82794E-002	1.13322E-003
	111	111	4.99850E-002	-2.57245E-002	0.00000E+000	-1.28584E-003	-2.54555E-001	4.15628E-002	3.40578E+001	11	...........	6.93508E-002	-5.29889E-003	6.06455E-001	5.40783E-001	-2.69294E-002	-3.79562E-002	7.06097E-001	-4.37878E-002	-1.78401E-003	1.36311E-004	-1.56007E-002	-1.39114E-002	6.92746E-004	9.76405E-004	-1.81640E-002	1.12642E-003
	112	112	4.99841E-002	-2.53200E-002	0.00000E+000	-1.26560E-003	-2.50520E-001	4.15067E-002	3.35965E+001	11	...........	6.92717E-002	-5.28347E-003	6.06494E-001	5.40702E-001	-2.69262E-002	-3.79385E-002	7.06175E-001	-4.37079E-002	-1.75396E-003	1.33778E-004	-1.53564E-002	-1.36906E-002	6.81773E-004	9.60603E-004	-1.78804E-002	1.10669E-003
	113	113	4.99753E-002	-2.46231E-002	0.00000E+000	-1.23055E-003	-2.43582E-001	4.13780E-002	3.30765E+001	11	...........	6.90415E-002	-5.18514E-003	6.06471E-001	5.40689E-001	-2.69226E-002	-3.79306E-002	7.06234E-001	-4.36687E-002	-1.70002E-003	1.27674E-004	-1.49332E-002	-1.33135E-002	6.62920E-004	9.33970E-004	-1.73897E-002	1.07526E-003
	114	114	4.99946E-002	-2.47042E-002	0.00000E+000	-1.23507E-003	-2.44389E-001	4.16171E-002	3.39533E+001	11	...........	6.94544E-002	-5.16764E-003	6.06437E-001	5.40695E-001	-2.68940E-002	-3.79303E-002	7.06167E-001	-4.37568E-002	-1.71582E-003	1.27662E-004	-1.49815E-002	-1.33574E-002	6.64395E-004	9.37036E-004	-1.74453E-002	1.08098E-003
	115	115	4.99830E-002	-2.45999E-002	0.00000E+000	-1.22958E-003	-2.43351E-001	4.15152E-002	3.42515E+001	11	...........	6.92676E-002	-5.15403E-003	6.06277E-001	5.40708E-001	-2.68906E-002	-3.79351E-002	7.05971E-001	-4.36985E-002	-1.70398E-003	1.26789E-004	-1.49144E-002	-1.33014E-002	6.61506E-004	9.33202E-004	-1.73668E-002	1.07498E-003
	116	116	4.99860E-002	-2.42635E-002	0.00000E+000	-1.21284E-003	-2.40018E-001	4.15486E-002	3.41951E+001	11	...........	6.93390E-002	-5.12181E-003	6.06231E-001	5.40688E-001	-2.68937E-002	-3.79337E-002	7.05998E-001	-4.37721E-002	-1.68241E-003	1.24273E-004	-1.47093E-002	-1.31190E-002	6.52538E-004	9.20407E-004	-1.71300E-002	1.06207E-003
	117	117	4.99867E-002	-2.39926E-002	0.00000E+000	-1.19931E-003	-2.37320E-001	4.15840E-002	3.42868E+001	11	...........	6.93943E-002	-5.17514E-003	6.06077E-001	5.40610E-001	-2.69385E-002	-3.79336E-002	7.05983E-001	-4.37426E-002	-1.66495E-003	1.24165E-004	-1.45414E-002	-1.29706E-002	6.46324E-004	9.10126E-004	-1.69384E-002	1.04950E-003
	118	118	4.99832E-002	-2.37836E-002	0.00000E+000	-1.18878E-003	-2.35239E-001	4.15871E-002	3.43797E+001	11	...........	6.94117E-002	-5.16653E-003	6.05911E-001	5.40703E-001	-2.69532E-002	-3.79524E-002	7.05975E-001	-4.37856E-002	-1.65086E-003	1.22879E-004	-1.44107E-002	-1.28599E-002	6.41044E-004	9.02644E-004	-1.67906E-002	1.04138E-003
	119	119	4.99847E-002	-2.34658E-002	0.00000E+000	-1.17293E-003	-2.32076E-001	4.16016E-002	3.39868E+001	11	...........	6.94135E-002	-5.21861E-003	6.05951E-001	5.40677E-001	-2.69546E-002	-3.79571E-002	7.06086E-001	-4.37547E-002	-1.62884E-003	1.22459E-004	-1.42191E-002	-1.26874E-002	6.32510E-004	8.90692E-004	-1.65688E-002	1.02674E-003
	120	120	4.99853E-002	-2.32197E-002	0.00000E+000	-1.16064E-003	-2.29644E-001	4.16108E-002	3.42560E+001	11	...........	6.94406E-002	-5.20694E-003	6.06036E-001	5.40715E-001	-2.69221E-002	-3.79704E-002	7.06116E-001	-4.38710E-002	-1.61239E-003	1.20904E-004	-1.40720E-002	-1.25552E-002	6.25123E-004	8.81662E-004	-1.63958E-002	1.01867E-003
	121	121	4.99831E-002	-2.29027E-002	0.00000E+000	-1.14475E-003	-2.26488E-001	4.16555E-002	3.43214E+001	11	...........	6.95018E-002	-5.24194E-003	6.06071E-001	5.40753E-001	-2.69001E-002	-3.79768E-002	7.05908E-001	-4.37967E-002	-1.59178E-003	1.20055E-004	-1.38807E-002	-1.23847E-002	6.16086E-004	8.69772E-004	-1.61672E-002	1.00306E-003
	122	122	4.99863E-002	-2.26062E-002	0.00000E+000	-1.13000E-003	-2.23535E-001	4.16472E-002	3.43409E+001	11	...........	6.95114E-002	-5.17542E-003	6.05928E-001	5.40756E-001	-2.69118E-002	-3.79811E-002	7.05896E-001	-4.38426E-002	-1.57139E-003	1.16996E-004	-1.36977E-002	-1.22244E-002	6.08373E-004	8.58608E-004	-1.59576E-002	9.91115E-004
	123	123	4.99847E-002	-2.24610E-002	0.00000E+000	-1.12271E-003	-2.22086E-001	4.17129E-002	3.44389E+001	11	...........	6.96112E-002	-5.16486E-003	6.05811E-001	5.40923E-001	-2.69060E-002	-3.79537E-002	7.05916E-001	-4.39010E-002	-1.56354E-003	1.16008E-004	-1.36071E-002	-1.21497E-002	6.04335E-004	8.52480E-004	-1.58556E-002	9.86060E-004
	124	124	4.99844E-002	-2.21180E-002	0.00000E+000	-1.10556E-003	-2.18671E-001	4.16930E-002	3.44947E+001	11	...........	6.95694E-002	-5.24347E-003	6.05630E-001	5.40864E-001	-2.68939E-002	-3.79158E-002	7.06046E-001	-4.38340E-002	-1.53874E-003	1.15975E-004	-1.33953E-002	-1.19629E-002	5.94840E-004	8.38623E-004	-1.56163E-002	9.69522E-004
	125	125	4.99850E-002	-2.18772E-002	0.00000E+000	-1.09353E-003	-2.16290E-001	4.17410E-002	3.45193E+001	11	...........	6.96524E-002	-5.26833E-003	6.05537E-001	5.40785E-001	-2.68949E-002	-3.78926E-002	7.06005E-001	-4.37536E-002	-1.52380E-003	1.15257E-004	-1.32475E-002	-1.18309E-002	5.88386E-004	8.28987E-004	-1.54454E-002	9.57209E-004
	126	126	4.99853E-002	-2.17016E-002	0.00000E+000	-1.08476E-003	-2.14543E-001	4.17415E-002	3.45534E+001	11	...........	6.96532E-002	-5.21042E-003	6.05502E-001	5.41152E-001	-2.68974E-002	-3.78676E-002	7.06012E-001	-4.37456E-002	-1.51158E-003	1.13074E-004	-1.31403E-002	-1.17439E-002	5.83715E-004	8.21787E-004	-1.53216E-002	9.49347E-004
	127	127	4.99783E-002	-2.12435E-002	0.00000E+000	-1.06171E-003	-2.09981E-001	4.17737E-002	3.29242E+001	11	...........	6.97085E-002	-5.16653E-003	6.05556E-001	5.41286E-001	-2.69290E-002	-3.78860E-002	7.05923E-001	-4.37935E-002	-1.48085E-003	1.09755E-004	-1.28641E-002	-1.14988E-002	5.72066E-004	8.04830E-004	-1.49963E-002	9.30326E-004
	128	128	4.99889E-002	-2.03864E-002	0.00000E+000	-1.01909E-003	-2.01473E-001	4.16137E-002	3.36736E+001	11	...........	6.94344E-002	-5.19153E-003	6.05647E-001	5.41203E-001	-2.69336E-002	-3.78769E-002	7.06029E-001	-4.37183E-002	-1.41552E-003	1.05836E-004	-1.23469E-002	-1.10332E-002	5.49078E-004	7.72173E-004	-1.43934E-002	8.91258E-004
	129	129	4.99875E-002	-2.07355E-002	0.00000E+000	-1.03652E-003	-2.04934E-001	4.17696E-002	3.45349E+001	11	...........	6.96969E-002	-5.23653E-003	6.05685E-001	5.41246E-001	-2.69315E-002	-3.78781E-002	7.06136E-001	-4.37626E-002	-1.44520E-003	1.08582E-004	-1.25592E-002	-1.12230E-002	5.58439E-004	7.85420E-004	-1.46421E-002	9.07440E-004
	130	130	4.99846E-002	-2.05813E-002	0.00000E+000	-1.02875E-003	-2.03421E-001	4.17446E-002	3.46752E+001	11	...........	6.96580E-002	-5.22500E-003	6.05586E-001	5.41327E-001	-2.69244E-002	-3.78782E-002	7.06124E-001	-4.38225E-002	-1.43366E-003	1.07537E-004	-1.24638E-002	-1.11412E-002	5.54141E-004	7.79584E-004	-1.45330E-002	9.01925E-004
	131	131	4.99862E-002	-2.03566E-002	0.00000E+000	-1.01755E-003	-2.01182E-001	4.17702E-002	3.46725E+001	11	...........	6.97010E-002	-5.27069E-003	6.05568E-001	5.41525E-001	-2.69451E-002	-3.78944E-002	7.06011E-001	-4.37706E-002	-1.41888E-003	1.07294E-004	-1.23273E-002	-1.10236E-002	5.48512E-004	7.71403E-004	-1.43720E-002	8.91021E-004
	132	132	4.99853E-002	-2.01376E-002	0.00000E+000	-1.00659E-003	-1.99001E-001	4.17961E-002	3.47202E+001	11	...........	6.97425E-002	-5.22875E-003	6.05500E-001	5.41746E-001	-2.69594E-002	-3.79247E-002	7.06004E-001	-4.38290E-002	-1.40445E-003	1.05295E-004	-1.21933E-002	-1.09095E-002	5.42899E-004	7.63714E-004	-1.42173E-002	8.82613E-004
	133	133	4.99837E-002	-1.98573E-002	0.00000E+000	-9.92543E-004	-1.96211E-001	4.16697E-002	3.41601E+001	11	...........	6.97379E-002	-5.14653E-003	6.05542E-001	5.41661E-001	-2.69508E-002	-3.79279E-002	7.05946E-001	-4.39043E-002	-1.38481E-003	1.02196E-004	-1.20244E-002	-1.07559E-002	5.35171E-004	7.53147E-004	-1.40182E-002	8.71822E-004
	134	134	4.99854E-002	-1.94230E-002	0.00000E+000	-9.70868E-004	-1.91890E-001	4.17135E-002	3.42644E+001	11	...........	6.95861E-002	-5.16764E-003	6.05507E-001	5.41615E-001	-2.69612E-002	-3.79231E-002	7.05880E-001	-4.38743E-002	-1.35157E-003	1.00371E-004	-1.17608E-002	-1.05198E-002	5.23669E-004	7.36581E-004	-1.37103E-002	8.52172E-004
	135	135	4.99830E-002	-1.92780E-002	0.00000E+000	-9.63574E-004	-1.90442E-001	4.18983E-002	3.47040E+001	11	...........	6.99304E-002	-5.19806E-003	6.05580E-001	5.41611E-001	-2.69719E-002	-3.79260E-002	7.05926E-001	-4.38581E-002	-1.34812E-003	1.00208E-004	-1.16744E-002	-1.04412E-002	5.19966E-004	7.31139E-004	-1.36089E-002	8.45498E-004
	136	136	4.99842E-002	-1.89126E-002	0.00000E+000	-9.45330E-004	-1.86816E-001	4.17344E-002	3.42683E+001	11	...........	6.96432E-002	-5.27917E-003	6.05708E-001	5.41673E-001	-2.69724E-002	-3.78935E-002	7.06009E-001	-4.38169E-002	-1.31713E-003	9.98428E-005	-1.14555E-002	-1.02445E-002	5.10118E-004	7.16664E-004	-1.33525E-002	8.28692E-004
	137	137	4.99885E-002	-1.87783E-002	0.00000E+000	-9.38696E-004	-1.85477E-001	4.18250E-002	3.45166E+001	11	...........	6.98058E-002	-5.27903E-003	6.05698E-001	5.41514E-001	-2.69585E-002	-3.78750E-002	7.06037E-001	-4.39417E-002	-1.31083E-003	9.91309E-005	-1.13740E-002	-1.01687E-002	5.06233E-004	7.11226E-004	-1.32582E-002	8.25148E-004
	138	138	4.99844E-002	-1.86263E-002	0.00000E+000	-9.31024E-004	-1.83965E-001	4.18713E-002	3.45309E+001	11	...........	6.98411E-002	-5.33889E-003	6.05695E-001	5.41398E-001	-2.69411E-002	-3.78868E-002	7.06028E-001	-4.38489E-002	-1.30088E-003	9.94437E-005	-1.12819E-002	-1.00842E-002	5.01813E-004	7.05691E-004	-1.31507E-002	8.16742E-004
	139	139	4.99842E-002	-1.83897E-002	0.00000E+000	-9.19193E-004	-1.81608E-001	4.18603E-002	3.46791E+001	11	...........	6.98596E-002	-5.33097E-003	6.05721E-001	5.41373E-001	-2.69336E-002	-3.78690E-002	7.05869E-001	-4.38342E-002	-1.28470E-003	9.80349E-005	-1.11390E-002	-9.95568E-003	4.95301E-004	6.96399E-004	-1.29807E-002	8.06096E-004
	140	140	4.99882E-002	-1.82020E-002	0.00000E+000	-9.09886E-004	-1.79747E-001	4.18716E-002	3.47939E+001	11	...........	6.98854E-002	-5.24361E-003	6.05706E-001	5.41249E-001	-2.69386E-002	-3.78681E-002	7.05899E-001	-4.38214E-002	-1.27205E-003	9.54442E-005	-1.10251E-002	-9.85181E-003	4.90337E-004	6.89274E-004	-1.28488E-002	7.97637E-004
	141	141	4.99847E-002	-1.80603E-002	0.00000E+000	-9.02740E-004	-1.78347E-001	4.18732E-002	3.48326E+001	11	...........	6.98794E-002	-5.27611E-003	6.05701E-001	5.41215E-001	-2.69387E-002	-3.78517E-002	7.05941E-001	-4.37703E-002	-1.26205E-003	9.52883E-005	-1.09392E-002	-9.77452E-003	4.86523E-004	6.83614E-004	-1.27495E-002	7.90506E-004
	142	142	4.99861E-002	-1.78763E-002	0.00000E+000	-8.93568E-004	-1.76516E-001	4.19071E-002	3.48484E+001	11	...........	6.99354E-002	-5.26139E-003	6.05718E-001	5.41121E-001	-2.69247E-002	-3.78624E-002	7.05942E-001	-4.38457E-002	-1.25019E-003	9.40543E-005	-1.08280E-002	-9.67327E-003	4.81315E-004	6.76840E-004	-1.26197E-002	7.83800E-004
	143	143	4.99835E-002	-1.76299E-002	0.00000E+000	-8.81207E-004	-1.74061E-001	4.19067E-002	3.49505E+001	11	...........	6.99288E-002	-5.28056E-003	6.05884E-001	5.40878E-001	-2.69068E-002	-3.78585E-002	7.05858E-001	-4.37799E-002	-1.23284E-003	9.30959E-005	-1.06817E-002	-9.53565E-003	4.74366E-004	6.67443E-004	-1.24442E-002	7.71837E-004
	144	144	4.99878E-002	-1.74318E-002	0.00000E+000	-8.71375E-004	-1.72087E-001	4.19413E-002	3.49521E+001	11	...........	6.99872E-002	-5.29611E-003	6.05977E-001	5.40867E-001	-2.69115E-002	-3.78493E-002	7.05801E-001	-4.36192E-002	-1.22000E-003	9.23206E-005	-1.05633E-002	-9.42827E-003	4.69115E-004	6.59780E-004	-1.23034E-002	7.60359E-004
	145	145	4.99831E-002	-1.70357E-002	0.00000E+000	-8.51497E-004	-1.68146E-001	4.18435E-002	3.40718E+001	11	...........	6.98300E-002	-5.25694E-003	6.05982E-001	5.40874E-001	-2.69146E-002	-3.78581E-002	7.05906E-001	-4.37699E-002	-1.18960E-003	8.95557E-005	-1.03233E-002	-9.21417E-003	4.58509E-004	6.44939E-004	-1.20256E-002	7.45650E-004
	146	146	4.99866E-002	-1.69718E-002	0.00000E+000	-8.48365E-004	-1.67505E-001	4.20060E-002	3.49092E+001	11	...........	7.00972E-002	-5.15042E-003	6.06059E-001	5.40867E-001	-2.69499E-002	-3.78692E-002	7.06009E-001	-4.38388E-002	-1.18968E-003	8.74120E-005	-1.02859E-002	-9.17950E-003	4.57388E-004	6.42709E-004	-1.19823E-002	7.44024E-004
	147	147	4.99867E-002	-1.68280E-002	0.00000E+000	-8.41177E-004	-1.66066E-001	4.19040E-002	3.49872E+001	11	...........	6.99306E-002	-5.19764E-003	6.06009E-001	5.40802E-001	-2.69579E-002	-3.78507E-002	7.05954E-001	-4.37585E-002	-1.17679E-003	8.74659E-005	-1.01979E-002	-9.10062E-003	4.53648E-004	6.36952E-004	-1.18798E-002	7.36368E-004
	148	148	4.99840E-002	-1.65335E-002	0.00000E+000	-8.26410E-004	-1.63156E-001	4.19645E-002	3.49921E+001	11	...........	7.00039E-002	-5.26264E-003	6.05910E-001	5.40716E-001	-2.69351E-002	-3.78499E-002	7.05828E-001	-4.37254E-002	-1.15741E-003	8.70099E-005	-1.00178E-002	-8.93993E-003	4.45332E-004	6.25791E-004	-1.16698E-002	7.22934E-004
	149	149	4.99855E-002	-1.62146E-002	0.00000E+000	-8.10494E-004	-1.59979E-001	4.19791E-002	3.47699E+001	11	...........	7.00632E-002	-5.15958E-003	6.05871E-001	5.40700E-001	-2.69446E-002	-3.78617E-002	7.05896E-001	-4.37646E-002	-1.13604E-003	8.36604E-005	-9.82394E-003	-8.76723E-003	4.36895E-004	6.13911E-004	-1.14458E-002	7.09624E-004
	150	150	4.99783E-002	-1.59935E-002	0.00000E+000	-7.99326E-004	-1.57776E-001	4.19001E-002	3.34414E+001	11	...........	6.99306E-002	-5.16931E-003	6.05880E-001	5.40627E-001	-2.69686E-002	-3.78378E-002	7.05881E-001	-4.38404E-002	-1.11843E-003	8.26750E-005	-9.69011E-003	-8.64650E-003	4.31321E-004	6.05157E-004	-1.12895E-002	7.01160E-004
	151	151	4.99935E-002	-1.57121E-002	0.00000E+000	-7.85504E-004	-1.54984E-001	4.19667E-002	3.47070E+001	11	...........	7.00274E-002	-5.05611E-003	6.05903E-001	5.40578E-001	-2.69764E-002	-3.78250E-002	7.05828E-001	-4.38603E-002	-1.10028E-003	7.94423E-005	-9.52003E-003	-8.49364E-003	4.23857E-004	5.94312E-004	-1.10901E-002	6.89139E-004
	152	152	4.99861E-002	-1.57444E-002	0.00000E+000	-7.87002E-004	-1.55302E-001	4.19919E-002	3.50941E+001	11	...........	7.00789E-002	-5.13764E-003	6.05982E-001	5.40517E-001	-2.69717E-002	-3.78208E-002	7.05853E-001	-4.38022E-002	-1.10335E-003	8.08891E-005	-9.54084E-003	-8.51013E-003	4.24653E-004	5.95467E-004	-1.11132E-002	6.89641E-004
	153	153	4.99858E-002	-1.55516E-002	0.00000E+000	-7.77358E-004	-1.53388E-001	4.19973E-002	3.50756E+001	11	...........	7.00929E-002	-5.24722E-003	6.06042E-001	5.40674E-001	-2.69760E-002	-3.78312E-002	7.05871E-001	-4.37692E-002	-1.09006E-003	8.16026E-005	-9.42491E-003	-8.40832E-003	4.19519E-004	5.88335E-004	-1.09774E-002	6.80679E-004
	154	154	4.99854E-002	-1.53750E-002	0.00000E+000	-7.68523E-004	-1.51639E-001	4.20132E-002	3.50887E+001	11	...........	7.00992E-002	-5.35625E-003	6.06087E-001	5.40656E-001	-2.70110E-002	-3.78304E-002	7.05920E-001	-4.37333E-002	-1.07777E-003	8.23521E-005	-9.31857E-003	-8.31256E-003	4.15292E-004	5.81641E-004	-1.08535E-002	6.72398E-004
	155	155	4.99876E-002	-1.52448E-002	0.00000E+000	-7.62053E-004	-1.50337E-001	4.20285E-002	3.50825E+001	11	...........	7.01326E-002	-5.36875E-003	6.06166E-001	5.40747E-001	-2.70257E-002	-3.78392E-002	7.05948E-001	-4.37514E-002	-1.06916E-003	8.18457E-005	-9.24089E-003	-8.24359E-003	4.12002E-004	5.76852E-004	-1.07621E-002	6.66982E-004
	156	156	4.99852E-002	-1.50510E-002	0.00000E+000	-7.52327E-004	-1.48406E-001	4.20402E-002	3.50580E+001	11	...........	7.01435E-002	-5.29708E-003	6.06306E-001	5.40578E-001	-2.70187E-002	-3.78224E-002	7.06017E-001	-4.37776E-002	-1.05573E-003	7.97264E-005	-9.12551E-003	-8.13624E-003	4.06659E-004	5.69265E-004	-1.06263E-002	6.58898E-004
	157	157	4.99815E-002	-1.46770E-002	0.00000E+000	-7.33580E-004	-1.44679E-001	4.19065E-002	3.39062E+001	11	...........	6.99172E-002	-5.33139E-003	6.06273E-001	5.40503E-001	-2.70464E-002	-3.78249E-002	7.06151E-001	-4.38369E-002	-1.02618E-003	7.82490E-005	-8.89829E-003	-7.93298E-003	3.96961E-004	5.55157E-004	-1.03642E-002	6.43396E-004
	158	158	4.99903E-002	-1.46017E-002	0.00000E+000	-7.29941E-004	-1.43930E-001	4.20972E-002	3.50260E+001	11	...........	7.02497E-002	-5.25819E-003	6.06276E-001	5.40608E-001	-2.70651E-002	-3.78250E-002	7.06120E-001	-4.37843E-002	-1.02576E-003	7.67783E-005	-8.85263E-003	-7.89377E-003	3.95196E-004	5.52308E-004	-1.03105E-002	6.39323E-004
	159	159	4.99839E-002	-1.44774E-002	0.00000E+000	-7.23639E-004	-1.42688E-001	4.19528E-002	3.49670E+001	11	...........	7.00264E-002	-5.19083E-003	6.06380E-001	5.40547E-001	-2.70692E-002	-3.78390E-002	7.06154E-001	-4.37297E-002	-1.01380E-003	7.51499E-005	-8.77882E-003	-7.82573E-003	3.91892E-004	5.47812E-004	-1.02233E-002	6.33094E-004
	160	160	4.99884E-002	-1.43423E-002	0.00000E+000	-7.16949E-004	-1.41342E-001	4.20091E-002	3.51946E+001	11	...........	7.01128E-002	-5.23375E-003	6.06667E-001	5.40591E-001	-2.70308E-002	-3.78100E-002	7.05987E-001	-4.37044E-002	-1.00558E-003	7.50641E-005	-8.70101E-003	-7.75333E-003	3.87685E-004	5.42283E-004	-1.01255E-002	6.26823E-004
	161	161	4.99831E-002	-1.41423E-002	0.00000E+000	-7.06877E-004	-1.39369E-001	4.20250E-002	3.52932E+001	11	...........	7.01153E-002	-5.28889E-003	6.06891E-001	5.40582E-001	-2.70243E-002	-3.78008E-002	7.05931E-001	-4.37168E-002	-9.91591E-004	7.47970E-005	-8.58284E-003	-7.64507E-003	3.82186E-004	5.34591E-004	-9.98349E-003	6.18256E-004
	162	162	4.99866E-002	-1.38427E-002	0.00000E+000	-6.91951E-004	-1.36391E-001	4.20736E-002	3.46687E+001	11	...........	7.02011E-002	-5.27972E-003	6.06941E-001	5.40606E-001	-2.70450E-002	-3.77886E-002	7.06038E-001	-4.37972E-002	-9.71775E-004	7.30858E-005	-8.40172E-003	-7.48346E-003	3.74377E-004	5.23098E-004	-9.77350E-003	6.06273E-004
	163	163	4.99874E-002	-1.36575E-002	0.00000E+000	-6.82702E-004	-1.34545E-001	4.19194E-002	3.42109E+001	11	...........	6.99719E-002	-5.24306E-003	6.06902E-001	5.40654E-001	-2.70464E-002	-3.78075E-002	7.06196E-001	-4.38110E-002	-9.55642E-004	7.16070E-005	-8.28876E-003	-7.38398E-003	3.69386E-004	5.16356E-004	-9.64487E-003	5.98348E-004
	164	164	4.99860E-002	-1.35678E-002	0.00000E+000	-6.78200E-004	-1.33652E-001	4.20284E-002	3.48465E+001	11	...........	7.01364E-002	-5.28903E-003	6.06880E-001	5.40521E-001	-2.70489E-002	-3.78382E-002	7.06164E-001	-4.38679E-002	-9.51595E-004	7.17604E-005	-8.23401E-003	-7.33367E-003	3.66993E-004	5.13380E-004	-9.58108E-003	5.95190E-004
	165	165	4.99862E-002	-1.35433E-002	0.00000E+000	-6.76980E-004	-1.33409E-001	4.21536E-002	3.52574E+001	11	...........	7.03481E-002	-5.34250E-003	6.06821E-001	5.40538E-001	-2.70381E-002	-3.78203E-002	7.06236E-001	-4.38519E-002	-9.52747E-004	7.23553E-005	-8.21839E-003	-7.32069E-003	3.66185E-004	5.12213E-004	-9.56479E-003	5.93902E-004
	166	166	4.99861E-002	-1.33263E-002	0.00000E+000	-6.66129E-004	-1.31248E-001	4.20512E-002	3.52580E+001	11	...........	7.01751E-002	-5.21194E-003	6.06717E-001	5.40739E-001	-2.70432E-002	-3.78176E-002	7.06200E-001	-4.38850E-002	-9.35174E-004	6.94559E-005	-8.08528E-003	-7.20605E-003	3.60385E-004	5.03969E-004	-9.41102E-003	5.84824E-004
	167	167	4.99863E-002	-1.31711E-002	0.00000E+000	-6.58376E-004	-1.29702E-001	4.20458E-002	3.52887E+001	11	...........	7.01665E-002	-5.23986E-003	6.06758E-001	5.40839E-001	-2.70615E-002	-3.78246E-002	7.06106E-001	-4.39289E-002	-9.24172E-004	6.90149E-005	-7.99169E-003	-7.12346E-003	3.56431E-004	4.98193E-004	-9.30021E-003	5.78593E-004
	168	168	4.99869E-002	-1.30604E-002	0.00000E+000	-6.52851E-004	-1.28606E-001	4.20938E-002	3.48493E+001	11	...........	7.02368E-002	-5.21042E-003	6.06815E-001	5.40914E-001	-2.70439E-002	-3.78428E-002	7.06078E-001	-4.38293E-002	-9.17323E-004	6.80503E-005	-7.92527E-003	-7.06457E-003	3.53205E-004	4.94243E-004	-9.22168E-003	5.72430E-004
	169	169	4.99860E-002	-1.27567E-002	0.00000E+000	-6.37654E-004	-1.25593E-001	4.19870E-002	3.48548E+001	11	...........	7.00575E-002	-5.27944E-003	6.06546E-001	5.40888E-001	-2.70518E-002	-3.78951E-002	7.06058E-001	-4.37747E-002	-8.93700E-004	6.73481E-005	-7.73751E-003	-6.89993E-003	3.45091E-004	4.83416E-004	-9.00695E-003	5.58419E-004
	170	170	4.99869E-002	-1.27718E-002	0.00000E+000	-6.38425E-004	-1.25747E-001	4.21597E-002	3.53898E+001	11	...........	7.03650E-002	-5.30236E-003	6.06579E-001	5.40745E-001	-2.70362E-002	-3.78987E-002	7.06137E-001	-4.37476E-002	-8.98691E-004	6.77210E-005	-7.74714E-003	-6.90632E-003	3.45303E-004	4.84037E-004	-9.01868E-003	5.58738E-004
	171	171	4.99859E-002	-1.26428E-002	0.00000E+000	-6.31962E-004	-1.24455E-001	4.20736E-002	3.54534E+001	11	...........	7.01993E-002	-5.33250E-003	6.06768E-001	5.40683E-001	-2.70507E-002	-3.78825E-002	7.06083E-001	-4.37376E-002	-8.87516E-004	6.74177E-005	-7.67125E-003	-6.83574E-003	3.41997E-004	4.78941E-004	-8.92687E-003	5.52966E-004
	172	172	4.99864E-002	-1.24349E-002	0.00000E+000	-6.21577E-004	-1.22384E-001	4.20932E-002	3.54867E+001	11	...........	7.02467E-002	-5.26806E-003	6.06740E-001	5.40601E-001	-2.70557E-002	-3.78857E-002	7.06123E-001	-4.37615E-002	-8.73512E-004	6.55079E-005	-7.54476E-003	-6.72233E-003	3.36436E-004	4.71106E-004	-8.78058E-003	5.44171E-004
	173	173	4.99867E-002	-1.23629E-002	0.00000E+000	-6.17981E-004	-1.21666E-001	4.21083E-002	3.55452E+001	11	...........	7.02568E-002	-5.15236E-003	6.06632E-001	5.40681E-001	-2.70546E-002	-3.78824E-002	7.06230E-001	-4.36950E-002	-8.68579E-004	6.36982E-005	-7.49974E-003	-6.68439E-003	3.34473E-004	4.68336E-004	-8.73106E-003	5.40197E-004
	174	174	4.99841E-002	-1.22191E-002	0.00000E+000	-6.10759E-004	-1.20238E-001	4.21141E-002	3.55639E+001	11	...........	7.02951E-002	-5.21903E-003	6.06674E-001	5.40705E-001	-2.70692E-002	-3.78803E-002	7.06181E-001	-4.39008E-002	-8.58941E-004	6.37716E-005	-7.41299E-003	-6.60691E-003	3.30760E-004	4.62862E-004	-8.62888E-003	5.36427E-004
	175	175	4.99817E-002	-1.19041E-002	0.00000E+000	-5.94987E-004	-1.17103E-001	4.21039E-002	3.41015E+001	11	...........	7.02586E-002	-5.31514E-003	6.06803E-001	5.40716E-001	-2.70678E-002	-3.78865E-002	7.06222E-001	-4.36969E-002	-8.36366E-004	6.32719E-005	-7.22344E-003	-6.43674E-003	3.22218E-004	4.51005E-004	-8.40694E-003	5.20173E-004
	176	176	4.99915E-002	-1.17082E-002	0.00000E+000	-5.85309E-004	-1.15150E-001	4.20543E-002	3.49967E+001	11	...........	7.01704E-002	-5.24583E-003	6.06697E-001	5.40929E-001	-2.70533E-002	-3.78725E-002	7.06213E-001	-4.36494E-002	-8.21567E-004	6.14191E-005	-7.10332E-003	-6.33329E-003	3.16745E-004	4.43418E-004	-8.26847E-003	5.11055E-004
	177	177	4.99883E-002	-1.17330E-002	0.00000E+000	-5.86510E-004	-1.15391E-001	4.21042E-002	3.54693E+001	11	...........	7.02422E-002	-5.33458E-003	6.06656E-001	5.41067E-001	-2.70376E-002	-3.78794E-002	7.06124E-001	-4.36479E-002	-8.24149E-004	6.25904E-005	-7.11786E-003	-6.34832E-003	3.17231E-004	4.44438E-004	-8.28492E-003	5.12119E-004
	178	178	4.99866E-002	-1.16498E-002	0.00000E+000	-5.82334E-004	-1.14573E-001	4.21486E-002	3.55031E+001	11	...........	7.03096E-002	-5.37569E-003	6.06587E-001	5.41065E-001	-2.70262E-002	-3.78903E-002	7.05962E-001	-4.37824E-002	-8.19093E-004	6.26258E-005	-7.06662E-003	-6.30330E-003	3.14851E-004	4.41414E-004	-8.22432E-003	5.10056E-004
	179	179	4.99863E-002	-1.14685E-002	0.00000E+000	-5.73267E-004	-1.12783E-001	4.21242E-002	3.53872E+001	11	...........	7.02889E-002	-5.36264E-003	6.06373E-001	5.41121E-001	-2.70471E-002	-3.78881E-002	7.05889E-001	-4.37747E-002	-8.06108E-004	6.15014E-005	-6.95419E-003	-6.20584E-003	3.10189E-004	4.34519E-004	-8.09549E-003	5.02030E-004
	180	180	4.99864E-002	-1.13479E-002	0.00000E+000	-5.67243E-004	-1.11582E-001	4.21394E-002	3.53366E+001	11	...........	7.03107E-002	-5.33333E-003	6.06422E-001	5.41176E-001	-2.70812E-002	-3.78847E-002	7.06007E-001	-4.37454E-002	-7.97882E-004	6.05224E-005	-6.88164E-003	-6.14123E-003	3.07316E-004	4.29914E-004	-8.01172E-003	4.96420E-004
	181	181	4.99866E-002	-1.12358E-002	0.00000E+000	-5.61641E-004	-1.10463E-001	4.21808E-002	3.54159E+001	11	...........	7.03812E-002	-5.31917E-003	6.06476E-001	5.41093E-001	-2.70739E-002	-3.78864E-002	7.05982E-001	-4.38125E-002	-7.90792E-004	5.97653E-005	-6.81427E-003	-6.07963E-003	3.04198E-004	4.25685E-004	-7.93230E-003	4.92270E-004
	182	182	4.99866E-002	-1.11092E-002	0.00000E+000	-5.55310E-004	-1.09204E-001	4.21297E-002	3.54147E+001	11	...........	7.03000E-002	-5.32458E-003	6.06525E-001	5.41063E-001	-2.71071E-002	-3.78931E-002	7.05968E-001	-4.38269E-002	-7.80974E-004	5.91517E-005	-6.73798E-003	-6.01076E-003	3.01137E-004	4.20960E-004	-7.84271E-003	4.86881E-004
	183	183	4.99863E-002	-1.10170E-002	0.00000E+000	-5.50699E-004	-1.08285E-001	4.21782E-002	3.53824E+001	11	...........	7.03875E-002	-5.33486E-003	6.06458E-001	5.41227E-001	-2.71108E-002	-3.79189E-002	7.06091E-001	-4.38707E-002	-7.75458E-004	5.87741E-005	-6.68134E-003	-5.96269E-003	2.98680E-004	4.17752E-004	-7.77899E-003	4.83323E-004
	184	184	4.99874E-002	-1.08927E-002	0.00000E+000	-5.44495E-004	-1.07055E-001	4.21922E-002	3.54156E+001	11	...........	7.04101E-002	-5.26528E-003	6.06620E-001	5.41214E-001	-2.71100E-002	-3.79161E-002	7.05949E-001	-4.37593E-002	-7.66953E-004	5.73528E-005	-6.60770E-003	-5.89525E-003	2.95300E-004	4.13007E-004	-7.68966E-003	4.76655E-004
	185	185	4.99864E-002	-1.07939E-002	0.00000E+000	-5.39547E-004	-1.06066E-001	4.22038E-002	3.54633E+001	11	...........	7.04376E-002	-5.23792E-003	6.06492E-001	5.41355E-001	-2.71274E-002	-3.79550E-002	7.05870E-001	-4.38271E-002	-7.60295E-004	5.65374E-005	-6.54639E-003	-5.84331E-003	2.92809E-004	4.09681E-004	-7.61907E-003	4.73064E-004
	186	186	4.99860E-002	-1.06468E-002	0.00000E+000	-5.32192E-004	-1.04604E-001	4.21970E-002	3.54965E+001	11	...........	7.04108E-002	-5.17542E-003	6.06343E-001	5.41518E-001	-2.71331E-002	-3.79643E-002	7.05967E-001	-4.37874E-002	-7.49651E-004	5.51017E-005	-6.45563E-003	-5.76544E-003	2.88881E-004	4.04199E-004	-7.51630E-003	4.66196E-004
	187	187	4.99855E-002	-1.04780E-002	0.00000E+000	-5.23746E-004	-1.02927E-001	4.22400E-002	3.54429E+001	11	...........	7.04885E-002	-5.23806E-003	6.06535E-001	5.41508E-001	-2.71082E-002	-3.79644E-002	7.05953E-001	-4.38378E-002	-7.38575E-004	5.48841E-005	-6.35525E-003	-5.67389E-003	2.84038E-004	3.97790E-004	-7.39695E-003	4.59330E-004
	188	188	4.99820E-002	-1.02200E-002	0.00000E+000	-5.10818E-004	-1.00403E-001	4.21741E-002	3.37303E+001	11	...........	7.03440E-002	-5.25500E-003	6.06596E-001	5.41490E-001	-2.71197E-002	-3.79658E-002	7.06013E-001	-4.39650E-002	-7.18919E-004	5.37063E-005	-6.19944E-003	-5.53404E-003	2.77165E-004	3.88012E-004	-7.21548E-003	4.49324E-004
	189	189	4.99913E-002	-1.00830E-002	0.00000E+000	-5.04063E-004	-9.90343E-002	4.21921E-002	3.47552E+001	11	...........	7.04025E-002	-5.19889E-003	6.06381E-001	5.41374E-001	-2.71075E-002	-3.79401E-002	7.06010E-001	-4.39867E-002	-7.09869E-004	5.24205E-005	-6.11415E-003	-5.45869E-003	2.73325E-004	3.82551E-004	-7.11870E-003	4.43518E-004
	190	190	4.99886E-002	-1.01369E-002	0.00000E+000	-5.06730E-004	-9.95690E-002	4.21937E-002	3.53883E+001	11	...........	7.04225E-002	-5.22569E-003	6.06230E-001	5.41477E-001	-2.71046E-002	-3.79675E-002	7.06134E-001	-4.38850E-002	-7.13867E-004	5.29724E-005	-6.14530E-003	-5.48890E-003	2.74757E-004	3.84873E-004	-7.15802E-003	4.44858E-004
	191	191	4.99866E-002	-1.00672E-002	0.00000E+000	-5.03226E-004	-9.88797E-002	4.22376E-002	3.54113E+001	11	...........	7.04944E-002	-5.27292E-003	6.06374E-001	5.41447E-001	-2.71169E-002	-3.79554E-002	7.06082E-001	-4.39040E-002	-7.09683E-004	5.30836E-005	-6.10449E-003	-5.45086E-003	2.72992E-004	3.82105E-004	-7.10827E-003	4.41991E-004
	192	192	4.99862E-002	-9.94288E-003	0.00000E+000	-4.97007E-004	-9.76407E-002	4.22336E-002	3.54413E+001	11	...........	7.04812E-002	-5.24306E-003	6.06414E-001	5.41597E-001	-2.71244E-002	-3.79579E-002	7.06024E-001	-4.38497E-002	-7.00786E-004	5.21311E-005	-6.02950E-003	-5.38504E-003	2.69695E-004	3.77411E-004	-7.01991E-003	4.35992E-004
	193	193	4.99873E-002	-9.82386E-003	0.00000E+000	-4.91068E-004	-9.64530E-002	4.22505E-002	3.54639E+001	11	...........	7.05065E-002	-5.27389E-003	6.06499E-001	5.41626E-001	-2.71093E-002	-3.79675E-002	7.06074E-001	-4.39175E-002	-6.92646E-004	5.18099E-005	-5.95816E-003	-5.32086E-003	2.66318E-004	3.72987E-004	-6.93637E-003	4.31439E-004
	194	194	4.99831E-002	-9.62644E-003	0.00000E+000	-4.81159E-004	-9.44887E-002	4.21736E-002	3.44053E+001	11	...........	7.03703E-002	-5.31000E-003	6.06421E-001	5.41607E-001	-2.71049E-002	-3.79565E-002	7.05960E-001	-4.39578E-002	-6.77416E-004	5.11164E-005	-5.83768E-003	-5.21375E-003	2.60923E-004	3.65386E-004	-6.79589E-003	4.23157E-004
	195	195	4.99891E-002	-9.52523E-003	0.00000E+000	-4.76157E-004	-9.34787E-002	4.23205E-002	3.53567E+001	11	...........	7.06132E-002	-5.29958E-003	6.06540E-001	5.41688E-001	-2.71097E-002	-3.79362E-002	7.05961E-001	-4.39685E-002	-6.72607E-004	5.04797E-005	-5.77743E-003	-5.15970E-003	2.58226E-004	3.61351E-004	-6.72444E-003	4.18810E-004
	196	196	4.99850E-002	-9.34759E-003	0.00000E+000	-4.67239E-004	-9.17063E-002	4.21370E-002	3.46494E+001	11	...........	7.03031E-002	-5.37417E-003	6.06588E-001	5.41683E-001	-2.70947E-002	-3.79340E-002	7.06021E-001	-4.38961E-002	-6.57164E-004	5.02355E-005	-5.67014E-003	-5.06343E-003	2.53270E-004	3.54592E-004	-6.59960E-003	4.10323E-004
	197	197	4.99892E-002	-9.29735E-003	0.00000E+000	-4.64767E-004	-9.12063E-002	4.22134E-002	3.52950E+001	11	...........	7.04489E-002	-5.32333E-003	6.06540E-001	5.41665E-001	-2.70896E-002	-3.79210E-002	7.06107E-001	-4.37389E-002	-6.54988E-004	4.94929E-005	-5.63921E-003	-5.03605E-003	2.51861E-004	3.52565E-004	-6.56493E-003	4.06656E-004
	198	198	4.99876E-002	-9.26926E-003	0.00000E+000	-4.63348E-004	-9.09267E-002	4.22507E-002	3.56022E+001	11	...........	7.05150E-002	-5.20125E-003	6.06327E-001	5.41658E-001	-2.70685E-002	-3.79132E-002	7.06046E-001	-4.37886E-002	-6.53622E-004	4.82117E-005	-5.62020E-003	-5.02077E-003	2.50905E-004	3.51427E-004	-6.54452E-003	4.05888E-004
	199	199	4.99861E-002	-9.19328E-003	0.00000E+000	-4.59536E-004	-9.01663E-002	4.22368E-002	3.56438E+001	11	...........	7.04844E-002	-5.26667E-003	6.06291E-001	5.41586E-001	-2.70517E-002	-3.79085E-002	7.06031E-001	-4.39018E-002	-6.47983E-004	4.84179E-005	-5.57380E-003	-4.97895E-003	2.48694E-004	3.48503E-004	-6.49074E-003	4.03602E-004
	200	200	4.99861E-002	-9.03727E-003	0.00000E+000	-4.51738E-004	-8.86257E-002	4.22110E-002	3.56732E+001	11	...........	7.04450E-002	-5.23833E-003	6.06386E-001	5.41614E-001	-2.70396E-002	-3.79307E-002	7.06179E-001	-4.38786E-002	-6.36631E-004	4.73403E-005	-5.48007E-003	-4.89472E-003	2.44364E-004	3.42790E-004	-6.38193E-003	3.96543E-004
	201	201	4.99848E-002	-8.90899E-003	0.00000E+000	-4.45314E-004	-8.73577E-002	4.21747E-002	3.45180E+001	11	...........	7.03735E-002	-5.30486E-003	6.06454E-001	5.41547E-001	-2.70493E-002	-3.79517E-002	7.06110E-001	-4.39431E-002	-6.26956E-004	4.72609E-005	-5.40289E-003	-4.82464E-003	2.40982E-004	3.38111E-004	-6.29072E-003	3.91488E-004
	202	202	4.99891E-002	-8.80871E-003	0.00000E+000	-4.40339E-004	-8.63573E-002	4.22495E-002	3.55585E+001	11	...........	7.05190E-002	-5.21806E-003	6.06444E-001	5.41596E-001	-2.70878E-002	-3.79397E-002	7.05975E-001	-4.39460E-002	-6.21182E-004	4.59644E-005	-5.34199E-003	-4.77077E-003	2.38608E-004	3.34200E-004	-6.21873E-003	3.87108E-004
	203	203	4.99868E-002	-8.68144E-003	0.00000E+000	-4.33957E-004	-8.50940E-002	4.22790E-002	3.51228E+001	11	...........	7.05533E-002	-5.18986E-003	6.06462E-001	5.41760E-001	-2.70517E-002	-3.79622E-002	7.06119E-001	-4.37883E-002	-6.12504E-004	4.50555E-005	-5.26496E-003	-4.70326E-003	2.34847E-004	3.29567E-004	-6.13013E-003	3.80146E-004
	204	204	4.99875E-002	-8.55412E-003	0.00000E+000	-4.27599E-004	-8.38247E-002	4.21536E-002	3.54119E+001	11	...........	7.03381E-002	-5.23042E-003	6.06383E-001	5.41943E-001	-2.70383E-002	-3.79564E-002	7.06150E-001	-4.37308E-002	-6.01680E-004	4.47416E-005	-5.18707E-003	-4.63584E-003	2.31289E-004	3.24683E-004	-6.04049E-003	3.74079E-004
	205	205	4.99871E-002	-8.55001E-003	0.00000E+000	-4.27391E-004	-8.37813E-002	4.22966E-002	3.53021E+001	11	...........	7.05889E-002	-5.23694E-003	6.06518E-001	5.42063E-001	-2.70658E-002	-3.79501E-002	7.05980E-001	-4.38690E-002	-6.03536E-004	4.47759E-005	-5.18573E-003	-4.63465E-003	2.31413E-004	3.24474E-004	-6.03613E-003	3.75081E-004
	206	206	4.99857E-002	-8.39888E-003	0.00000E+000	-4.19824E-004	-8.22750E-002	4.21848E-002	3.48738E+001	11	...........	7.04097E-002	-5.19722E-003	6.06546E-001	5.41948E-001	-2.70839E-002	-3.79331E-002	7.06048E-001	-4.39032E-002	-5.91363E-004	4.36508E-005	-5.09431E-003	-4.55175E-003	2.27474E-004	3.18595E-004	-5.93001E-003	3.68738E-004
	207	207	4.99881E-002	-8.33957E-003	0.00000E+000	-4.16879E-004	-8.16893E-002	4.23215E-002	3.56366E+001	11	...........	7.06231E-002	-5.23736E-003	6.06573E-001	5.41930E-001	-2.70849E-002	-3.79439E-002	7.06155E-001	-4.38454E-002	-5.88966E-004	4.36774E-005	-5.05856E-003	-4.51946E-003	2.25876E-004	3.16436E-004	-5.88903E-003	3.65652E-004
	208	208	4.99870E-002	-8.28188E-003	0.00000E+000	-4.13986E-004	-8.11123E-002	4.22513E-002	3.57068E+001	11	...........	7.05167E-002	-5.31111E-003	6.06707E-001	5.41935E-001	-2.70819E-002	-3.79728E-002	7.06155E-001	-4.38457E-002	-5.84010E-004	4.39860E-005	-5.02467E-003	-4.48824E-003	2.24289E-004	3.14486E-004	-5.84828E-003	3.63125E-004
	209	209	4.99872E-002	-8.19986E-003	0.00000E+000	-4.09888E-004	-8.02970E-002	4.22852E-002	3.57689E+001	11	...........	7.05517E-002	-5.23653E-003	6.06870E-001	5.41799E-001	-2.70576E-002	-3.79826E-002	7.06006E-001	-4.38361E-002	-5.78514E-004	4.29388E-005	-4.97625E-003	-4.44268E-003	2.21869E-004	3.11452E-004	-5.78915E-003	3.59450E-004
	210	210	4.99874E-002	-8.10306E-003	0.00000E+000	-4.05051E-004	-7.93333E-002	4.22514E-002	3.57523E+001	11	...........	7.04992E-002	-5.10472E-003	6.06959E-001	5.41828E-001	-2.70587E-002	-3.80001E-002	7.05857E-001	-4.38110E-002	-5.71259E-004	4.13639E-005	-4.91823E-003	-4.39047E-003	2.19259E-004	3.07918E-004	-5.71960E-003	3.55003E-004
	211	211	4.99867E-002	-8.03275E-003	0.00000E+000	-4.01531E-004	-7.86343E-002	4.22863E-002	3.57284E+001	11	...........	7.05629E-002	-5.23236E-003	6.06932E-001	5.41928E-001	-2.70639E-002	-3.79790E-002	7.05942E-001	-4.37553E-002	-5.66814E-004	4.20302E-005	-4.87533E-003	-4.35317E-003	2.17397E-004	3.05076E-004	-5.67065E-003	3.51475E-004
	212	212	4.99853E-002	-7.89289E-003	0.00000E+000	-3.94528E-004	-7.72533E-002	4.21881E-002	3.47614E+001	11	...........	7.03965E-002	-5.31250E-003	6.06966E-001	5.41983E-001	-2.70792E-002	-3.79703E-002	7.06067E-001	-4.35654E-002	-5.55632E-004	4.19310E-005	-4.79071E-003	-4.27781E-003	2.13733E-004	2.99695E-004	-5.57291E-003	3.43857E-004
	213	213	4.99889E-002	-7.85086E-003	0.00000E+000	-3.92456E-004	-7.68390E-002	4.23504E-002	3.57042E+001	11	...........	7.06814E-002	-5.29319E-003	6.07058E-001	5.41871E-001	-2.70372E-002	-3.79679E-002	7.06014E-001	-4.36686E-002	-5.54909E-004	4.15561E-005	-4.76592E-003	-4.25415E-003	2.12265E-004	2.98081E-004	-5.54282E-003	3.42836E-004
	214	214	4.99870E-002	-7.76526E-003	0.00000E+000	-3.88162E-004	-7.59977E-002	4.22343E-002	3.58094E+001	11	...........	7.04889E-002	-5.28403E-003	6.07060E-001	5.41851E-001	-2.70472E-002	-3.79829E-002	7.06087E-001	-4.36496E-002	-5.47365E-004	4.10318E-005	-4.71398E-003	-4.20761E-003	2.10029E-004	2.94947E-004	-5.48295E-003	3.38950E-004
	215	215	4.99859E-002	-7.66089E-003	0.00000E+000	-3.82937E-004	-7.49523E-002	4.22674E-002	3.57640E+001	11	...........	7.05492E-002	-5.25292E-003	6.07051E-001	5.41742E-001	-2.70528E-002	-3.80274E-002	7.06067E-001	-4.37086E-002	-5.40469E-004	4.02420E-005	-4.65055E-003	-4.15022E-003	2.07248E-004	2.91323E-004	-5.40910E-003	3.34847E-004
	216	216	4.99858E-002	-7.52873E-003	0.00000E+000	-3.76330E-004	-7.36320E-002	4.22167E-002	3.46515E+001	11	...........	7.04568E-002	-5.17708E-003	6.07032E-001	5.41615E-001	-2.70493E-002	-3.80404E-002	7.06071E-001	-4.37551E-002	-5.30451E-004	3.89769E-005	-4.57018E-003	-4.07768E-003	2.03647E-004	2.86396E-004	-5.31582E-003	3.29421E-004
	217	217	4.99892E-002	-7.46002E-003	0.00000E+000	-3.72921E-004	-7.29510E-002	4.22892E-002	3.54871E+001	11	...........	7.05885E-002	-5.19722E-003	6.06915E-001	5.41594E-001	-2.70594E-002	-3.80669E-002	7.06138E-001	-4.37864E-002	-5.26592E-004	3.87714E-005	-4.52760E-003	-4.04030E-003	2.01864E-004	2.83980E-004	-5.26781E-003	3.26648E-004
	218	218	4.99874E-002	-7.43674E-003	0.00000E+000	-3.71743E-004	-7.27160E-002	4.22702E-002	3.58000E+001	11	...........	7.05511E-002	-5.30306E-003	6.06952E-001	5.41585E-001	-2.70090E-002	-3.80908E-002	7.06128E-001	-4.37282E-002	-5.24670E-004	3.94374E-005	-4.51374E-003	-4.02762E-003	2.00859E-004	2.83272E-004	-5.25129E-003	3.25195E-004
	219	219	4.99876E-002	-7.36062E-003	0.00000E+000	-3.67939E-004	-7.19570E-002	4.23134E-002	3.57745E+001	11	...........	7.06093E-002	-5.21667E-003	6.06925E-001	5.41551E-001	-2.69918E-002	-3.81099E-002	7.06047E-001	-4.37779E-002	-5.19728E-004	3.83979E-005	-4.46734E-003	-3.98615E-003	1.98676E-004	2.80512E-004	-5.19694E-003	3.22233E-004
	220	220	4.99866E-002	-7.27825E-003	0.00000E+000	-3.63815E-004	-7.11350E-002	4.23240E-002	3.57678E+001	11	...........	7.06272E-002	-5.15639E-003	6.06928E-001	5.41499E-001	-2.69772E-002	-3.81151E-002	7.06069E-001	-4.38286E-002	-5.14042E-004	3.75295E-005	-4.41737E-003	-3.94116E-003	1.96347E-004	2.77411E-004	-5.13894E-003	3.18995E-004
	221	221	4.99858E-002	-7.18001E-003	0.00000E+000	-3.58898E-004	-7.01583E-002	4.22545E-002	3.47778E+001	11	...........	7.05233E-002	-5.16931E-003	6.07001E-001	5.41634E-001	-2.69912E-002	-3.81471E-002	7.06028E-001	-4.38628E-002	-5.06358E-004	3.71157E-005	-4.35827E-003	-3.88894E-003	1.93797E-004	2.73896E-004	-5.06929E-003	3.14935E-004
	222	222	4.99887E-002	-7.11721E-003	0.00000E+000	-3.55780E-004	-6.95293E-002	4.23160E-002	3.56463E+001	11	...........	7.06174E-002	-5.19653E-003	6.06924E-001	5.41673E-001	-2.70147E-002	-3.81265E-002	7.05990E-001	-4.38754E-002	-5.02598E-004	3.69848E-005	-4.31961E-003	-3.85520E-003	1.92269E-004	2.71354E-004	-5.02468E-003	3.12270E-004
	223	223	4.99872E-002	-7.05118E-003	0.00000E+000	-3.52469E-004	-6.88780E-002	4.23334E-002	3.56481E+001	11	...........	7.06392E-002	-5.28444E-003	6.06818E-001	5.41626E-001	-2.70208E-002	-3.81354E-002	7.05973E-001	-4.38546E-002	-4.98089E-004	3.72616E-005	-4.27879E-003	-3.81910E-003	1.90529E-004	2.68900E-004	-4.97794E-003	3.09227E-004
	224	224	4.99875E-002	-6.99620E-003	0.00000E+000	-3.49723E-004	-6.83343E-002	4.22708E-002	3.56690E+001	11	...........	7.05614E-002	-5.31194E-003	6.06818E-001	5.41557E-001	-2.70074E-002	-3.81282E-002	7.05981E-001	-4.39381E-002	-4.93662E-004	3.71634E-005	-4.24543E-003	-3.78884E-003	1.88949E-004	2.66753E-004	-4.93918E-003	3.07400E-004
	225	225	4.99873E-002	-6.93627E-003	0.00000E+000	-3.46725E-004	-6.77353E-002	4.23575E-002	3.57929E+001	11	...........	7.06781E-002	-5.34792E-003	6.06785E-001	5.41487E-001	-2.70111E-002	-3.81378E-002	7.05926E-001	-4.38458E-002	-4.90242E-004	3.70946E-005	-4.20882E-003	-3.75590E-003	1.87356E-004	2.64534E-004	-4.89649E-003	3.04127E-004
	226	226	4.99870E-002	-6.87381E-003	0.00000E+000	-3.43601E-004	-6.71043E-002	4.23828E-002	3.58883E+001	11	...........	7.07212E-002	-5.31972E-003	6.06615E-001	5.41429E-001	-2.69924E-002	-3.81347E-002	7.05978E-001	-4.37347E-002	-4.86124E-004	3.65668E-005	-4.16975E-003	-3.72168E-003	1.85540E-004	2.62131E-004	-4.85276E-003	3.00624E-004
	227	227	4.99860E-002	-6.71600E-003	0.00000E+000	-3.35706E-004	-6.55387E-002	4.22315E-002	3.46305E+001	11	...........	7.04740E-002	-5.35583E-003	6.06625E-001	5.41462E-001	-2.69961E-002	-3.81443E-002	7.06072E-001	-4.37661E-002	-4.73303E-004	3.59698E-005	-4.07409E-003	-3.63646E-003	1.81306E-004	2.56177E-004	-4.74198E-003	2.93933E-004
	228	228	4.99884E-002	-6.69606E-003	0.00000E+000	-3.34725E-004	-6.53373E-002	4.23962E-002	3.57789E+001	11	...........	7.07547E-002	-5.39417E-003	6.06537E-001	5.41615E-001	-2.70051E-002	-3.81229E-002	7.06061E-001	-4.37996E-002	-4.73778E-004	3.61197E-005	-4.06141E-003	-3.62669E-003	1.80828E-004	2.55273E-004	-4.72783E-003	2.93285E-004
	229	229	4.99876E-002	-6.65218E-003	0.00000E+000	-3.32526E-004	-6.49027E-002	4.22993E-002	3.59638E+001	11	...........	7.05922E-002	-5.35139E-003	6.06641E-001	5.41654E-001	-2.69843E-002	-3.81025E-002	7.06099E-001	-4.36615E-002	-4.69592E-004	3.55984E-005	-4.03548E-003	-3.60318E-003	1.79504E-004	2.53465E-004	-4.69709E-003	2.90444E-004
	230	230	4.99868E-002	-6.55882E-003	0.00000E+000	-3.27854E-004	-6.39683E-002	4.23483E-002	3.58530E+001	11	...........	7.06586E-002	-5.33347E-003	6.06877E-001	5.41707E-001	-2.69667E-002	-3.81049E-002	7.06011E-001	-4.38253E-002	-4.63437E-004	3.49813E-005	-3.98040E-003	-3.55296E-003	1.76870E-004	2.49923E-004	-4.63060E-003	2.87442E-004
	231	231	4.99868E-002	-6.47237E-003	0.00000E+000	-3.23533E-004	-6.31220E-002	4.23057E-002	3.51304E+001	11	...........	7.05919E-002	-5.30069E-003	6.06853E-001	5.41679E-001	-2.69772E-002	-3.80667E-002	7.06174E-001	-4.38392E-002	-4.56897E-004	3.43081E-005	-3.92778E-003	-3.50595E-003	1.74607E-004	2.46382E-004	-4.57062E-003	2.83743E-004
	232	232	4.99887E-002	-6.40223E-003	0.00000E+000	-3.20039E-004	-6.24290E-002	4.22701E-002	3.55925E+001	11	...........	7.05562E-002	-5.33694E-003	6.06907E-001	5.41592E-001	-2.69615E-002	-3.80514E-002	7.06143E-001	-4.38268E-002	-4.51717E-004	3.41684E-005	-3.88556E-003	-3.46740E-003	1.72614E-004	2.43614E-004	-4.52089E-003	2.80589E-004
	233	233	4.99874E-002	-6.41475E-003	0.00000E+000	-3.20656E-004	-6.25583E-002	4.24054E-002	3.59045E+001	11	...........	7.07579E-002	-5.32236E-003	6.07071E-001	5.41582E-001	-2.69689E-002	-3.80736E-002	7.06104E-001	-4.38071E-002	-4.53894E-004	3.41416E-005	-3.89420E-003	-3.47411E-003	1.72999E-004	2.44233E-004	-4.52948E-003	2.81011E-004
	234	234	4.99861E-002	-6.33540E-003	0.00000E+000	-3.16682E-004	-6.17613E-002	4.23792E-002	3.52058E+001	11	...........	7.07162E-002	-5.25958E-003	6.07073E-001	5.41474E-001	-2.69600E-002	-3.80618E-002	7.06058E-001	-4.37285E-002	-4.48016E-004	3.33216E-005	-3.84605E-003	-3.43046E-003	1.70802E-004	2.41137E-004	-4.47316E-003	2.77037E-004
	235	235	4.99884E-002	-6.22934E-003	0.00000E+000	-3.11395E-004	-6.07053E-002	4.23337E-002	3.57753E+001	11	...........	7.06472E-002	-5.28167E-003	6.06980E-001	5.41480E-001	-2.69740E-002	-3.80753E-002	7.06036E-001	-4.38531E-002	-4.40086E-004	3.29013E-005	-3.78109E-003	-3.37306E-003	1.68030E-004	2.37184E-004	-4.39814E-003	2.73176E-004
	236	236	4.99877E-002	-6.21562E-003	0.00000E+000	-3.10704E-004	-6.05653E-002	4.23429E-002	3.59157E+001	11	...........	7.06658E-002	-5.26986E-003	6.06931E-001	5.41526E-001	-2.69747E-002	-3.80510E-002	7.05988E-001	-4.38253E-002	-4.39232E-004	3.27554E-005	-3.77245E-003	-3.36592E-003	1.67665E-004	2.36510E-004	-4.38815E-003	2.72401E-004
	237	237	4.99868E-002	-6.15983E-003	0.00000E+000	-3.07910E-004	-6.00127E-002	4.23707E-002	3.58941E+001	11	...........	7.07079E-002	-5.25500E-003	6.06925E-001	5.41543E-001	-2.69460E-002	-3.80400E-002	7.05995E-001	-4.38807E-002	-4.35549E-004	3.23699E-005	-3.73855E-003	-3.33581E-003	1.65983E-004	2.34320E-004	-4.34881E-003	2.70298E-004
	238	238	4.99877E-002	-6.09572E-003	0.00000E+000	-3.04711E-004	-5.93753E-002	4.23840E-002	3.59062E+001	11	...........	7.07285E-002	-5.28056E-003	6.06923E-001	5.41626E-001	-2.69303E-002	-3.80250E-002	7.06063E-001	-4.39644E-002	-4.31141E-004	3.21888E-005	-3.69964E-003	-3.30160E-003	1.64160E-004	2.31790E-004	-4.30397E-003	2.67995E-004
	239	239	4.99870E-002	-6.02637E-003	0.00000E+000	-3.01240E-004	-5.86837E-002	4.23747E-002	3.59183E+001	11	...........	7.07150E-002	-5.25208E-003	6.06924E-001	5.41593E-001	-2.69160E-002	-3.80224E-002	7.06093E-001	-4.38587E-002	-4.26154E-004	3.16510E-005	-3.65754E-003	-3.26384E-003	1.62205E-004	2.29137E-004	-4.25517E-003	2.64309E-004
	240	240	4.99876E-002	-5.96382E-003	0.00000E+000	-2.98117E-004	-5.80607E-002	4.24036E-002	3.59634E+001	11	...........	7.07479E-002	-5.23236E-003	6.06869E-001	5.41744E-001	-2.69364E-002	-3.80501E-002	7.06216E-001	-4.37618E-002	-4.21928E-004	3.12048E-005	-3.61926E-003	-3.23086E-003	1.60644E-004	2.26924E-004	-4.21174E-003	2.60987E-004
	241	241	4.99863E-002	-5.85670E-003	0.00000E+000	-2.92754E-004	-5.69953E-002	4.23431E-002	3.53979E+001	11	...........	7.06558E-002	-5.07069E-003	6.06835E-001	5.41826E-001	-2.69533E-002	-3.80306E-002	7.06110E-001	-4.36519E-002	-4.13810E-004	2.96975E-005	-3.55405E-003	-3.17331E-003	1.57857E-004	2.22733E-004	-4.13547E-003	2.55656E-004
	242	242	4.99886E-002	-5.83503E-003	0.00000E+000	-2.91685E-004	-5.67750E-002	4.24279E-002	3.56079E+001	11	...........	7.08021E-002	-5.01542E-003	6.06765E-001	5.41818E-001	-2.69847E-002	-3.80318E-002	7.06041E-001	-4.37712E-002	-4.13132E-004	2.92651E-005	-3.54049E-003	-3.16152E-003	1.57457E-004	2.21917E-004	-4.11977E-003	2.55407E-004
	243	243	4.99875E-002	-5.79636E-003	0.00000E+000	-2.89746E-004	-5.63913E-002	4.23847E-002	3.59576E+001	11	...........	7.07385E-002	-5.20083E-003	6.06823E-001	5.41729E-001	-2.69347E-002	-3.80076E-002	7.06308E-001	-4.37533E-002	-4.10026E-004	3.01459E-005	-3.51736E-003	-3.14006E-003	1.56123E-004	2.20306E-004	-4.09402E-003	2.53610E-004
	244	244	4.99875E-002	-5.75803E-003	0.00000E+000	-2.87829E-004	-5.60130E-002	4.23667E-002	3.59431E+001	11	...........	7.07035E-002	-5.21236E-003	6.06753E-001	5.41570E-001	-2.69165E-002	-3.79624E-002	7.06239E-001	-4.38283E-002	-4.07113E-004	3.00129E-005	-3.49370E-003	-3.11837E-003	1.54986E-004	2.18588E-004	-4.06655E-003	2.52365E-004
	245	245	4.99864E-002	-5.63905E-003	0.00000E+000	-2.81876E-004	-5.48210E-002	4.24341E-002	3.44095E+001	11	...........	7.08137E-002	-5.17792E-003	6.06751E-001	5.41536E-001	-2.68862E-002	-3.79506E-002	7.06180E-001	-4.37574E-002	-3.99322E-004	2.91985E-005	-3.42150E-003	-3.05375E-003	1.51613E-004	2.14005E-004	-3.98219E-003	2.46750E-004
	246	246	4.99882E-002	-5.51891E-003	0.00000E+000	-2.75880E-004	-5.36283E-002	4.22759E-002	3.52399E+001	11	...........	7.05387E-002	-5.13097E-003	6.06826E-001	5.41461E-001	-2.68840E-002	-3.79562E-002	7.06053E-001	-4.36781E-002	-3.89297E-004	2.83174E-005	-3.34902E-003	-2.98827E-003	1.48371E-004	2.09477E-004	-3.89664E-003	2.41055E-004
	247	247	4.99875E-002	-5.56335E-003	0.00000E+000	-2.78098E-004	-5.40707E-002	4.24166E-002	3.58733E+001	11	...........	7.07871E-002	-5.21375E-003	6.06901E-001	5.41506E-001	-2.68714E-002	-3.79421E-002	7.05995E-001	-4.37797E-002	-3.93813E-004	2.90059E-005	-3.37640E-003	-3.01259E-003	1.49495E-004	2.11085E-004	-3.92770E-003	2.43562E-004
	248	248	4.99876E-002	-5.51046E-003	0.00000E+000	-2.75455E-004	-5.35430E-002	4.23803E-002	3.59427E+001	11	...........	7.07101E-002	-5.18569E-003	6.06873E-001	5.41564E-001	-2.68696E-002	-3.79476E-002	7.05928E-001	-4.37749E-002	-3.89645E-004	2.85756E-005	-3.34415E-003	-2.98427E-003	1.48064E-004	2.09109E-004	-3.88999E-003	2.41220E-004
	249	249	4.99874E-002	-5.46322E-003	0.00000E+000	-2.73092E-004	-5.30747E-002	4.23958E-002	3.59604E+001	11	...........	7.07439E-002	-5.24958E-003	6.06926E-001	5.41494E-001	-2.68665E-002	-3.79529E-002	7.05899E-001	-4.37332E-002	-3.86490E-004	2.86796E-005	-3.31577E-003	-2.95831E-003	1.46778E-004	2.07345E-004	-3.85649E-003	2.38924E-004
	250	250	4.99876E-002	-5.41232E-003	0.00000E+000	-2.70549E-004	-5.25697E-002	4.23898E-002	3.55928E+001	11	...........	7.07429E-002	-5.29778E-003	6.06997E-001	5.41340E-001	-2.68967E-002	-3.79608E-002	7.05914E-001	-4.36814E-002	-3.82883E-004	2.86733E-005	-3.28526E-003	-2.92991E-003	1.45573E-004	2.05456E-004	-3.82063E-003	2.36418E-004
	251	251	4.99872E-002	-5.37308E-003	0.00000E+000	-2.68585E-004	-5.21783E-002	4.23920E-002	3.58470E+001	11	...........	7.07431E-002	-5.35764E-003	6.06817E-001	5.41201E-001	-2.68918E-002	-3.79499E-002	7.06009E-001	-4.36690E-002	-3.80108E-004	2.87870E-005	-3.26048E-003	-2.90791E-003	1.44492E-004	2.03908E-004	-3.79344E-003	2.34637E-004
	252	252	4.99875E-002	-5.30841E-003	0.00000E+000	-2.65354E-004	-5.15367E-002	4.23945E-002	3.58773E+001	11	...........	7.07492E-002	-5.26556E-003	6.06646E-001	5.41033E-001	-2.68850E-002	-3.79579E-002	7.06100E-001	-4.36160E-002	-3.75566E-004	2.79517E-005	-3.22032E-003	-2.87202E-003	1.42717E-004	2.01496E-004	-3.74827E-003	2.31531E-004
	253	253	4.99876E-002	-5.25787E-003	0.00000E+000	-2.62828E-004	-5.10490E-002	4.24319E-002	3.59201E+001	11	...........	7.08054E-002	-5.21694E-003	6.06520E-001	5.40921E-001	-2.69108E-002	-3.79344E-002	7.06080E-001	-4.37024E-002	-3.72286E-004	2.74300E-005	-3.18900E-003	-2.84409E-003	1.41494E-004	1.99454E-004	-3.71248E-003	2.29781E-004
	254	254	4.99874E-002	-5.21365E-003	0.00000E+000	-2.60617E-004	-5.06153E-002	4.24463E-002	3.59149E+001	11	...........	7.08349E-002	-5.27083E-003	6.06592E-001	5.40875E-001	-2.69360E-002	-3.79390E-002	7.05972E-001	-4.37979E-002	-3.69308E-004	2.74803E-005	-3.16256E-003	-2.81993E-003	1.40435E-004	1.97801E-004	-3.68069E-003	2.28347E-004
	255	255	4.99875E-002	-5.16382E-003	0.00000E+000	-2.58127E-004	-5.01167E-002	4.24125E-002	3.59339E+001	11	...........	7.07797E-002	-5.27403E-003	6.06620E-001	5.40856E-001	-2.69336E-002	-3.79261E-002	7.06027E-001	-4.36762E-002	-3.65494E-004	2.72341E-005	-3.13248E-003	-2.79289E-003	1.39080E-004	1.95844E-004	-3.64580E-003	2.25536E-004
	256	256	4.99870E-002	-5.08999E-003	0.00000E+000	-2.54433E-004	-4.93840E-002	4.24639E-002	3.46687E+001	11	...........	7.08690E-002	-5.27375E-003	6.06382E-001	5.40937E-001	-2.69689E-002	-3.79479E-002	7.05998E-001	-4.37351E-002	-3.60723E-004	2.68433E-005	-3.08648E-003	-2.75336E-003	1.37271E-004	1.93155E-004	-3.59352E-003	2.22612E-004
	257	256.07	4.99855E-002	-5.04129E-003	0.00000E+000	-2.51992E-004	-4.88952E-002	4.24762E-002	3.25421E+001	11	...........	7.08214E-002	-5.23016E-003	6.06325E-001	5.40907E-001	-2.67917E-002	-3.80198E-002	7.05996E-001	-4.37480E-002	-3.57032E-004	2.63668E-005	-3.05666E-003	-2.72687E-003	1.35065E-004	1.91669E-004	-3.55913E-003	2.20547E-004
STARTTIMEOFFSET	QUANT	628447.6	Start Time Offset (s)
