EXPLAIN
TAG	PWR800_DISCHARGE
TITLE	LABEL	PWR Discharge	Test Identifier
DATE	LABEL	10/11/2022	Date
TIME	LABEL	11:39:41	Time
NOTES	NOTES	1	Notes...
	
PSTAT	PSTAT	REF3000-21114	Potentiostat
CAPACITY	QUANT	5.30000E-002	Capacity (A-hr)
CELLTYPE	SELECTOR	1	Cell Type
WORKINGCONNECTION	SELECTOR	0	Working Connection
MAXDISCHARGETIME	VARIABLEANDUNITS	7.20000E+003	s	2.00000E+000	hour(s)	Max Discharge Time
DISCHARGEMODE	MULTIPARAM	0	1.00000E-001	Discharge Mode	Constant Current	Amp(s)
VOLTAGEFINISH	TWOPARAM	T	5.00000E-003	7.20000E+003	Voltage Finish	I (A) <	Max Time(s)
SAMPLETIME	QUANT	1.00000E+000	Sample Period (s)
DISCHARGESTOPAT1	MULTIPARAM	1	5.00000E-002	Stop At 1	|Voltage| < Limit	V
DISCHARGESTOPAT2	MULTIPARAM	0	0.00000E+000	Stop At 2	None	N/A
AESELECTOR	AESELECTOR	0x1	T	Set Limits	AE Channels
AESBHCSELECTOR	TOGGLE	F	Save Both Half Cells
IRCOMP	TOGGLE	F	IR Measure
EOC	QUANT	0.5856432	Open Circuit (V)
SEQUENCER	TOGGLE	TRUE	Run as Sequence
PSTATMODEL	IQUANT	5	Pstat Model
PSTATSECTION	LABEL	REF3000-21114	Pstat Section
PSTATSERIALNO	LABEL	21114	Pstat Serial Number
CTRLMODE	IQUANT	0	Control Mode
ELECTROMETER	IQUANT	0	RE=0 or CS=1
IESTAB	IQUANT	0	I/E Stability
CASPEED	IQUANT	4	Control Amp Speed
CONVENTION	IQUANT	1	Current Convention
ICHRANGE	IQUANT	2	Ich Range
ICHRANGEMODE	TOGGLE	T	Ich Auto Range
ICHOFFSETENABLE	TOGGLE	F	Ich Offset Enable
ICHOFFSET	QUANT	0	Ich Offset (V)
ICHFILTER	IQUANT	1	Ich Filter
VCHRANGE	IQUANT	3	Vch Range
VCHRANGEMODE	TOGGLE	T	Vch Auto Range
VCHOFFSETENABLE	TOGGLE	F	Vch Offset Enable
VCHOFFSET	QUANT	0	Vch Offset (V)
VCHFILTER	IQUANT	1	Vch Filter
ACHRANGE	IQUANT	2	Ach Range
ACHOFFSETENABLE	TOGGLE	F	Ach Offset Enable
ACHOFFSET	QUANT	0	Ach Offset (V)
ACHFILTER	IQUANT	1	Ach Filter
IERANGELOWERLIMIT	IQUANT	9	I/E Range Lower Limit
IERANGEMODE	TOGGLE	F	I/E AutoRange
IERANGE	IQUANT	9	I/E Range
POSFEEDENABLE	TOGGLE	F	Positive Feedback IR Comp
POSFEEDRESISTANCE	QUANT	0	Positive Feedback Resistance (ohm)
ACHSELECT	IQUANT	1	Ach Select
SENSECABLEID	IQUANT	13	Sense Cable ID
PWRCABLEID	IQUANT	13	Power Cable ID
DCCALDATE	LABEL		DC Calibration Date
ACCALDATE	LABEL		AC Calibration Date
THERMOSELECT	IQUANT	1	Thermo Select
FRAMEWORKVERSION	LABEL	7.8.6	Framework Version
INSTRUMENTVERSION	LABEL	4.50	Instrument Version
COMPLIANCEVOLTAGE	IQUANT	0	Compliance Voltage
CURVE	TABLE	260
	Pt	T	Vf	Im	Vu	Pwr	Sig	Ach	Temp	IERange	Over	Vf1	Vf2	Vf3	Vf4	Vf5	Vf6	Vf7	Vf8	Pwr1	Pwr2	Pwr3	Pwr4	Pwr5	Pwr6	Pwr7	Pwr8
	#	s	V	A	V	W	V	V	deg C	#	bits	V	V	V	V	V	V	V	V	W	W	W	W	W	W	W	W
	0	1	3.72545E-001	-1.00076E-001	0.00000E+000	-3.72830E-002	-9.94000E-001	3.17001E-002	2.81071E+001	11	...........	5.26499E-002	-3.37625E-003	5.57185E-001	6.98881E-001	-3.11931E-002	-3.96706E-002	6.43301E-001	-4.25181E-002	-5.26901E-003	3.37883E-004	-5.57611E-002	-6.99415E-002	3.12169E-003	3.97009E-003	-6.43793E-002	4.25506E-003
	1	2	2.82629E-001	-1.00076E-001	0.00000E+000	-2.82844E-002	-9.94000E-001	3.17277E-002	2.72675E+001	11	...........	5.27010E-002	-3.63806E-003	5.57022E-001	6.98845E-001	-3.11821E-002	-3.96594E-002	6.43253E-001	-4.25850E-002	-5.27410E-003	3.64082E-004	-5.57446E-002	-6.99377E-002	3.12058E-003	3.96896E-003	-6.43742E-002	4.26174E-003
	2	3	2.17691E-001	-1.00078E-001	0.00000E+000	-2.17860E-002	-9.94000E-001	3.17558E-002	2.69242E+001	11	...........	5.27604E-002	-3.66681E-003	5.57216E-001	6.98857E-001	-3.11631E-002	-3.96731E-002	6.43296E-001	-4.27103E-002	-5.28014E-003	3.66965E-004	-5.57649E-002	-6.99400E-002	3.11873E-003	3.97039E-003	-6.43796E-002	4.27435E-003
	3	4	1.65785E-001	-1.00078E-001	0.00000E+000	-1.65913E-002	-9.94000E-001	3.17039E-002	2.67364E+001	11	...........	5.26629E-002	-3.63556E-003	5.57126E-001	6.98833E-001	-3.11507E-002	-3.96625E-002	6.43208E-001	-4.27967E-002	-5.27038E-003	3.63838E-004	-5.57558E-002	-6.99375E-002	3.11749E-003	3.96933E-003	-6.43707E-002	4.28299E-003
	4	5	1.24966E-001	-1.00077E-001	0.00000E+000	-1.25063E-002	-9.94000E-001	3.17347E-002	2.62756E+001	11	...........	5.27210E-002	-3.65444E-003	5.57048E-001	6.98854E-001	-3.11161E-002	-3.96592E-002	6.43272E-001	-4.27125E-002	-5.27618E-003	3.65727E-004	-5.57479E-002	-6.99395E-002	3.11402E-003	3.96898E-003	-6.43769E-002	4.27455E-003
	5	6	9.29787E-002	-1.00077E-001	0.00000E+000	-9.30506E-003	-9.94000E-001	3.17777E-002	2.57967E+001	11	...........	5.27862E-002	-3.67069E-003	5.57029E-001	6.98868E-001	-3.11437E-002	-3.96253E-002	6.43286E-001	-4.27300E-002	-5.28271E-003	3.67353E-004	-5.57460E-002	-6.99408E-002	3.11678E-003	3.96559E-003	-6.43784E-002	4.27631E-003
	6	7	6.76626E-002	-1.00078E-001	0.00000E+000	-6.77155E-003	-9.94000E-001	3.17557E-002	2.57658E+001	11	...........	5.27721E-002	-3.68806E-003	5.57069E-001	6.99009E-001	-3.11414E-002	-3.96431E-002	6.43233E-001	-4.26814E-002	-5.28133E-003	3.69093E-004	-5.57504E-002	-6.99555E-002	3.11657E-003	3.96740E-003	-6.43735E-002	4.27147E-003
	7	7.34667	5.25832E-002	-1.00077E-001	0.00000E+000	-5.26239E-003	-9.94000E-001	3.17437E-002	2.57580E+001	11	...........	5.27536E-002	-3.69832E-003	5.57154E-001	6.99210E-001	-3.10921E-002	-3.96699E-002	6.43191E-001	-4.27584E-002	-5.27944E-003	3.70118E-004	-5.57586E-002	-6.99752E-002	3.11162E-003	3.97006E-003	-6.43689E-002	4.27915E-003
	8	8	4.98120E-002	-9.56692E-002	0.00000E+000	-4.76547E-003	-9.50148E-001	3.20968E-002	2.56936E+001	11	...........	5.33025E-002	-3.78423E-003	5.57093E-001	6.99182E-001	-3.11624E-002	-3.96507E-002	6.43123E-001	-4.26110E-002	-5.09941E-003	3.62034E-004	-5.32966E-002	-6.68902E-002	2.98128E-003	3.79335E-003	-6.15271E-002	4.07656E-003
	9	9	4.99095E-002	-8.83156E-002	0.00000E+000	-4.40779E-003	-8.77026E-001	3.20143E-002	2.61695E+001	11	...........	5.31554E-002	-3.77194E-003	5.57067E-001	6.99170E-001	-3.11135E-002	-3.96715E-002	6.43215E-001	-4.26362E-002	-4.69445E-003	3.33122E-004	-4.91977E-002	-6.17476E-002	2.74781E-003	3.50362E-003	-5.68059E-002	3.76545E-003
	10	10	4.99056E-002	-8.25390E-002	0.00000E+000	-4.11916E-003	-8.19603E-001	3.21088E-002	2.62283E+001	11	...........	5.33278E-002	-3.78403E-003	5.57025E-001	6.99130E-001	-3.10885E-002	-3.96724E-002	6.43193E-001	-4.26111E-002	-4.40162E-003	3.12330E-004	-4.59762E-002	-5.77055E-002	2.56601E-003	3.27452E-003	-5.30885E-002	3.51708E-003
	11	11	4.99551E-002	-7.94328E-002	0.00000E+000	-3.96807E-003	-7.88719E-001	3.21819E-002	2.64817E+001	11	...........	5.34376E-002	-3.72181E-003	5.57132E-001	6.99106E-001	-3.10707E-002	-3.96621E-002	6.43144E-001	-4.27665E-002	-4.24470E-003	2.95634E-004	-4.42546E-002	-5.55320E-002	2.46803E-003	3.15047E-003	-5.10867E-002	3.39707E-003
	12	12	4.99286E-002	-7.66071E-002	0.00000E+000	-3.82489E-003	-7.60608E-001	3.23438E-002	2.64743E+001	11	...........	5.37271E-002	-3.70194E-003	5.57120E-001	6.98972E-001	-3.11033E-002	-3.96299E-002	6.43033E-001	-4.26419E-002	-4.11588E-003	2.83595E-004	-4.26794E-002	-5.35462E-002	2.38274E-003	3.03593E-003	-4.92609E-002	3.26668E-003
	13	13	4.99559E-002	-7.43590E-002	0.00000E+000	-3.71467E-003	-7.38247E-001	3.22659E-002	2.66502E+001	11	...........	5.35853E-002	-3.77722E-003	5.57045E-001	6.99023E-001	-3.10856E-002	-3.96106E-002	6.43034E-001	-4.25615E-002	-3.98455E-003	2.80870E-004	-4.14213E-002	-5.19786E-002	2.31149E-003	2.94540E-003	-4.78153E-002	3.16483E-003
	14	14	4.99708E-002	-7.37792E-002	0.00000E+000	-3.68680E-003	-7.32495E-001	3.24418E-002	2.69070E+001	11	...........	5.38567E-002	-3.78792E-003	5.57086E-001	6.99088E-001	-3.10956E-002	-3.95925E-002	6.43150E-001	-4.26183E-002	-3.97350E-003	2.79469E-004	-4.11014E-002	-5.15781E-002	2.29421E-003	2.92110E-003	-4.74511E-002	3.14435E-003
	15	15	4.99388E-002	-7.20462E-002	0.00000E+000	-3.59790E-003	-7.15280E-001	3.23917E-002	2.65994E+001	11	...........	5.38185E-002	-3.78278E-003	5.57206E-001	6.99084E-001	-3.11056E-002	-3.95847E-002	6.43134E-001	-4.25778E-002	-3.87741E-003	2.72535E-004	-4.01446E-002	-5.03663E-002	2.24104E-003	2.85193E-003	-4.63354E-002	3.06757E-003
	16	16	4.99995E-002	-7.14071E-002	0.00000E+000	-3.57032E-003	-7.08926E-001	3.24955E-002	2.68524E+001	11	...........	5.39585E-002	-3.70931E-003	5.57186E-001	6.99003E-001	-3.11103E-002	-3.95832E-002	6.43024E-001	-4.26724E-002	-3.85302E-003	2.64871E-004	-3.97871E-002	-4.99138E-002	2.22149E-003	2.82652E-003	-4.59165E-002	3.04711E-003
	17	17	4.99176E-002	-6.96299E-002	0.00000E+000	-3.47576E-003	-6.91250E-001	3.24469E-002	2.70030E+001	11	...........	5.38957E-002	-3.71083E-003	5.57250E-001	6.99020E-001	-3.11339E-002	-3.95864E-002	6.43129E-001	-4.26187E-002	-3.75275E-003	2.58385E-004	-3.88012E-002	-4.86727E-002	2.16785E-003	2.75640E-003	-4.47810E-002	2.96754E-003
	18	18	4.99938E-002	-6.87919E-002	0.00000E+000	-3.43917E-003	-6.82924E-001	3.26829E-002	2.71485E+001	11	...........	5.42954E-002	-3.72403E-003	5.57484E-001	6.98955E-001	-3.11596E-002	-3.95756E-002	6.43148E-001	-4.26885E-002	-3.73509E-003	2.56183E-004	-3.83504E-002	-4.80825E-002	2.14353E-003	2.72248E-003	-4.42434E-002	2.93662E-003
	19	19	4.99840E-002	-6.89955E-002	0.00000E+000	-3.44867E-003	-6.84959E-001	3.26747E-002	2.69765E+001	11	...........	5.42919E-002	-3.71389E-003	5.57630E-001	6.99167E-001	-3.11612E-002	-3.95633E-002	6.43125E-001	-4.25592E-002	-3.74590E-003	2.56241E-004	-3.84740E-002	-4.82394E-002	2.14998E-003	2.72969E-003	-4.43727E-002	2.93639E-003
	20	20	4.99365E-002	-6.72177E-002	0.00000E+000	-3.35662E-003	-6.67265E-001	3.25358E-002	2.71209E+001	11	...........	5.42021E-002	-3.71625E-003	5.57797E-001	6.99207E-001	-3.11953E-002	-3.95778E-002	6.43194E-001	-4.25744E-002	-3.64334E-003	2.49798E-004	-3.74938E-002	-4.69991E-002	2.09687E-003	2.66033E-003	-4.32340E-002	2.86176E-003
	21	21	4.99816E-002	-6.64251E-002	0.00000E+000	-3.32003E-003	-6.59387E-001	3.25664E-002	2.68216E+001	11	...........	5.43357E-002	-3.74361E-003	5.57816E-001	6.99253E-001	-3.11929E-002	-3.95661E-002	6.43048E-001	-4.25668E-002	-3.60925E-003	2.48670E-004	-3.70530E-002	-4.64480E-002	2.07199E-003	2.62818E-003	-4.27145E-002	2.82750E-003
	22	22	4.99554E-002	-6.64369E-002	0.00000E+000	-3.31888E-003	-6.59496E-001	3.26361E-002	2.73006E+001	11	...........	5.44217E-002	-3.66014E-003	5.57920E-001	6.98942E-001	-3.12414E-002	-3.95296E-002	6.43103E-001	-4.25351E-002	-3.61561E-003	2.43168E-004	-3.70665E-002	-4.64355E-002	2.07558E-003	2.62622E-003	-4.27258E-002	2.82590E-003
	23	23	4.99740E-002	-6.50510E-002	0.00000E+000	-3.25086E-003	-6.45713E-001	3.26853E-002	2.71208E+001	11	...........	5.45224E-002	-3.66667E-003	5.57978E-001	6.98705E-001	-3.12385E-002	-3.95103E-002	6.43158E-001	-4.25235E-002	-3.54674E-003	2.38520E-004	-3.62970E-002	-4.54515E-002	2.03209E-003	2.57018E-003	-4.18381E-002	2.76620E-003
	24	24	4.99622E-002	-6.43370E-002	0.00000E+000	-3.21442E-003	-6.38619E-001	3.26447E-002	2.69922E+001	11	...........	5.44808E-002	-3.71806E-003	5.57955E-001	6.98771E-001	-3.12296E-002	-3.94917E-002	6.43203E-001	-4.25717E-002	-3.50513E-003	2.39208E-004	-3.58972E-002	-4.49568E-002	2.00922E-003	2.54077E-003	-4.13817E-002	2.73893E-003
	25	25	4.99790E-002	-6.39483E-002	0.00000E+000	-3.19607E-003	-6.34757E-001	3.27027E-002	2.73307E+001	11	...........	5.45457E-002	-3.45264E-003	5.57990E-001	6.98876E-001	-3.12476E-002	-3.94812E-002	6.43203E-001	-4.26586E-002	-3.48811E-003	2.20790E-004	-3.56826E-002	-4.46919E-002	1.99823E-003	2.52476E-003	-4.11317E-002	2.72795E-003
	26	26	4.99669E-002	-6.35717E-002	0.00000E+000	-3.17648E-003	-6.31019E-001	3.28226E-002	2.75414E+001	11	...........	5.47839E-002	-3.55819E-003	5.58080E-001	6.98956E-001	-3.12556E-002	-3.94825E-002	6.43148E-001	-4.25943E-002	-3.48271E-003	2.26201E-004	-3.54781E-002	-4.44339E-002	1.98697E-003	2.50997E-003	-4.08860E-002	2.70779E-003
	27	27	4.99650E-002	-6.24458E-002	0.00000E+000	-3.12011E-003	-6.19820E-001	3.28228E-002	2.73272E+001	11	...........	5.47714E-002	-3.53903E-003	5.58177E-001	6.98972E-001	-3.12600E-002	-3.94747E-002	6.43142E-001	-4.26393E-002	-3.42024E-003	2.20998E-004	-3.48558E-002	-4.36479E-002	1.95206E-003	2.46503E-003	-4.01615E-002	2.66265E-003
	28	28	4.99518E-002	-6.10868E-002	0.00000E+000	-3.05140E-003	-6.06311E-001	3.27743E-002	2.74227E+001	11	...........	5.46756E-002	-3.53778E-003	5.58227E-001	6.98879E-001	-3.12518E-002	-3.94689E-002	6.43021E-001	-4.26740E-002	-3.33996E-003	2.16112E-004	-3.41003E-002	-4.26923E-002	1.90907E-003	2.41103E-003	-3.92801E-002	2.60682E-003
	29	29	4.99745E-002	-6.11125E-002	0.00000E+000	-3.05407E-003	-6.06563E-001	3.29123E-002	2.77219E+001	11	...........	5.49046E-002	-3.71708E-003	5.58406E-001	6.98868E-001	-3.12519E-002	-3.94837E-002	6.43034E-001	-4.26712E-002	-3.35535E-003	2.27160E-004	-3.41256E-002	-4.27095E-002	1.90988E-003	2.41295E-003	-3.92974E-002	2.60775E-003
	30	30	4.99628E-002	-5.91706E-002	0.00000E+000	-2.95633E-003	-5.87263E-001	3.28471E-002	2.72715E+001	11	...........	5.47874E-002	-3.73681E-003	5.58475E-001	6.98862E-001	-3.12235E-002	-3.94936E-002	6.43054E-001	-4.27079E-002	-3.24180E-003	2.21109E-004	-3.30453E-002	-4.13521E-002	1.84751E-003	2.33686E-003	-3.80499E-002	2.52705E-003
	31	31	4.99669E-002	-5.86245E-002	0.00000E+000	-2.92928E-003	-5.81832E-001	3.28100E-002	2.75913E+001	11	...........	5.47225E-002	-3.60764E-003	5.58546E-001	6.98795E-001	-3.12187E-002	-3.95032E-002	6.43058E-001	-4.27008E-002	-3.20808E-003	2.11496E-004	-3.27445E-002	-4.09665E-002	1.83018E-003	2.31585E-003	-3.76989E-002	2.50331E-003
	32	32	4.99547E-002	-5.98057E-002	0.00000E+000	-2.98757E-003	-5.93567E-001	3.31677E-002	2.79038E+001	11	...........	5.53446E-002	-3.62028E-003	5.58698E-001	6.98746E-001	-3.12424E-002	-3.94944E-002	6.43055E-001	-4.26174E-002	-3.30992E-003	2.16513E-004	-3.34133E-002	-4.17890E-002	1.86847E-003	2.36199E-003	-3.84584E-002	2.54876E-003
	33	33	4.99647E-002	-5.76900E-002	0.00000E+000	-2.88246E-003	-5.72529E-001	3.28747E-002	2.73258E+001	11	...........	5.48593E-002	-3.64222E-003	5.58622E-001	6.98568E-001	-3.12537E-002	-3.94926E-002	6.43071E-001	-4.26646E-002	-3.16483E-003	2.10120E-004	-3.22269E-002	-4.03004E-002	1.80303E-003	2.27833E-003	-3.70988E-002	2.46132E-003
	34	34	4.99939E-002	-5.78297E-002	0.00000E+000	-2.89113E-003	-5.73921E-001	3.30701E-002	2.75553E+001	11	...........	5.51803E-002	-3.70833E-003	5.58638E-001	6.98592E-001	-3.12371E-002	-3.95007E-002	6.42995E-001	-4.27735E-002	-3.19106E-003	2.14452E-004	-3.23059E-002	-4.03993E-002	1.80643E-003	2.28431E-003	-3.71842E-002	2.47358E-003
	35	35	4.99416E-002	-5.64151E-002	0.00000E+000	-2.81746E-003	-5.59841E-001	3.30848E-002	2.75360E+001	11	...........	5.52111E-002	-3.70042E-003	5.58720E-001	6.98567E-001	-3.12662E-002	-3.95028E-002	6.42954E-001	-4.30043E-002	-3.11474E-003	2.08759E-004	-3.15202E-002	-3.94097E-002	1.76389E-003	2.22855E-003	-3.62723E-002	2.42609E-003
	36	36	4.99838E-002	-5.60045E-002	0.00000E+000	-2.79932E-003	-5.55761E-001	3.29318E-002	2.75855E+001	11	...........	5.49515E-002	-3.67333E-003	5.58780E-001	6.98484E-001	-3.12894E-002	-3.95249E-002	6.42922E-001	-4.30004E-002	-3.07753E-003	2.05723E-004	-3.12942E-002	-3.91182E-002	1.75235E-003	2.21357E-003	-3.60065E-002	2.40822E-003
	37	37	4.99776E-002	-5.61936E-002	0.00000E+000	-2.80842E-003	-5.57643E-001	3.31968E-002	2.75958E+001	11	...........	5.53862E-002	-3.60306E-003	5.58909E-001	6.98420E-001	-3.12667E-002	-3.95174E-002	6.43070E-001	-4.29350E-002	-3.11235E-003	2.02469E-004	-3.14071E-002	-3.92467E-002	1.75699E-003	2.22062E-003	-3.61364E-002	2.41267E-003
	38	38	4.99662E-002	-5.44815E-002	0.00000E+000	-2.72223E-003	-5.40623E-001	3.29772E-002	2.77076E+001	11	...........	5.50008E-002	-3.57583E-003	5.58864E-001	6.98353E-001	-3.12521E-002	-3.95083E-002	6.43148E-001	-4.28321E-002	-2.99653E-003	1.94817E-004	-3.04477E-002	-3.80473E-002	1.70266E-003	2.15247E-003	-3.50396E-002	2.33356E-003
	39	39	4.99700E-002	-5.49426E-002	0.00000E+000	-2.74548E-003	-5.45204E-001	3.32971E-002	2.79466E+001	11	...........	5.55403E-002	-3.69181E-003	5.58873E-001	6.98323E-001	-3.12421E-002	-3.95135E-002	6.43220E-001	-4.28494E-002	-3.05153E-003	2.02837E-004	-3.07059E-002	-3.83677E-002	1.71652E-003	2.17097E-003	-3.53402E-002	2.35426E-003
	40	40	4.99665E-002	-5.43779E-002	0.00000E+000	-2.71707E-003	-5.39589E-001	3.31689E-002	2.78283E+001	11	...........	5.53515E-002	-3.76417E-003	5.58996E-001	6.98478E-001	-3.12479E-002	-3.95279E-002	6.43035E-001	-4.27199E-002	-3.00990E-003	2.04688E-004	-3.03970E-002	-3.79818E-002	1.69920E-003	2.14945E-003	-3.49669E-002	2.32302E-003
	41	41	4.99842E-002	-5.30843E-002	0.00000E+000	-2.65338E-003	-5.26733E-001	3.31044E-002	2.75747E+001	11	...........	5.52217E-002	-3.74181E-003	5.59096E-001	6.98449E-001	-3.12442E-002	-3.94897E-002	6.43121E-001	-4.25946E-002	-2.93140E-003	1.98631E-004	-2.96792E-002	-3.70767E-002	1.65857E-003	2.09628E-003	-3.41396E-002	2.26110E-003
	42	42	4.99734E-002	-5.33426E-002	0.00000E+000	-2.66571E-003	-5.29301E-001	3.32726E-002	2.80113E+001	11	...........	5.55158E-002	-3.66750E-003	5.59136E-001	6.98443E-001	-3.12397E-002	-3.95012E-002	6.43117E-001	-4.27836E-002	-2.96136E-003	1.95634E-004	-2.98258E-002	-3.72568E-002	1.66641E-003	2.10710E-003	-3.43056E-002	2.28219E-003
	43	43	4.99552E-002	-5.35414E-002	0.00000E+000	-2.67467E-003	-5.31273E-001	3.32627E-002	2.80848E+001	11	...........	5.54962E-002	-3.78708E-003	5.59160E-001	6.98524E-001	-3.12487E-002	-3.95186E-002	6.43161E-001	-4.27768E-002	-2.97134E-003	2.02766E-004	-2.99382E-002	-3.73999E-002	1.67310E-003	2.11588E-003	-3.44357E-002	2.29033E-003
	44	44	4.99509E-002	-5.11850E-002	0.00000E+000	-2.55674E-003	-5.07866E-001	3.33233E-002	2.74765E+001	11	...........	5.56068E-002	-3.79389E-003	5.59062E-001	6.98721E-001	-3.12243E-002	-3.95149E-002	6.43093E-001	-4.27864E-002	-2.84623E-003	1.94190E-004	-2.86156E-002	-3.57640E-002	1.59822E-003	2.02257E-003	-3.29167E-002	2.19002E-003
	45	45	4.99946E-002	-5.06473E-002	0.00000E+000	-2.53209E-003	-5.02509E-001	3.31695E-002	2.82375E+001	11	...........	5.53454E-002	-3.73708E-003	5.59116E-001	6.98727E-001	-3.12100E-002	-3.95290E-002	6.43059E-001	-4.27996E-002	-2.80310E-003	1.89273E-004	-2.83177E-002	-3.53887E-002	1.58070E-003	2.00204E-003	-3.25692E-002	2.16768E-003
	46	46	4.99538E-002	-5.17387E-002	0.00000E+000	-2.58454E-003	-5.13346E-001	3.34493E-002	2.82099E+001	11	...........	5.58372E-002	-3.85014E-003	5.59102E-001	6.98645E-001	-3.11974E-002	-3.95294E-002	6.43257E-001	-4.28462E-002	-2.88895E-003	1.99201E-004	-2.89272E-002	-3.61470E-002	1.61411E-003	2.04520E-003	-3.32813E-002	2.21681E-003
	47	47	4.99535E-002	-4.94563E-002	0.00000E+000	-2.47052E-003	-4.90677E-001	3.31837E-002	2.78109E+001	11	...........	5.53710E-002	-3.77361E-003	5.59153E-001	6.98448E-001	-3.12106E-002	-3.95232E-002	6.43194E-001	-4.27564E-002	-2.73844E-003	1.86629E-004	-2.76536E-002	-3.45426E-002	1.54356E-003	1.95467E-003	-3.18100E-002	2.11457E-003
	48	48	4.99841E-002	-4.89608E-002	0.00000E+000	-2.44726E-003	-4.85749E-001	3.34567E-002	2.79562E+001	11	...........	5.58144E-002	-3.77319E-003	5.59186E-001	6.98552E-001	-3.12125E-002	-3.95097E-002	6.43264E-001	-4.26982E-002	-2.73272E-003	1.84739E-004	-2.73782E-002	-3.42017E-002	1.52819E-003	1.93443E-003	-3.14947E-002	2.09054E-003
	49	49	4.99697E-002	-4.93439E-002	0.00000E+000	-2.46570E-003	-4.89559E-001	3.35085E-002	2.82734E+001	11	...........	5.59300E-002	-3.76250E-003	5.59242E-001	6.98617E-001	-3.12254E-002	-3.95467E-002	6.43196E-001	-4.25657E-002	-2.75980E-003	1.85656E-004	-2.75952E-002	-3.44725E-002	1.54078E-003	1.95139E-003	-3.17378E-002	2.10036E-003
	50	50	4.99610E-002	-4.80963E-002	0.00000E+000	-2.40294E-003	-4.77152E-001	3.32989E-002	2.79574E+001	11	...........	5.55628E-002	-3.77917E-003	5.59272E-001	6.98427E-001	-3.12315E-002	-3.95224E-002	6.43187E-001	-4.27422E-002	-2.67236E-003	1.81764E-004	-2.68989E-002	-3.35917E-002	1.50212E-003	1.90088E-003	-3.09349E-002	2.05574E-003
	51	51	4.99881E-002	-4.79663E-002	0.00000E+000	-2.39775E-003	-4.75858E-001	3.36205E-002	2.83099E+001	11	...........	5.60912E-002	-3.66139E-003	5.59217E-001	6.98314E-001	-3.12268E-002	-3.94974E-002	6.43162E-001	-4.27574E-002	-2.69049E-003	1.75623E-004	-2.68236E-002	-3.34955E-002	1.49783E-003	1.89454E-003	-3.08501E-002	2.05091E-003
	52	52	4.99620E-002	-4.73512E-002	0.00000E+000	-2.36576E-003	-4.69739E-001	3.32691E-002	2.80088E+001	11	...........	5.54961E-002	-3.57681E-003	5.59103E-001	6.98308E-001	-3.12319E-002	-3.95308E-002	6.43065E-001	-4.25719E-002	-2.62781E-003	1.69366E-004	-2.64742E-002	-3.30657E-002	1.47887E-003	1.87183E-003	-3.04499E-002	2.01583E-003
	53	53	4.99748E-002	-4.71789E-002	0.00000E+000	-2.35776E-003	-4.68015E-001	3.36557E-002	2.84674E+001	11	...........	5.61562E-002	-3.65597E-003	5.59027E-001	6.98468E-001	-3.12094E-002	-3.95765E-002	6.42970E-001	-4.26022E-002	-2.64939E-003	1.72485E-004	-2.63743E-002	-3.29529E-002	1.47243E-003	1.86718E-003	-3.03346E-002	2.00993E-003
	54	54	4.99628E-002	-4.68079E-002	0.00000E+000	-2.33865E-003	-4.64335E-001	3.36225E-002	2.83068E+001	11	...........	5.60918E-002	-3.65458E-003	5.59032E-001	6.98588E-001	-3.12306E-002	-3.95972E-002	6.43046E-001	-4.26947E-002	-2.62554E-003	1.71063E-004	-2.61671E-002	-3.26994E-002	1.46184E-003	1.85346E-003	-3.00996E-002	1.99845E-003
	55	55	4.99712E-002	-4.56818E-002	0.00000E+000	-2.28278E-003	-4.53149E-001	3.34921E-002	2.83706E+001	11	...........	5.58685E-002	-3.42569E-003	5.59087E-001	6.98481E-001	-3.12260E-002	-3.96324E-002	6.43127E-001	-4.27668E-002	-2.55217E-003	1.56492E-004	-2.55401E-002	-3.19079E-002	1.42646E-003	1.81048E-003	-2.93792E-002	1.95367E-003
	56	56	4.99673E-002	-4.43978E-002	0.00000E+000	-2.21844E-003	-4.40365E-001	3.34288E-002	2.82130E+001	11	...........	5.57754E-002	-3.41056E-003	5.58995E-001	6.98460E-001	-3.12386E-002	-3.96182E-002	6.43011E-001	-4.26410E-002	-2.47631E-003	1.51421E-004	-2.48182E-002	-3.10101E-002	1.38693E-003	1.75896E-003	-2.85483E-002	1.89316E-003
	57	57	4.99793E-002	-4.48137E-002	0.00000E+000	-2.23976E-003	-4.44499E-001	3.36783E-002	2.85278E+001	11	...........	5.61782E-002	-3.33847E-003	5.59064E-001	6.98355E-001	-3.12590E-002	-3.95960E-002	6.42969E-001	-4.27621E-002	-2.51755E-003	1.49609E-004	-2.50537E-002	-3.12959E-002	1.40083E-003	1.77444E-003	-2.88138E-002	1.91633E-003
	58	58	4.99575E-002	-4.45116E-002	0.00000E+000	-2.22369E-003	-4.41501E-001	3.36092E-002	2.87759E+001	11	...........	5.60676E-002	-3.37194E-003	5.59056E-001	6.98394E-001	-3.12446E-002	-3.96321E-002	6.43022E-001	-4.27876E-002	-2.49566E-003	1.50091E-004	-2.48845E-002	-3.10866E-002	1.39075E-003	1.76409E-003	-2.86219E-002	1.90455E-003
	59	59	4.99711E-002	-4.40585E-002	0.00000E+000	-2.20166E-003	-4.37002E-001	3.37663E-002	2.85651E+001	11	...........	5.63454E-002	-3.48611E-003	5.59132E-001	6.98346E-001	-3.12467E-002	-3.96772E-002	6.43029E-001	-4.29537E-002	-2.48250E-003	1.53593E-004	-2.46346E-002	-3.07681E-002	1.37668E-003	1.74812E-003	-2.83309E-002	1.89248E-003
	60	60	4.99663E-002	-4.32623E-002	0.00000E+000	-2.16166E-003	-4.29084E-001	3.35856E-002	2.82988E+001	11	...........	5.60414E-002	-3.56222E-003	5.59028E-001	6.98463E-001	-3.12718E-002	-3.96637E-002	6.43190E-001	-4.28664E-002	-2.42448E-003	1.54110E-004	-2.41848E-002	-3.02171E-002	1.35289E-003	1.71594E-003	-2.78259E-002	1.85450E-003
	61	61	4.99835E-002	-4.26464E-002	0.00000E+000	-2.13162E-003	-4.22957E-001	3.36807E-002	2.85374E+001	11	...........	5.62087E-002	-3.63653E-003	5.59158E-001	6.98282E-001	-3.12685E-002	-3.96371E-002	6.43396E-001	-4.27482E-002	-2.39710E-003	1.55085E-004	-2.38461E-002	-2.97793E-002	1.33349E-003	1.69038E-003	-2.74385E-002	1.82306E-003
	62	62	4.99664E-002	-4.22408E-002	0.00000E+000	-2.11062E-003	-4.18919E-001	3.37492E-002	2.83718E+001	11	...........	5.63069E-002	-3.73528E-003	5.59152E-001	6.98248E-001	-3.12631E-002	-3.96308E-002	6.43290E-001	-4.25912E-002	-2.37845E-003	1.57781E-004	-2.36190E-002	-2.94945E-002	1.32058E-003	1.67404E-003	-2.71731E-002	1.79909E-003
	63	63	4.99731E-002	-4.16051E-002	0.00000E+000	-2.07914E-003	-4.12607E-001	3.37031E-002	2.87241E+001	11	...........	5.62565E-002	-3.75597E-003	5.59061E-001	6.98353E-001	-3.12790E-002	-3.96603E-002	6.43154E-001	-4.25294E-002	-2.34056E-003	1.56268E-004	-2.32598E-002	-2.90551E-002	1.30137E-003	1.65007E-003	-2.67585E-002	1.76944E-003
	64	64	4.99601E-002	-4.10229E-002	0.00000E+000	-2.04951E-003	-4.06815E-001	3.38056E-002	2.84934E+001	11	...........	5.63901E-002	-3.69792E-003	5.58923E-001	6.98420E-001	-3.12486E-002	-3.96685E-002	6.42971E-001	-4.25700E-002	-2.31329E-003	1.51699E-004	-2.29286E-002	-2.86512E-002	1.28191E-003	1.62731E-003	-2.63765E-002	1.74634E-003
	65	65	4.99665E-002	-4.04538E-002	0.00000E+000	-2.02133E-003	-4.01169E-001	3.37423E-002	2.87678E+001	11	...........	5.63004E-002	-3.70153E-003	5.58928E-001	6.98453E-001	-3.12212E-002	-3.96665E-002	6.42919E-001	-4.26153E-002	-2.27756E-003	1.49741E-004	-2.26107E-002	-2.82550E-002	1.26302E-003	1.60466E-003	-2.60085E-002	1.72395E-003
	66	66	4.99753E-002	-4.04014E-002	0.00000E+000	-2.01907E-003	-4.00659E-001	3.38494E-002	2.86153E+001	11	...........	5.64664E-002	-3.67306E-003	5.59007E-001	6.98613E-001	-3.12340E-002	-3.96312E-002	6.42946E-001	-4.26071E-002	-2.28132E-003	1.48397E-004	-2.25847E-002	-2.82250E-002	1.26190E-003	1.60116E-003	-2.59760E-002	1.72139E-003
	67	67	4.99878E-002	-3.92870E-002	0.00000E+000	-1.96387E-003	-3.89576E-001	3.38170E-002	2.84089E+001	11	...........	5.64453E-002	-3.68639E-003	5.59036E-001	6.98451E-001	-3.12235E-002	-3.96068E-002	6.43137E-001	-4.27797E-002	-2.21757E-003	1.44827E-004	-2.19629E-002	-2.74401E-002	1.22668E-003	1.55603E-003	-2.52669E-002	1.68069E-003
	68	68	4.99685E-002	-3.89466E-002	0.00000E+000	-1.94610E-003	-3.86192E-001	3.38135E-002	2.87764E+001	11	...........	5.64254E-002	-3.56319E-003	5.58728E-001	6.98391E-001	-3.12436E-002	-3.96001E-002	6.42985E-001	-4.28668E-002	-2.19758E-003	1.38774E-004	-2.17605E-002	-2.72000E-002	1.21683E-003	1.54229E-003	-2.50421E-002	1.66952E-003
	69	69	4.99541E-002	-3.89797E-002	0.00000E+000	-1.94719E-003	-3.86518E-001	3.38964E-002	2.88279E+001	11	...........	5.65787E-002	-3.64875E-003	5.58530E-001	6.98421E-001	-3.13007E-002	-3.96010E-002	6.43115E-001	-4.27825E-002	-2.20542E-003	1.42227E-004	-2.17713E-002	-2.72242E-002	1.22009E-003	1.54363E-003	-2.50684E-002	1.66765E-003
	70	70	4.99683E-002	-3.82247E-002	0.00000E+000	-1.91002E-003	-3.79017E-001	3.38132E-002	2.86432E+001	11	...........	5.65961E-002	-3.69431E-003	5.58490E-001	6.98508E-001	-3.13237E-002	-3.96199E-002	6.43068E-001	-4.27635E-002	-2.16337E-003	1.41214E-004	-2.13481E-002	-2.67003E-002	1.19734E-003	1.51446E-003	-2.45811E-002	1.63462E-003
	71	71	4.99823E-002	-3.76912E-002	0.00000E+000	-1.88389E-003	-3.73701E-001	3.38918E-002	2.84577E+001	11	...........	5.65611E-002	-3.67889E-003	5.58638E-001	6.98314E-001	-3.12932E-002	-3.96494E-002	6.43092E-001	-4.28204E-002	-2.13186E-003	1.38662E-004	-2.10558E-002	-2.63203E-002	1.17948E-003	1.49444E-003	-2.42389E-002	1.61395E-003
	72	72	4.99729E-002	-3.70424E-002	0.00000E+000	-1.85111E-003	-3.67242E-001	3.38693E-002	2.87128E+001	11	...........	5.65076E-002	-3.70931E-003	5.58672E-001	6.98257E-001	-3.13336E-002	-3.96085E-002	6.42983E-001	-4.27675E-002	-2.09318E-003	1.37402E-004	-2.06945E-002	-2.58651E-002	1.16067E-003	1.46719E-003	-2.38176E-002	1.58421E-003
	73	73	4.99598E-002	-3.67237E-002	0.00000E+000	-1.83471E-003	-3.64079E-001	3.40056E-002	2.90205E+001	11	...........	5.67771E-002	-3.71958E-003	5.58681E-001	6.98299E-001	-3.13192E-002	-3.95781E-002	6.42941E-001	-4.28067E-002	-2.08507E-003	1.36597E-004	-2.05169E-002	-2.56442E-002	1.15016E-003	1.45345E-003	-2.36112E-002	1.57202E-003
	74	74	4.99669E-002	-3.58650E-002	0.00000E+000	-1.79206E-003	-3.55537E-001	3.39356E-002	2.83025E+001	11	...........	5.66224E-002	-3.76806E-003	5.58647E-001	6.98194E-001	-3.13157E-002	-3.95776E-002	6.42892E-001	-4.28049E-002	-2.03076E-003	1.35141E-004	-2.00359E-002	-2.50407E-002	1.12314E-003	1.41945E-003	-2.30573E-002	1.53520E-003
	75	75	4.99763E-002	-3.58663E-002	0.00000E+000	-1.79247E-003	-3.55552E-001	3.39947E-002	2.85151E+001	11	...........	5.67099E-002	-3.81181E-003	5.58638E-001	6.98101E-001	-3.13178E-002	-3.95949E-002	6.42995E-001	-4.27211E-002	-2.03398E-003	1.36716E-004	-2.00363E-002	-2.50383E-002	1.12325E-003	1.42012E-003	-2.30619E-002	1.53225E-003
	76	76	4.99743E-002	-3.55729E-002	0.00000E+000	-1.77773E-003	-3.52641E-001	3.41121E-002	2.90574E+001	11	...........	5.68908E-002	-3.82597E-003	5.58678E-001	6.98053E-001	-3.12896E-002	-3.95758E-002	6.43081E-001	-4.25724E-002	-2.02377E-003	1.36101E-004	-1.98738E-002	-2.48317E-002	1.11306E-003	1.40783E-003	-2.28762E-002	1.51442E-003
	77	77	4.99772E-002	-3.50321E-002	0.00000E+000	-1.75081E-003	-3.47249E-001	3.39950E-002	2.89361E+001	11	...........	5.67221E-002	-3.80792E-003	5.58797E-001	6.97936E-001	-3.12812E-002	-3.95622E-002	6.43031E-001	-4.25274E-002	-1.98709E-003	1.33399E-004	-1.95758E-002	-2.44502E-002	1.09585E-003	1.38595E-003	-2.25267E-002	1.48982E-003
	78	78	4.99448E-002	-3.40282E-002	0.00000E+000	-1.69953E-003	-3.37266E-001	3.39121E-002	2.91216E+001	11	...........	5.66056E-002	-3.72292E-003	5.58702E-001	6.97732E-001	-3.13089E-002	-3.95812E-002	6.43033E-001	-4.26419E-002	-1.92618E-003	1.26684E-004	-1.90116E-002	-2.37426E-002	1.06538E-003	1.34688E-003	-2.18812E-002	1.45103E-003
	79	79	4.99748E-002	-3.38435E-002	0.00000E+000	-1.69132E-003	-3.35429E-001	3.40937E-002	2.85342E+001	11	...........	5.68793E-002	-3.76278E-003	5.58646E-001	6.97572E-001	-3.13262E-002	-3.95826E-002	6.43053E-001	-4.28281E-002	-1.92500E-003	1.27346E-004	-1.89065E-002	-2.36083E-002	1.06019E-003	1.33962E-003	-2.17632E-002	1.44945E-003
	80	80	4.99741E-002	-3.37683E-002	0.00000E+000	-1.68754E-003	-3.34679E-001	3.41947E-002	2.90286E+001	11	...........	5.70657E-002	-3.79819E-003	5.58723E-001	6.97566E-001	-3.12937E-002	-3.95856E-002	6.42907E-001	-4.28325E-002	-1.92701E-003	1.28259E-004	-1.88671E-002	-2.35556E-002	1.05674E-003	1.33674E-003	-2.17099E-002	1.44638E-003
	81	81	4.99843E-002	-3.27659E-002	0.00000E+000	-1.63778E-003	-3.24719E-001	3.39404E-002	2.86923E+001	11	...........	5.66185E-002	-3.79569E-003	5.58932E-001	6.97499E-001	-3.13103E-002	-3.95629E-002	6.42794E-001	-4.28706E-002	-1.85515E-003	1.24369E-004	-1.83139E-002	-2.28542E-002	1.02591E-003	1.29631E-003	-2.10617E-002	1.40469E-003
	82	82	4.99601E-002	-3.25846E-002	0.00000E+000	-1.62793E-003	-3.22918E-001	3.40990E-002	2.88601E+001	11	...........	5.68993E-002	-3.72181E-003	5.58808E-001	6.97570E-001	-3.12974E-002	-3.95532E-002	6.42902E-001	-4.27242E-002	-1.85404E-003	1.21274E-004	-1.82086E-002	-2.27301E-002	1.01981E-003	1.28883E-003	-2.09487E-002	1.39215E-003
	83	83	4.99758E-002	-3.23978E-002	0.00000E+000	-1.61911E-003	-3.21049E-001	3.41754E-002	2.89611E+001	11	...........	5.70249E-002	-3.75458E-003	5.58714E-001	6.97558E-001	-3.12936E-002	-3.95971E-002	6.43012E-001	-4.27182E-002	-1.84748E-003	1.21640E-004	-1.81011E-002	-2.25994E-002	1.01385E-003	1.28286E-003	-2.08322E-002	1.38398E-003
	84	84	4.99710E-002	-3.18610E-002	0.00000E+000	-1.59212E-003	-3.15718E-001	3.40324E-002	2.85417E+001	11	...........	5.67817E-002	-3.74347E-003	5.58693E-001	6.97657E-001	-3.12950E-002	-3.95800E-002	6.42961E-001	-4.26212E-002	-1.80912E-003	1.19271E-004	-1.78005E-002	-2.22280E-002	9.97088E-004	1.26106E-003	-2.04854E-002	1.35795E-003
	85	85	4.99678E-002	-3.18506E-002	0.00000E+000	-1.59151E-003	-3.15602E-001	3.42635E-002	2.93333E+001	11	...........	5.71642E-002	-3.67847E-003	5.58563E-001	6.97783E-001	-3.12685E-002	-3.95767E-002	6.42830E-001	-4.25965E-002	-1.82072E-003	1.17162E-004	-1.77906E-002	-2.22248E-002	9.95921E-004	1.26054E-003	-2.04745E-002	1.35673E-003
	86	86	4.99693E-002	-3.11533E-002	0.00000E+000	-1.55671E-003	-3.08685E-001	3.42129E-002	2.88601E+001	11	...........	5.70900E-002	-3.67611E-003	5.58572E-001	6.97942E-001	-3.12871E-002	-3.95937E-002	6.42752E-001	-4.26699E-002	-1.77854E-003	1.14523E-004	-1.74014E-002	-2.17432E-002	9.74695E-004	1.23347E-003	-2.00238E-002	1.32931E-003
	87	87	4.99849E-002	-3.05712E-002	0.00000E+000	-1.52810E-003	-3.02927E-001	3.40767E-002	2.88658E+001	11	...........	5.68574E-002	-3.59778E-003	5.58610E-001	6.98018E-001	-3.12844E-002	-3.95631E-002	6.42735E-001	-4.28564E-002	-1.73820E-003	1.09988E-004	-1.70774E-002	-2.13393E-002	9.56404E-004	1.20949E-003	-1.96492E-002	1.31017E-003
	88	88	4.99714E-002	-3.04562E-002	0.00000E+000	-1.52194E-003	-3.01773E-001	3.41951E-002	2.90341E+001	11	...........	5.70543E-002	-3.67167E-003	5.58703E-001	6.97763E-001	-3.12793E-002	-3.95689E-002	6.42827E-001	-4.28357E-002	-1.73766E-003	1.11825E-004	-1.70160E-002	-2.12512E-002	9.52649E-004	1.20512E-003	-1.95781E-002	1.30461E-003
	89	89	4.99543E-002	-3.03418E-002	0.00000E+000	-1.51570E-003	-3.00641E-001	3.43221E-002	2.87796E+001	11	...........	5.72464E-002	-3.74889E-003	5.58832E-001	6.97716E-001	-3.12461E-002	-3.95596E-002	6.42688E-001	-4.26878E-002	-1.73696E-003	1.13748E-004	-1.69560E-002	-2.11699E-002	9.48062E-004	1.20031E-003	-1.95003E-002	1.29522E-003
	90	90	4.99764E-002	-2.93275E-002	0.00000E+000	-1.46568E-003	-2.90537E-001	3.42529E-002	2.86350E+001	11	...........	5.71561E-002	-3.77500E-003	5.58697E-001	6.97647E-001	-3.12743E-002	-3.95621E-002	6.42744E-001	-4.30671E-002	-1.67625E-003	1.10711E-004	-1.63852E-002	-2.04603E-002	9.17198E-004	1.16026E-003	-1.88501E-002	1.26305E-003
	91	91	4.99803E-002	-2.89490E-002	0.00000E+000	-1.44688E-003	-2.86778E-001	3.41528E-002	2.88947E+001	11	...........	5.69912E-002	-3.82444E-003	5.58805E-001	6.97838E-001	-3.12689E-002	-3.95686E-002	6.42761E-001	-4.29210E-002	-1.64984E-003	1.10714E-004	-1.61769E-002	-2.02017E-002	9.05204E-004	1.14547E-003	-1.86073E-002	1.24252E-003
	92	92	4.99722E-002	-2.91016E-002	0.00000E+000	-1.45427E-003	-2.88292E-001	3.43917E-002	2.94045E+001	11	...........	5.73911E-002	-3.90139E-003	5.58752E-001	6.97916E-001	-3.12943E-002	-3.95906E-002	6.42745E-001	-4.28357E-002	-1.67017E-003	1.13537E-004	-1.62606E-002	-2.03105E-002	9.10714E-004	1.15215E-003	-1.87049E-002	1.24659E-003
	93	93	4.99577E-002	-2.84248E-002	0.00000E+000	-1.42004E-003	-2.81583E-001	3.43137E-002	2.90423E+001	11	...........	5.72271E-002	-3.82319E-003	5.58743E-001	6.97946E-001	-3.12925E-002	-3.96201E-002	6.42724E-001	-4.28774E-002	-1.62667E-003	1.08674E-004	-1.58822E-002	-1.98390E-002	8.89484E-004	1.12620E-003	-1.82693E-002	1.21878E-003
	94	94	4.99801E-002	-2.80080E-002	0.00000E+000	-1.39984E-003	-2.77441E-001	3.42402E-002	2.88142E+001	11	...........	5.71310E-002	-3.84319E-003	5.58769E-001	6.97771E-001	-3.12599E-002	-3.96156E-002	6.42701E-001	-4.27697E-002	-1.60012E-003	1.07640E-004	-1.56500E-002	-1.95432E-002	8.75526E-004	1.10955E-003	-1.80008E-002	1.19789E-003
	95	95	4.99705E-002	-2.75911E-002	0.00000E+000	-1.37874E-003	-2.73286E-001	3.43599E-002	2.89715E+001	11	...........	5.73318E-002	-3.79861E-003	5.58829E-001	6.97651E-001	-3.12886E-002	-3.96158E-002	6.42757E-001	-4.27708E-002	-1.58185E-003	1.04808E-004	-1.54187E-002	-1.92489E-002	8.63287E-004	1.09304E-003	-1.77344E-002	1.18009E-003
	96	96	4.99674E-002	-2.73064E-002	0.00000E+000	-1.36443E-003	-2.70450E-001	3.42502E-002	2.91396E+001	11	...........	5.71385E-002	-3.78861E-003	5.58747E-001	6.97605E-001	-3.12699E-002	-3.95932E-002	6.42792E-001	-4.27119E-002	-1.56024E-003	1.03453E-004	-1.52573E-002	-1.90491E-002	8.53867E-004	1.08115E-003	-1.75523E-002	1.16631E-003
	97	97	4.99754E-002	-2.72644E-002	0.00000E+000	-1.36255E-003	-2.70031E-001	3.44324E-002	2.97094E+001	11	...........	5.74368E-002	-3.77778E-003	5.58662E-001	6.97626E-001	-3.12304E-002	-3.95785E-002	6.42804E-001	-4.27115E-002	-1.56598E-003	1.02999E-004	-1.52316E-002	-1.90204E-002	8.51479E-004	1.07908E-003	-1.75257E-002	1.16450E-003
	98	98	4.99678E-002	-2.68592E-002	0.00000E+000	-1.34209E-003	-2.65995E-001	3.43537E-002	2.93723E+001	11	...........	5.73104E-002	-3.78417E-003	5.58599E-001	6.97577E-001	-3.12224E-002	-3.95778E-002	6.42835E-001	-4.26165E-002	-1.53931E-003	1.01640E-004	-1.50035E-002	-1.87364E-002	8.38607E-004	1.06303E-003	-1.72660E-002	1.14465E-003
	99	99	4.99770E-002	-2.64460E-002	0.00000E+000	-1.32169E-003	-2.61880E-001	3.43857E-002	2.95538E+001	11	...........	5.73751E-002	-3.82764E-003	5.58692E-001	6.97705E-001	-3.12322E-002	-3.95900E-002	6.42769E-001	-4.25353E-002	-1.51734E-003	1.01226E-004	-1.47752E-002	-1.84515E-002	8.25968E-004	1.04700E-003	-1.69987E-002	1.12489E-003
	100	100	4.99702E-002	-2.63651E-002	0.00000E+000	-1.31747E-003	-2.61077E-001	3.44911E-002	2.95579E+001	11	...........	5.75554E-002	-3.78306E-003	5.58638E-001	6.97945E-001	-3.11903E-002	-3.96264E-002	6.42674E-001	-4.26131E-002	-1.51745E-003	9.97405E-005	-1.47285E-002	-1.84014E-002	8.22334E-004	1.04475E-003	-1.69442E-002	1.12350E-003
	101	101	4.99750E-002	-2.57595E-002	0.00000E+000	-1.28733E-003	-2.55069E-001	3.42970E-002	2.92478E+001	11	...........	5.72231E-002	-3.71042E-003	5.58540E-001	6.97975E-001	-3.11594E-002	-3.96001E-002	6.42792E-001	-4.27262E-002	-1.47404E-003	9.55783E-005	-1.43877E-002	-1.79795E-002	8.02650E-004	1.02008E-003	-1.65580E-002	1.10061E-003
	102	102	4.99676E-002	-2.57503E-002	0.00000E+000	-1.28668E-003	-2.54974E-001	3.44775E-002	2.95234E+001	11	...........	5.75112E-002	-3.64528E-003	5.58644E-001	6.97983E-001	-3.11582E-002	-3.95878E-002	6.42881E-001	-4.27804E-002	-1.48093E-003	9.38671E-005	-1.43853E-002	-1.79733E-002	8.02334E-004	1.01940E-003	-1.65544E-002	1.10161E-003
	103	103	4.99753E-002	-2.53789E-002	0.00000E+000	-1.26832E-003	-2.51287E-001	3.44647E-002	2.97095E+001	11	...........	5.75242E-002	-3.65222E-003	5.58697E-001	6.98032E-001	-3.11772E-002	-3.95779E-002	6.42869E-001	-4.27664E-002	-1.45990E-003	9.26896E-005	-1.41791E-002	-1.77153E-002	7.91245E-004	1.00445E-003	-1.63153E-002	1.08537E-003
	104	104	4.99732E-002	-2.46884E-002	0.00000E+000	-1.23376E-003	-2.44409E-001	3.43987E-002	2.92655E+001	11	...........	5.73910E-002	-3.70375E-003	5.58606E-001	6.98050E-001	-3.11878E-002	-3.95569E-002	6.42713E-001	-4.27326E-002	-1.41689E-003	9.14398E-005	-1.37911E-002	-1.72337E-002	7.69977E-004	9.76599E-004	-1.58676E-002	1.05500E-003
	105	105	4.99768E-002	-2.45467E-002	0.00000E+000	-1.22677E-003	-2.42997E-001	3.44547E-002	2.95978E+001	11	...........	5.75081E-002	-3.77458E-003	5.58618E-001	6.97923E-001	-3.11750E-002	-3.95369E-002	6.42666E-001	-4.26642E-002	-1.41163E-003	9.26537E-005	-1.37123E-002	-1.71317E-002	7.65244E-004	9.70502E-004	-1.57753E-002	1.04727E-003
	106	106	4.99612E-002	-2.43421E-002	0.00000E+000	-1.21616E-003	-2.40956E-001	3.44852E-002	2.98489E+001	11	...........	5.75300E-002	-3.81014E-003	5.58662E-001	6.97726E-001	-3.11565E-002	-3.95175E-002	6.42697E-001	-4.27935E-002	-1.40040E-003	9.27469E-005	-1.35990E-002	-1.69841E-002	7.58416E-004	9.61940E-004	-1.56446E-002	1.04168E-003
	107	107	4.99718E-002	-2.38433E-002	0.00000E+000	-1.19149E-003	-2.36007E-001	3.44915E-002	2.96616E+001	11	...........	5.75543E-002	-3.77792E-003	5.58807E-001	6.97695E-001	-3.11275E-002	-3.95242E-002	6.42718E-001	-4.27486E-002	-1.37229E-003	9.00781E-005	-1.33238E-002	-1.66354E-002	7.42183E-004	9.42387E-004	-1.53245E-002	1.01927E-003
	108	108	4.99645E-002	-2.28342E-002	0.00000E+000	-1.14090E-003	-2.25979E-001	3.43203E-002	2.86775E+001	11	...........	5.72604E-002	-3.77264E-003	5.58824E-001	6.97602E-001	-3.11286E-002	-3.95201E-002	6.42773E-001	-4.26801E-002	-1.30749E-003	8.61450E-005	-1.27603E-002	-1.59291E-002	7.10796E-004	9.02409E-004	-1.46772E-002	9.74565E-004
	109	109	4.99885E-002	-2.31111E-002	0.00000E+000	-1.15529E-003	-2.28737E-001	3.46623E-002	2.95652E+001	11	...........	5.78419E-002	-3.81625E-003	5.58760E-001	6.97475E-001	-3.11294E-002	-3.94790E-002	6.42663E-001	-4.26483E-002	-1.33679E-003	8.81977E-005	-1.29136E-002	-1.61194E-002	7.19436E-004	9.12404E-004	-1.48526E-002	9.85650E-004
	110	110	4.99691E-002	-2.31094E-002	0.00000E+000	-1.15476E-003	-2.28721E-001	3.45683E-002	2.98699E+001	11	...........	5.76832E-002	-3.73639E-003	5.58812E-001	6.97330E-001	-3.11308E-002	-3.94546E-002	6.42549E-001	-4.26001E-002	-1.33303E-003	8.63459E-005	-1.29138E-002	-1.61149E-002	7.19416E-004	9.11773E-004	-1.48490E-002	9.84465E-004
	111	111	4.99733E-002	-2.26894E-002	0.00000E+000	-1.13387E-003	-2.24547E-001	3.44802E-002	2.88642E+001	11	...........	5.75385E-002	-3.67792E-003	5.58872E-001	6.97235E-001	-3.11628E-002	-3.94410E-002	6.42614E-001	-4.25853E-002	-1.30551E-003	8.34498E-005	-1.26805E-002	-1.58199E-002	7.07065E-004	8.94892E-004	-1.45805E-002	9.66235E-004
	112	112	4.99691E-002	-2.20433E-002	0.00000E+000	-1.10148E-003	-2.18107E-001	3.45617E-002	2.92139E+001	11	...........	5.76722E-002	-3.72139E-003	5.58868E-001	6.97201E-001	-3.11331E-002	-3.94089E-002	6.42549E-001	-4.25325E-002	-1.27128E-003	8.20315E-005	-1.23193E-002	-1.53686E-002	6.86274E-004	8.68700E-004	-1.41639E-002	9.37554E-004
	113	113	4.99851E-002	-2.20703E-002	0.00000E+000	-1.10318E-003	-2.18379E-001	3.45766E-002	2.97153E+001	11	...........	5.77021E-002	-3.77708E-003	5.58983E-001	6.97311E-001	-3.11618E-002	-3.93769E-002	6.42605E-001	-4.25340E-002	-1.27350E-003	8.33613E-005	-1.23369E-002	-1.53898E-002	6.87750E-004	8.69061E-004	-1.41825E-002	9.38738E-004
	114	114	4.99670E-002	-2.15301E-002	0.00000E+000	-1.07580E-003	-2.12995E-001	3.45455E-002	2.91809E+001	11	...........	5.76504E-002	-3.76306E-003	5.59101E-001	6.97376E-001	-3.11683E-002	-3.93953E-002	6.42845E-001	-4.26457E-002	-1.24122E-003	8.10190E-005	-1.20375E-002	-1.50146E-002	6.71058E-004	8.48185E-004	-1.38405E-002	9.18167E-004
	115	115	4.99718E-002	-2.13170E-002	0.00000E+000	-1.06525E-003	-2.10878E-001	3.44590E-002	2.92960E+001	11	...........	5.75046E-002	-3.73153E-003	5.58854E-001	6.97439E-001	-3.11625E-002	-3.94024E-002	6.42876E-001	-4.27462E-002	-1.22583E-003	7.95451E-005	-1.19131E-002	-1.48673E-002	6.64292E-004	8.39941E-004	-1.37042E-002	9.11223E-004
	116	116	4.99692E-002	-2.11940E-002	0.00000E+000	-1.05905E-003	-2.09653E-001	3.47131E-002	2.97241E+001	11	...........	5.79233E-002	-3.77847E-003	5.58723E-001	6.97456E-001	-3.11262E-002	-3.93743E-002	6.42964E-001	-4.26069E-002	-1.22763E-003	8.00810E-005	-1.18416E-002	-1.47819E-002	6.59690E-004	8.34500E-004	-1.36270E-002	9.03012E-004
	117	117	4.99700E-002	-2.09448E-002	0.00000E+000	-1.04661E-003	-2.07183E-001	3.45192E-002	2.98220E+001	11	...........	5.75917E-002	-3.73278E-003	5.58774E-001	6.97451E-001	-3.11394E-002	-3.93614E-002	6.42835E-001	-4.26572E-002	-1.20624E-003	7.81822E-005	-1.17034E-002	-1.46080E-002	6.52209E-004	8.24416E-004	-1.34640E-002	8.93446E-004
	118	118	4.99736E-002	-2.07187E-002	0.00000E+000	-1.03539E-003	-2.04943E-001	3.47557E-002	2.99172E+001	11	...........	5.79829E-002	-3.72972E-003	5.58786E-001	6.97503E-001	-3.11714E-002	-3.93985E-002	6.42751E-001	-4.27094E-002	-1.20133E-003	7.72748E-005	-1.15773E-002	-1.44513E-002	6.45829E-004	8.16283E-004	-1.33169E-002	8.84882E-004
	119	119	4.99660E-002	-1.96436E-002	0.00000E+000	-9.81510E-004	-1.94249E-001	3.44693E-002	2.84166E+001	11	...........	5.75212E-002	-3.69153E-003	5.58595E-001	6.97589E-001	-3.11797E-002	-3.93872E-002	6.42718E-001	-4.25779E-002	-1.12992E-003	7.25148E-005	-1.09728E-002	-1.37031E-002	6.12481E-004	7.73705E-004	-1.26253E-002	8.36382E-004
	120	120	4.99713E-002	-1.94134E-002	0.00000E+000	-9.70113E-004	-1.91955E-001	3.43965E-002	2.95907E+001	11	...........	5.73907E-002	-3.76597E-003	5.58595E-001	6.97663E-001	-3.11887E-002	-3.93290E-002	6.42650E-001	-4.27211E-002	-1.11415E-003	7.31103E-005	-1.08442E-002	-1.35440E-002	6.05480E-004	7.63510E-004	-1.24760E-002	8.29362E-004
	121	121	4.99777E-002	-1.96781E-002	0.00000E+000	-9.83466E-004	-1.94591E-001	3.49534E-002	2.97631E+001	11	...........	5.83190E-002	-3.84833E-003	5.58843E-001	6.97549E-001	-3.12217E-002	-3.93574E-002	6.42577E-001	-4.29542E-002	-1.14761E-003	7.57279E-005	-1.09970E-002	-1.37265E-002	6.14383E-004	7.74478E-004	-1.26447E-002	8.45257E-004
	122	122	4.99774E-002	-1.96167E-002	0.00000E+000	-9.80394E-004	-1.93983E-001	3.47737E-002	2.96986E+001	11	...........	5.80522E-002	-3.62736E-003	5.58770E-001	6.97487E-001	-3.12424E-002	-3.93658E-002	6.42578E-001	-4.30667E-002	-1.13879E-003	7.11570E-005	-1.09612E-002	-1.36824E-002	6.12873E-004	7.72229E-004	-1.26053E-002	8.44827E-004
	123	123	4.99743E-002	-1.91765E-002	0.00000E+000	-9.58330E-004	-1.89595E-001	3.45102E-002	2.94841E+001	11	...........	5.76053E-002	-3.38917E-003	5.58754E-001	6.97497E-001	-3.12308E-002	-3.93669E-002	6.42564E-001	-4.29742E-002	-1.10467E-003	6.49922E-005	-1.07149E-002	-1.33755E-002	5.98897E-004	7.54919E-004	-1.23221E-002	8.24093E-004
	124	124	4.99779E-002	-1.91641E-002	0.00000E+000	-9.57782E-004	-1.89470E-001	3.47914E-002	3.00497E+001	11	...........	5.80251E-002	-3.46986E-003	5.58692E-001	6.97503E-001	-3.12515E-002	-3.93564E-002	6.42686E-001	-4.28847E-002	-1.11200E-003	6.64968E-005	-1.07068E-002	-1.33670E-002	5.98908E-004	7.54231E-004	-1.23165E-002	8.21848E-004
	125	125	4.99700E-002	-1.87847E-002	0.00000E+000	-9.38671E-004	-1.85695E-001	3.46331E-002	2.98874E+001	11	...........	5.78031E-002	-3.65056E-003	5.58742E-001	6.97637E-001	-3.12837E-002	-3.93862E-002	6.42721E-001	-4.28774E-002	-1.08581E-003	6.85746E-005	-1.04958E-002	-1.31049E-002	5.87656E-004	7.39858E-004	-1.20733E-002	8.05438E-004
	126	126	4.99718E-002	-1.86647E-002	0.00000E+000	-9.32710E-004	-1.84508E-001	3.47321E-002	2.95918E+001	11	...........	5.79443E-002	-3.67792E-003	5.58689E-001	6.97597E-001	-3.13044E-002	-3.93583E-002	6.42792E-001	-4.30106E-002	-1.08152E-003	6.86474E-005	-1.04278E-002	-1.30205E-002	5.84289E-004	7.34613E-004	-1.19975E-002	8.02781E-004
	127	127	4.99739E-002	-1.84416E-002	0.00000E+000	-9.21596E-004	-1.82291E-001	3.47882E-002	2.98163E+001	11	...........	5.80293E-002	-3.72111E-003	5.58555E-001	6.97628E-001	-3.12910E-002	-3.93504E-002	6.42844E-001	-4.29985E-002	-1.07015E-003	6.86231E-005	-1.03006E-002	-1.28654E-002	5.77055E-004	7.25684E-004	-1.18550E-002	7.92959E-004
	128	128	4.99724E-002	-1.82668E-002	0.00000E+000	-9.12838E-004	-1.80557E-001	3.47480E-002	2.98207E+001	11	...........	5.79821E-002	-3.75861E-003	5.58765E-001	6.97513E-001	-3.12865E-002	-3.93403E-002	6.42762E-001	-4.30344E-002	-1.05915E-003	6.86580E-005	-1.02069E-002	-1.27414E-002	5.71506E-004	7.18623E-004	-1.17412E-002	7.86104E-004
	129	129	4.99749E-002	-1.79379E-002	0.00000E+000	-8.96446E-004	-1.77299E-001	3.46306E-002	2.97739E+001	11	...........	5.77658E-002	-3.76569E-003	5.58770E-001	6.97473E-001	-3.13367E-002	-3.93611E-002	6.42664E-001	-4.30001E-002	-1.03620E-003	6.75487E-005	-1.00232E-002	-1.25112E-002	5.62114E-004	7.06056E-004	-1.15280E-002	7.71333E-004
	130	130	4.99733E-002	-1.77371E-002	0.00000E+000	-8.86379E-004	-1.75311E-001	3.47702E-002	2.97188E+001	11	...........	5.80224E-002	-3.69736E-003	5.58686E-001	6.97487E-001	-3.13343E-002	-3.93785E-002	6.42610E-001	-4.30417E-002	-1.02915E-003	6.55803E-005	-9.90946E-003	-1.23714E-002	5.55779E-004	6.98458E-004	-1.13980E-002	7.63433E-004
	131	131	4.99775E-002	-1.74797E-002	0.00000E+000	-8.73591E-004	-1.72743E-001	3.46725E-002	2.99591E+001	11	...........	5.78487E-002	-3.62889E-003	5.58560E-001	6.97414E-001	-3.12881E-002	-3.93390E-002	6.42627E-001	-4.30483E-002	-1.01118E-003	6.34318E-005	-9.76345E-003	-1.21906E-002	5.46905E-004	6.87633E-004	-1.12329E-002	7.52471E-004
	132	132	4.99718E-002	-1.73531E-002	0.00000E+000	-8.67166E-004	-1.71485E-001	3.48483E-002	2.98147E+001	11	...........	5.81336E-002	-3.67375E-003	5.58614E-001	6.97468E-001	-3.13093E-002	-3.93878E-002	6.42655E-001	-4.29506E-002	-1.00880E-003	6.37510E-005	-9.69368E-003	-1.21032E-002	5.43314E-004	6.83500E-004	-1.11521E-002	7.45325E-004
	133	133	4.99715E-002	-1.71579E-002	0.00000E+000	-8.57408E-004	-1.69544E-001	3.49411E-002	3.04188E+001	11	...........	5.82829E-002	-3.61208E-003	5.58489E-001	6.97542E-001	-3.13200E-002	-3.94247E-002	6.42738E-001	-4.28129E-002	-1.00001E-003	6.19759E-005	-9.58252E-003	-1.19684E-002	5.37387E-004	6.76447E-004	-1.10281E-002	7.34581E-004
	134	134	4.99748E-002	-1.70867E-002	0.00000E+000	-8.53904E-004	-1.68827E-001	3.47193E-002	2.98387E+001	11	...........	5.79272E-002	-3.58000E-003	5.58551E-001	6.97604E-001	-3.12864E-002	-3.94333E-002	6.42676E-001	-4.28269E-002	-9.89784E-004	6.11703E-005	-9.54378E-003	-1.19197E-002	5.34580E-004	6.73785E-004	-1.09812E-002	7.31770E-004
	135	135	4.99752E-002	-1.65389E-002	0.00000E+000	-8.26534E-004	-1.63361E-001	3.46151E-002	2.96626E+001	11	...........	5.77771E-002	-3.45153E-003	5.58598E-001	6.97654E-001	-3.12783E-002	-3.94361E-002	6.42609E-001	-4.27494E-002	-9.55568E-004	5.70844E-005	-9.23858E-003	-1.15384E-002	5.17308E-004	6.52229E-004	-1.06280E-002	7.07028E-004
	136	136	4.99704E-002	-1.63360E-002	0.00000E+000	-8.16315E-004	-1.61341E-001	3.49221E-002	2.99215E+001	11	...........	5.82758E-002	-3.56625E-003	5.58614E-001	6.97604E-001	-3.13064E-002	-3.94371E-002	6.42717E-001	-4.25754E-002	-9.51992E-004	5.82582E-005	-9.12551E-003	-1.13960E-002	5.11420E-004	6.44243E-004	-1.04994E-002	6.95511E-004
	137	137	4.99774E-002	-1.62141E-002	0.00000E+000	-8.10339E-004	-1.60129E-001	3.48179E-002	2.99518E+001	11	...........	5.81008E-002	-3.58667E-003	5.58502E-001	6.97494E-001	-3.13186E-002	-3.94664E-002	6.42686E-001	-4.26183E-002	-9.42054E-004	5.81547E-005	-9.05562E-003	-1.13093E-002	5.07804E-004	6.39913E-004	-1.04206E-002	6.91019E-004
	138	138	4.99691E-002	-1.57883E-002	0.00000E+000	-7.88926E-004	-1.55901E-001	3.47055E-002	2.98139E+001	11	...........	5.79058E-002	-3.59736E-003	5.58610E-001	6.97478E-001	-3.13325E-002	-3.94812E-002	6.42695E-001	-4.25771E-002	-9.14233E-004	5.67961E-005	-8.81949E-003	-1.10120E-002	4.94686E-004	6.23340E-004	-1.01470E-002	6.72218E-004
	139	139	4.99689E-002	-1.58473E-002	0.00000E+000	-7.91874E-004	-1.56491E-001	3.49240E-002	3.00748E+001	11	...........	5.82778E-002	-3.61042E-003	5.58736E-001	6.97440E-001	-3.13656E-002	-3.94628E-002	6.42674E-001	-4.25914E-002	-9.23548E-004	5.72155E-005	-8.85448E-003	-1.10526E-002	4.97061E-004	6.25380E-004	-1.01847E-002	6.74960E-004
	140	140	4.99814E-002	-1.57650E-002	0.00000E+000	-7.87957E-004	-1.55673E-001	3.49256E-002	3.01891E+001	11	...........	5.82557E-002	-3.58694E-003	5.58837E-001	6.97439E-001	-3.13539E-002	-3.94361E-002	6.42633E-001	-4.25231E-002	-9.18402E-004	5.65482E-005	-8.81008E-003	-1.09951E-002	4.94295E-004	6.21711E-004	-1.01311E-002	6.70377E-004
	141	141	4.99714E-002	-1.53962E-002	0.00000E+000	-7.69369E-004	-1.52014E-001	3.48167E-002	2.98250E+001	11	...........	5.80851E-002	-3.64819E-003	5.58923E-001	6.97449E-001	-3.13564E-002	-3.94364E-002	6.42598E-001	-4.25551E-002	-8.94289E-004	5.61683E-005	-8.60528E-003	-1.07380E-002	4.82769E-004	6.07170E-004	-9.89356E-003	6.55187E-004
	142	142	4.99754E-002	-1.52678E-002	0.00000E+000	-7.63014E-004	-1.50745E-001	3.48625E-002	2.99891E+001	11	...........	5.81886E-002	-3.52833E-003	5.58807E-001	6.97400E-001	-3.13515E-002	-3.94736E-002	6.42670E-001	-4.25425E-002	-8.88412E-004	5.38699E-005	-8.53175E-003	-1.06478E-002	4.78669E-004	6.02675E-004	-9.81215E-003	6.49530E-004
	143	143	4.99723E-002	-1.50579E-002	0.00000E+000	-7.52477E-004	-1.48651E-001	3.48076E-002	3.02446E+001	11	...........	5.80992E-002	-3.46861E-003	5.58847E-001	6.97384E-001	-3.13343E-002	-3.94964E-002	6.42794E-001	-4.26110E-002	-8.74850E-004	5.22299E-005	-8.41504E-003	-1.05011E-002	4.71828E-004	5.94731E-004	-9.67911E-003	6.41630E-004
	144	144	4.99766E-002	-1.48453E-002	0.00000E+000	-7.41916E-004	-1.46537E-001	3.49872E-002	2.98725E+001	11	...........	5.83812E-002	-3.57153E-003	5.58821E-001	6.97387E-001	-3.13336E-002	-3.94714E-002	6.42857E-001	-4.25833E-002	-8.66685E-004	5.30203E-005	-8.29585E-003	-1.03529E-002	4.65156E-004	5.85963E-004	-9.54338E-003	6.32161E-004
	145	145	4.99705E-002	-1.44839E-002	0.00000E+000	-7.23769E-004	-1.42925E-001	3.46208E-002	2.99474E+001	11	...........	5.77668E-002	-3.61889E-003	5.58784E-001	6.97382E-001	-3.13611E-002	-3.94886E-002	6.42833E-001	-4.26997E-002	-8.36690E-004	5.24157E-005	-8.09339E-003	-1.01008E-002	4.54232E-004	5.71950E-004	-9.31074E-003	6.18459E-004
	146	146	4.99767E-002	-1.46731E-002	0.00000E+000	-7.33311E-004	-1.44817E-001	3.51813E-002	3.04131E+001	11	...........	5.87089E-002	-3.67861E-003	5.58832E-001	6.97270E-001	-3.13253E-002	-3.95128E-002	6.42692E-001	-4.27778E-002	-8.61440E-004	5.39765E-005	-8.19978E-003	-1.02311E-002	4.59638E-004	5.79774E-004	-9.43027E-003	6.27681E-004
	147	147	4.99729E-002	-1.44368E-002	0.00000E+000	-7.21449E-004	-1.42466E-001	3.49321E-002	3.01270E+001	11	...........	5.82947E-002	-3.61778E-003	5.58857E-001	6.97228E-001	-3.13418E-002	-3.95229E-002	6.42721E-001	-4.26404E-002	-8.41590E-004	5.22292E-005	-8.06812E-003	-1.00658E-002	4.52476E-004	5.70585E-004	-9.27884E-003	6.15592E-004
	148	148	4.99709E-002	-1.38981E-002	0.00000E+000	-6.94500E-004	-1.37101E-001	3.47362E-002	3.01599E+001	11	...........	5.79590E-002	-3.66819E-003	5.58857E-001	6.97291E-001	-3.12940E-002	-3.95657E-002	6.42599E-001	-4.26771E-002	-8.05519E-004	5.09808E-005	-7.76704E-003	-9.69101E-003	4.34927E-004	5.49887E-004	-8.93089E-003	5.93129E-004
	149	149	4.99736E-002	-1.40800E-002	0.00000E+000	-7.03628E-004	-1.38908E-001	3.50300E-002	3.00022E+001	11	...........	5.84447E-002	-3.74181E-003	5.58707E-001	6.97363E-001	-3.13107E-002	-3.95849E-002	6.42777E-001	-4.28319E-002	-8.22901E-004	5.26846E-005	-7.86658E-003	-9.81886E-003	4.40854E-004	5.57354E-004	-9.05029E-003	6.03073E-004
	150	150	4.99764E-002	-1.39927E-002	0.00000E+000	-6.99307E-004	-1.38035E-001	3.49777E-002	3.02918E+001	11	...........	5.83707E-002	-3.73361E-003	5.58771E-001	6.97401E-001	-3.12925E-002	-3.95636E-002	6.42727E-001	-4.29037E-002	-8.16766E-004	5.22435E-005	-7.81874E-003	-9.75855E-003	4.37868E-004	5.53603E-004	-8.99351E-003	6.00341E-004
	151	151	4.99732E-002	-1.36236E-002	0.00000E+000	-6.80818E-004	-1.34365E-001	3.48166E-002	3.02677E+001	11	...........	5.80781E-002	-3.64417E-003	5.58808E-001	6.97425E-001	-3.13203E-002	-3.95351E-002	6.42599E-001	-4.28626E-002	-7.91235E-004	4.96468E-005	-7.61300E-003	-9.50147E-003	4.26696E-004	5.38613E-004	-8.75454E-003	5.83945E-004
	152	152	4.99765E-002	-1.34386E-002	0.00000E+000	-6.71616E-004	-1.32531E-001	3.50373E-002	2.95720E+001	11	...........	5.84569E-002	-3.61486E-003	5.58743E-001	6.97483E-001	-3.13078E-002	-3.95607E-002	6.42670E-001	-4.29492E-002	-7.85581E-004	4.85787E-005	-7.50874E-003	-9.37320E-003	4.20733E-004	5.31641E-004	-8.63659E-003	5.77177E-004
	153	153	4.99727E-002	-1.33757E-002	0.00000E+000	-6.68422E-004	-1.31909E-001	3.49167E-002	3.03607E+001	11	...........	5.82689E-002	-3.54333E-003	5.58562E-001	6.97520E-001	-3.13086E-002	-3.95858E-002	6.42692E-001	-4.29767E-002	-7.79390E-004	4.73947E-005	-7.47118E-003	-9.32986E-003	4.18776E-004	5.29490E-004	-8.59648E-003	5.74845E-004
	154	154	4.99714E-002	-1.31842E-002	0.00000E+000	-6.58834E-004	-1.30013E-001	3.49541E-002	2.97365E+001	11	...........	5.83228E-002	-3.57403E-003	5.58602E-001	6.97580E-001	-3.12921E-002	-3.96187E-002	6.42831E-001	-4.30164E-002	-7.68940E-004	4.71207E-005	-7.36472E-003	-9.19703E-003	4.12561E-004	5.22342E-004	-8.47522E-003	5.67137E-004
	155	155	4.99810E-002	-1.31311E-002	0.00000E+000	-6.56307E-004	-1.29483E-001	3.50410E-002	3.01554E+001	11	...........	5.84831E-002	-3.66069E-003	5.58770E-001	6.97603E-001	-3.12458E-002	-3.96204E-002	6.42709E-001	-4.30615E-002	-7.67949E-004	4.80691E-005	-7.33728E-003	-9.16032E-003	4.10293E-004	5.20261E-004	-8.43950E-003	5.65447E-004
	156	156	4.99709E-002	-1.26866E-002	0.00000E+000	-6.33963E-004	-1.25075E-001	3.49438E-002	3.00414E+001	11	...........	5.83140E-002	-3.77458E-003	5.58851E-001	6.97528E-001	-3.12387E-002	-3.96403E-002	6.42753E-001	-4.29411E-002	-7.39810E-004	4.78868E-005	-7.08994E-003	-8.84929E-003	3.96315E-004	5.02902E-004	-8.15438E-003	5.44779E-004
	157	157	4.99731E-002	-1.27386E-002	0.00000E+000	-6.36587E-004	-1.25596E-001	3.49804E-002	3.02616E+001	11	...........	5.83710E-002	-3.70153E-003	5.58747E-001	6.97534E-001	-3.12683E-002	-3.96235E-002	6.42768E-001	-4.28772E-002	-7.43565E-004	4.71523E-005	-7.11765E-003	-8.88561E-003	3.98315E-004	5.04748E-004	-8.18797E-003	5.46196E-004
	158	158	4.99736E-002	-1.25621E-002	0.00000E+000	-6.27774E-004	-1.23841E-001	3.49578E-002	2.95779E+001	11	...........	5.83242E-002	-3.73958E-003	5.58881E-001	6.97586E-001	-3.12539E-002	-3.96096E-002	6.42793E-001	-4.29278E-002	-7.32675E-004	4.69771E-005	-7.02073E-003	-8.76316E-003	3.92615E-004	4.97580E-004	-8.07483E-003	5.39263E-004
	159	159	4.99806E-002	-1.24432E-002	0.00000E+000	-6.21919E-004	-1.22652E-001	3.49910E-002	3.03482E+001	11	...........	5.83804E-002	-3.56403E-003	5.58863E-001	6.97570E-001	-3.12392E-002	-3.95750E-002	6.42649E-001	-4.28435E-002	-7.26440E-004	4.43479E-005	-6.95405E-003	-8.68001E-003	3.88716E-004	4.92440E-004	-7.99661E-003	5.33110E-004
	160	160	4.99691E-002	-1.23308E-002	0.00000E+000	-6.16162E-004	-1.21538E-001	3.49815E-002	3.01110E+001	11	...........	5.83606E-002	-3.69944E-003	5.58844E-001	6.97519E-001	-3.12396E-002	-3.95961E-002	6.42619E-001	-4.26356E-002	-7.19635E-004	4.56173E-005	-6.89102E-003	-8.60100E-003	3.85211E-004	4.88254E-004	-7.92403E-003	5.25732E-004
	161	161	4.99761E-002	-1.20078E-002	0.00000E+000	-6.00101E-004	-1.18321E-001	3.50733E-002	3.05471E+001	11	...........	5.85231E-002	-3.76125E-003	5.58801E-001	6.97490E-001	-3.12322E-002	-3.95968E-002	6.42657E-001	-4.26261E-002	-7.02731E-004	4.51642E-005	-6.70994E-003	-8.37529E-003	3.75029E-004	4.75469E-004	-7.71687E-003	5.11844E-004
	162	162	4.99745E-002	-1.20163E-002	0.00000E+000	-6.00508E-004	-1.18405E-001	3.50150E-002	3.05226E+001	11	...........	5.84410E-002	-3.81375E-003	5.58829E-001	6.97545E-001	-3.12608E-002	-3.95946E-002	6.42772E-001	-4.27264E-002	-7.02243E-004	4.58271E-005	-6.71505E-003	-8.38190E-003	3.75639E-004	4.75780E-004	-7.72373E-003	5.13412E-004
	163	163	4.99754E-002	-1.20376E-002	0.00000E+000	-6.01583E-004	-1.18616E-001	3.51582E-002	3.02568E+001	11	...........	5.86699E-002	-3.74111E-003	5.58874E-001	6.97626E-001	-3.12547E-002	-3.95957E-002	6.42770E-001	-4.27089E-002	-7.06243E-004	4.50339E-005	-6.72749E-003	-8.39773E-003	3.76231E-004	4.76636E-004	-7.73740E-003	5.14112E-004
	164	164	4.99703E-002	-1.18733E-002	0.00000E+000	-5.93310E-004	-1.16974E-001	3.51090E-002	3.02041E+001	11	...........	5.85944E-002	-3.66361E-003	5.58907E-001	6.97620E-001	-3.12668E-002	-3.95732E-002	6.42896E-001	-4.26267E-002	-6.95707E-004	4.34990E-005	-6.63604E-003	-8.28302E-003	3.71239E-004	4.69863E-004	-7.63327E-003	5.06117E-004
	165	165	4.99757E-002	-1.15351E-002	0.00000E+000	-5.76478E-004	-1.13595E-001	3.48481E-002	2.99163E+001	11	...........	5.81417E-002	-3.65944E-003	5.58936E-001	6.97680E-001	-3.12726E-002	-3.95453E-002	6.42901E-001	-4.26664E-002	-6.70673E-004	4.22122E-005	-6.44741E-003	-8.04784E-003	3.60735E-004	4.56161E-004	-7.41596E-003	4.92163E-004
	166	166	4.99753E-002	-1.15857E-002	0.00000E+000	-5.79001E-004	-1.14097E-001	3.50728E-002	3.02265E+001	11	...........	5.85222E-002	-3.66778E-003	5.58917E-001	6.97567E-001	-3.12867E-002	-3.95685E-002	6.42756E-001	-4.29062E-002	-6.78023E-004	4.24939E-005	-6.47546E-003	-8.08183E-003	3.62479E-004	4.58430E-004	-7.44680E-003	4.97100E-004
	167	167	4.99762E-002	-1.14578E-002	0.00000E+000	-5.72616E-004	-1.12821E-001	3.51883E-002	3.03015E+001	11	...........	5.87181E-002	-3.44972E-003	5.58926E-001	6.97474E-001	-3.12921E-002	-3.95933E-002	6.42632E-001	-4.29843E-002	-6.72779E-004	3.95262E-005	-6.40405E-003	-7.99151E-003	3.58538E-004	4.53652E-004	-7.36314E-003	4.92505E-004
	168	168	4.99755E-002	-1.12766E-002	0.00000E+000	-5.63557E-004	-1.11023E-001	3.49708E-002	3.04777E+001	11	...........	5.83486E-002	-3.43514E-003	5.59029E-001	6.97392E-001	-3.13001E-002	-3.95987E-002	6.42665E-001	-4.30525E-002	-6.57977E-004	3.87368E-005	-6.30398E-003	-7.86425E-003	3.52961E-004	4.46541E-004	-7.24710E-003	4.85488E-004
	169	169	4.99764E-002	-1.11647E-002	0.00000E+000	-5.57969E-004	-1.09910E-001	3.51140E-002	3.01304E+001	11	...........	5.86074E-002	-3.48514E-003	5.58782E-001	6.97296E-001	-3.13071E-002	-3.96144E-002	6.42709E-001	-4.29428E-002	-6.54331E-004	3.89104E-005	-6.23861E-003	-7.78507E-003	3.49533E-004	4.42282E-004	-7.17563E-003	4.79441E-004
	170	170	4.99762E-002	-1.10732E-002	0.00000E+000	-5.53394E-004	-1.09002E-001	3.49068E-002	3.01373E+001	11	...........	5.82564E-002	-3.55722E-003	5.58637E-001	6.97256E-001	-3.13293E-002	-3.95782E-002	6.42555E-001	-4.29862E-002	-6.45082E-004	3.93897E-005	-6.18587E-003	-7.72083E-003	3.46914E-004	4.38255E-004	-7.11511E-003	4.75993E-004
	171	171	4.99708E-002	-1.09372E-002	0.00000E+000	-5.46541E-004	-1.07653E-001	3.51702E-002	3.06989E+001	11	...........	5.86833E-002	-3.51028E-003	5.58654E-001	6.97227E-001	-3.12849E-002	-3.95819E-002	6.42652E-001	-4.29528E-002	-6.41831E-004	3.83926E-005	-6.11011E-003	-7.62571E-003	3.42168E-004	4.32915E-004	-7.02880E-003	4.69783E-004
	172	172	4.99719E-002	-1.08297E-002	0.00000E+000	-5.41183E-004	-1.06586E-001	3.51664E-002	3.04113E+001	11	...........	5.86579E-002	-3.64764E-003	5.58554E-001	6.97238E-001	-3.12489E-002	-3.95637E-002	6.42806E-001	-4.29197E-002	-6.35250E-004	3.95030E-005	-6.04900E-003	-7.55092E-003	3.38418E-004	4.28465E-004	-6.96142E-003	4.64810E-004
	173	173	4.99784E-002	-1.06689E-002	0.00000E+000	-5.33216E-004	-1.04986E-001	3.50986E-002	2.98417E+001	11	...........	5.85764E-002	-3.72583E-003	5.58494E-001	6.97346E-001	-3.12403E-002	-3.96071E-002	6.42756E-001	-4.30283E-002	-6.24947E-004	3.97506E-005	-5.95853E-003	-7.43994E-003	3.33300E-004	4.22565E-004	-6.85751E-003	4.59066E-004
	174	174	4.99755E-002	-1.05215E-002	0.00000E+000	-5.25819E-004	-1.03537E-001	3.49431E-002	3.08674E+001	11	...........	5.82978E-002	-3.63264E-003	5.58527E-001	6.97445E-001	-3.12440E-002	-3.96460E-002	6.42780E-001	-4.27929E-002	-6.13382E-004	3.82209E-005	-5.87656E-003	-7.33819E-003	3.28735E-004	4.17136E-004	-6.76303E-003	4.50247E-004
	175	175	4.99718E-002	-1.04436E-002	0.00000E+000	-5.21885E-004	-1.02770E-001	3.52166E-002	3.03272E+001	11	...........	5.87403E-002	-3.67667E-003	5.58657E-001	6.97448E-001	-3.12187E-002	-3.96722E-002	6.42911E-001	-4.27113E-002	-6.13459E-004	3.83976E-005	-5.83439E-003	-7.28386E-003	3.26036E-004	4.14320E-004	-6.71429E-003	4.46059E-004
	176	176	4.99774E-002	-1.03691E-002	0.00000E+000	-5.18222E-004	-1.02046E-001	3.51811E-002	3.07224E+001	11	...........	5.87136E-002	-3.49819E-003	5.58620E-001	6.97480E-001	-3.12039E-002	-3.96393E-002	6.42795E-001	-4.28186E-002	-6.08809E-004	3.62732E-005	-5.79241E-003	-7.23227E-003	3.23557E-004	4.11025E-004	-6.66523E-003	4.43992E-004
	177	177	4.99738E-002	-1.01108E-002	0.00000E+000	-5.05275E-004	-9.94907E-002	3.51355E-002	3.01688E+001	11	...........	5.86382E-002	-3.49917E-003	5.58664E-001	6.97487E-001	-3.12072E-002	-3.95972E-002	6.42726E-001	-4.27079E-002	-5.92879E-004	3.53794E-005	-5.64854E-003	-7.05215E-003	3.15530E-004	4.00360E-004	-6.49848E-003	4.31811E-004
	178	178	4.99753E-002	-1.00383E-002	0.00000E+000	-5.01667E-004	-9.87673E-002	3.49908E-002	3.08918E+001	11	...........	5.83919E-002	-3.66431E-003	5.58601E-001	6.97535E-001	-3.12079E-002	-3.96200E-002	6.42679E-001	-4.26693E-002	-5.86156E-004	3.67834E-005	-5.60740E-003	-7.00207E-003	3.13274E-004	3.97717E-004	-6.45141E-003	4.28327E-004
	179	179	4.99734E-002	-1.00915E-002	0.00000E+000	-5.04304E-004	-9.92953E-002	3.52719E-002	3.02636E+001	11	...........	5.88344E-002	-3.69958E-003	5.58705E-001	6.97538E-001	-3.12133E-002	-3.96639E-002	6.42717E-001	-4.26857E-002	-5.93726E-004	3.73342E-005	-5.63815E-003	-7.03918E-003	3.14988E-004	4.00267E-004	-6.48595E-003	4.30761E-004
	180	180	4.99762E-002	-9.89437E-003	0.00000E+000	-4.94483E-004	-9.73340E-002	3.50021E-002	3.06990E+001	11	...........	5.83924E-002	-3.67694E-003	5.58716E-001	6.97560E-001	-3.12261E-002	-3.96742E-002	6.42815E-001	-4.30524E-002	-5.77755E-004	3.63810E-005	-5.52814E-003	-6.90192E-003	3.08963E-004	3.92551E-004	-6.36025E-003	4.25976E-004
	181	181	4.99764E-002	-9.89403E-003	0.00000E+000	-4.94468E-004	-9.73300E-002	3.53223E-002	3.07701E+001	11	...........	5.89358E-002	-3.72819E-003	5.58786E-001	6.97766E-001	-3.12558E-002	-3.96317E-002	6.42832E-001	-4.30312E-002	-5.83113E-004	3.68869E-005	-5.52864E-003	-6.90372E-003	3.09246E-004	3.92117E-004	-6.36020E-003	4.25752E-004
	182	182	4.99734E-002	-9.78633E-003	0.00000E+000	-4.89056E-004	-9.62567E-002	3.51327E-002	3.06508E+001	11	...........	5.86426E-002	-3.67944E-003	5.58969E-001	6.97917E-001	-3.12328E-002	-3.96231E-002	6.42871E-001	-4.29008E-002	-5.73896E-004	3.60082E-005	-5.47025E-003	-6.83004E-003	3.05654E-004	3.87764E-004	-6.29134E-003	4.19842E-004
	183	183	4.99747E-002	-9.64730E-003	0.00000E+000	-4.82121E-004	-9.48753E-002	3.51788E-002	3.02015E+001	11	...........	5.87154E-002	-3.61000E-003	5.58955E-001	6.97977E-001	-3.12137E-002	-3.96264E-002	6.42795E-001	-4.29154E-002	-5.66445E-004	3.48268E-005	-5.39241E-003	-6.73359E-003	3.01128E-004	3.82288E-004	-6.20124E-003	4.14018E-004
	184	184	4.99740E-002	-9.52887E-003	0.00000E+000	-4.76196E-004	-9.36973E-002	3.51107E-002	3.05185E+001	11	...........	5.85921E-002	-3.67806E-003	5.58918E-001	6.97922E-001	-3.11903E-002	-3.96207E-002	6.42652E-001	-4.27594E-002	-5.58316E-004	3.50477E-005	-5.32585E-003	-6.65041E-003	2.97208E-004	3.77540E-004	-6.12375E-003	4.07449E-004
	185	185	4.99752E-002	-9.24349E-003	0.00000E+000	-4.61946E-004	-9.08473E-002	3.52489E-002	2.94391E+001	11	...........	5.88110E-002	-3.57347E-003	5.58963E-001	6.97901E-001	-3.11872E-002	-3.96401E-002	6.42915E-001	-4.29093E-002	-5.43619E-004	3.30314E-005	-5.16677E-003	-6.45104E-003	2.88279E-004	3.66413E-004	-5.94278E-003	3.96632E-004
	186	186	4.99783E-002	-9.25611E-003	0.00000E+000	-4.62605E-004	-9.09687E-002	3.50605E-002	3.10313E+001	11	...........	5.85008E-002	-3.64458E-003	5.58862E-001	6.97714E-001	-3.11896E-002	-3.96294E-002	6.42999E-001	-4.29137E-002	-5.41490E-004	3.37347E-005	-5.17289E-003	-6.45812E-003	2.88694E-004	3.66815E-004	-5.95168E-003	3.97215E-004
	187	187	4.99695E-002	-9.29862E-003	0.00000E+000	-4.64647E-004	-9.13967E-002	3.53474E-002	3.02869E+001	11	...........	5.89929E-002	-3.66167E-003	5.58879E-001	6.97746E-001	-3.11822E-002	-3.96244E-002	6.43003E-001	-4.28474E-002	-5.48553E-004	3.40485E-005	-5.19681E-003	-6.48808E-003	2.89952E-004	3.68453E-004	-5.97904E-003	3.98422E-004
	188	188	4.99790E-002	-9.11623E-003	0.00000E+000	-4.55620E-004	-8.95740E-002	3.51994E-002	3.03237E+001	11	...........	5.87186E-002	-3.58097E-003	5.58868E-001	6.97968E-001	-3.12010E-002	-3.96074E-002	6.42980E-001	-4.25743E-002	-5.35292E-004	3.26450E-005	-5.09477E-003	-6.36284E-003	2.84435E-004	3.61070E-004	-5.86156E-003	3.88117E-004
	189	189	4.99735E-002	-9.01554E-003	0.00000E+000	-4.50538E-004	-8.85667E-002	3.52152E-002	3.01369E+001	11	...........	5.87779E-002	-3.65472E-003	5.58924E-001	6.98097E-001	-3.11928E-002	-3.95940E-002	6.43046E-001	-4.25553E-002	-5.29915E-004	3.29493E-005	-5.03901E-003	-6.29372E-003	2.81220E-004	3.56961E-004	-5.79741E-003	3.83659E-004
	190	190	4.99751E-002	-8.98498E-003	0.00000E+000	-4.49025E-004	-8.82673E-002	3.52248E-002	3.05937E+001	11	...........	5.87951E-002	-3.75292E-003	5.59002E-001	6.97998E-001	-3.12199E-002	-3.96189E-002	6.42994E-001	-4.27144E-002	-5.28273E-004	3.37199E-005	-5.02262E-003	-6.27149E-003	2.80510E-004	3.55975E-004	-5.77728E-003	3.83788E-004
	191	191	4.99748E-002	-8.93816E-003	0.00000E+000	-4.46683E-004	-8.78013E-002	3.51930E-002	3.01792E+001	11	...........	5.87328E-002	-3.75556E-003	5.59140E-001	6.97809E-001	-3.12204E-002	-3.96319E-002	6.42780E-001	-4.27483E-002	-5.24963E-004	3.35677E-005	-4.99768E-003	-6.23712E-003	2.79053E-004	3.54237E-004	-5.74527E-003	3.82091E-004
	192	192	4.99794E-002	-8.74696E-003	0.00000E+000	-4.37168E-004	-8.58953E-002	3.53075E-002	3.03349E+001	11	...........	5.88921E-002	-3.75208E-003	5.58997E-001	6.97841E-001	-3.12422E-002	-3.96121E-002	6.42560E-001	-4.28838E-002	-5.15127E-004	3.28193E-005	-4.88953E-003	-6.10399E-003	2.73275E-004	3.46485E-004	-5.62045E-003	3.75103E-004
	193	193	4.99733E-002	-8.69775E-003	0.00000E+000	-4.34655E-004	-8.54047E-002	3.51343E-002	3.07946E+001	11	...........	5.86321E-002	-3.62903E-003	5.58876E-001	6.97916E-001	-3.12394E-002	-3.95911E-002	6.42553E-001	-4.28906E-002	-5.09967E-004	3.15644E-005	-4.86096E-003	-6.07030E-003	2.71713E-004	3.44353E-004	-5.58877E-003	3.73051E-004
	194	194	4.99703E-002	-8.52320E-003	0.00000E+000	-4.25906E-004	-8.36733E-002	3.51789E-002	2.97922E+001	11	...........	5.86804E-002	-3.71972E-003	5.58861E-001	6.98026E-001	-3.12400E-002	-3.95956E-002	6.42617E-001	-4.29301E-002	-5.00145E-004	3.17039E-005	-4.76329E-003	-5.94941E-003	2.66265E-004	3.37481E-004	-5.47715E-003	3.65902E-004
	195	195	4.99776E-002	-8.48710E-003	0.00000E+000	-4.24164E-004	-8.33147E-002	3.53647E-002	3.01986E+001	11	...........	5.90082E-002	-3.71583E-003	5.58797E-001	6.97938E-001	-3.12658E-002	-3.96006E-002	6.42627E-001	-4.29274E-002	-5.00808E-004	3.15366E-005	-4.74257E-003	-5.92347E-003	2.65356E-004	3.36094E-004	-5.45404E-003	3.64329E-004
	196	196	4.99770E-002	-8.45263E-003	0.00000E+000	-4.22437E-004	-8.29720E-002	3.51603E-002	3.05111E+001	11	...........	5.86712E-002	-3.65222E-003	5.58723E-001	6.97970E-001	-3.13001E-002	-3.95549E-002	6.42596E-001	-4.28069E-002	-4.95926E-004	3.08709E-005	-4.72267E-003	-5.89968E-003	2.64568E-004	3.34343E-004	-5.43162E-003	3.61831E-004
	197	197	4.99760E-002	-8.37570E-003	0.00000E+000	-4.18584E-004	-8.22053E-002	3.52666E-002	3.05005E+001	11	...........	5.88600E-002	-3.61292E-003	5.58545E-001	6.98054E-001	-3.12956E-002	-3.95526E-002	6.42678E-001	-4.27612E-002	-4.92994E-004	3.02607E-005	-4.67821E-003	-5.84669E-003	2.62122E-004	3.31281E-004	-5.38287E-003	3.58155E-004
	198	198	4.99730E-002	-8.29846E-003	0.00000E+000	-4.14699E-004	-8.14413E-002	3.52317E-002	3.02428E+001	11	...........	5.87874E-002	-3.63625E-003	5.58561E-001	6.98140E-001	-3.12896E-002	-3.95615E-002	6.42715E-001	-4.27889E-002	-4.87844E-004	3.01753E-005	-4.63520E-003	-5.79349E-003	2.59655E-004	3.28300E-004	-5.33355E-003	3.55082E-004
	199	199	4.99768E-002	-8.19291E-003	0.00000E+000	-4.09455E-004	-8.03927E-002	3.53650E-002	3.05687E+001	11	...........	5.90192E-002	-3.56458E-003	5.58510E-001	6.98123E-001	-3.12831E-002	-3.95725E-002	6.42805E-001	-4.27932E-002	-4.83539E-004	2.92043E-005	-4.57582E-003	-5.71966E-003	2.56299E-004	3.24214E-004	-5.26645E-003	3.50601E-004
	200	200	4.99759E-002	-8.12151E-003	0.00000E+000	-4.05879E-004	-7.96827E-002	3.50935E-002	3.01932E+001	11	...........	5.85637E-002	-3.58097E-003	5.58395E-001	6.98071E-001	-3.13015E-002	-3.95626E-002	6.42843E-001	-4.28937E-002	-4.75626E-004	2.90829E-005	-4.53501E-003	-5.66939E-003	2.54216E-004	3.21308E-004	-5.22085E-003	3.48362E-004
	201	201	4.99759E-002	-8.06553E-003	0.00000E+000	-4.03082E-004	-7.91267E-002	3.53271E-002	3.04670E+001	11	...........	5.89379E-002	-3.64431E-003	5.58382E-001	6.97930E-001	-3.12894E-002	-3.95435E-002	6.42738E-001	-4.27642E-002	-4.75366E-004	2.93933E-005	-4.50365E-003	-5.62918E-003	2.52366E-004	3.18939E-004	-5.18402E-003	3.44916E-004
	202	202	4.99728E-002	-8.00001E-003	0.00000E+000	-3.99783E-004	-7.84760E-002	3.53428E-002	2.98158E+001	11	...........	5.89792E-002	-3.49861E-003	5.58497E-001	6.98052E-001	-3.13208E-002	-3.95683E-002	6.42766E-001	-4.27967E-002	-4.71834E-004	2.79889E-005	-4.46798E-003	-5.58442E-003	2.50567E-004	3.16547E-004	-5.14214E-003	3.42374E-004
	203	203	4.99764E-002	-7.92483E-003	0.00000E+000	-3.96054E-004	-7.77353E-002	3.53256E-002	3.07612E+001	11	...........	5.89424E-002	-3.56361E-003	5.58559E-001	6.98138E-001	-3.13256E-002	-3.95787E-002	6.42745E-001	-4.28596E-002	-4.67108E-004	2.82410E-005	-4.42648E-003	-5.53262E-003	2.48250E-004	3.13655E-004	-5.09364E-003	3.39655E-004
	204	204	4.99774E-002	-7.90247E-003	0.00000E+000	-3.94945E-004	-7.75167E-002	3.53240E-002	3.09027E+001	11	...........	5.89456E-002	-3.59986E-003	5.58496E-001	6.98187E-001	-3.13089E-002	-3.95926E-002	6.42646E-001	-4.28256E-002	-4.65815E-004	2.84478E-005	-4.41350E-003	-5.51740E-003	2.47418E-004	3.12880E-004	-5.07849E-003	3.38428E-004
	205	205	4.99741E-002	-7.75697E-003	0.00000E+000	-3.87647E-004	-7.60820E-002	3.51619E-002	3.03395E+001	11	...........	5.86665E-002	-3.65222E-003	5.58428E-001	6.98204E-001	-3.13174E-002	-3.95874E-002	6.42595E-001	-4.27189E-002	-4.55074E-004	2.83302E-005	-4.33171E-003	-5.41595E-003	2.42928E-004	3.07078E-004	-4.98459E-003	3.31369E-004
	206	206	4.99767E-002	-7.73993E-003	0.00000E+000	-3.86817E-004	-7.59213E-002	3.53598E-002	3.07472E+001	11	...........	5.90065E-002	-3.69167E-003	5.58433E-001	6.98135E-001	-3.12843E-002	-3.95892E-002	6.42725E-001	-4.26882E-002	-4.56707E-004	2.85733E-005	-4.32223E-003	-5.40352E-003	2.42138E-004	3.06418E-004	-4.97465E-003	3.30404E-004
	207	207	4.99718E-002	-7.70484E-003	0.00000E+000	-3.85025E-004	-7.55660E-002	3.53676E-002	3.10056E+001	11	...........	5.90282E-002	-3.60792E-003	5.58377E-001	6.98036E-001	-3.13350E-002	-3.95936E-002	6.42758E-001	-4.25922E-002	-4.54803E-004	2.77984E-005	-4.30220E-003	-5.37825E-003	2.41431E-004	3.05062E-004	-4.95235E-003	3.28166E-004
	208	208	4.99761E-002	-7.60319E-003	0.00000E+000	-3.79978E-004	-7.45567E-002	3.53103E-002	3.03603E+001	11	...........	5.89328E-002	-3.59028E-003	5.58477E-001	6.98182E-001	-3.13489E-002	-3.95947E-002	6.42652E-001	-4.26037E-002	-4.48077E-004	2.72976E-005	-4.24621E-003	-5.30841E-003	2.38352E-004	3.01046E-004	-4.88621E-003	3.23924E-004
	209	209	4.99761E-002	-7.46667E-003	0.00000E+000	-3.73155E-004	-7.31927E-002	3.52541E-002	3.04848E+001	11	...........	5.88153E-002	-3.41125E-003	5.58491E-001	6.98317E-001	-3.13568E-002	-3.95722E-002	6.42599E-001	-4.27336E-002	-4.39155E-004	2.54707E-005	-4.17007E-003	-5.21410E-003	2.34131E-004	2.95473E-004	-4.79808E-003	3.19078E-004
	210	210	4.99763E-002	-7.48699E-003	0.00000E+000	-3.74172E-004	-7.33973E-002	3.52526E-002	3.10265E+001	11	...........	5.88096E-002	-3.59806E-003	5.58419E-001	6.98418E-001	-3.13597E-002	-3.95842E-002	6.42557E-001	-4.27811E-002	-4.40307E-004	2.69386E-005	-4.18088E-003	-5.22905E-003	2.34790E-004	2.96366E-004	-4.81082E-003	3.20302E-004
	211	211	4.99757E-002	-7.40572E-003	0.00000E+000	-3.70106E-004	-7.25833E-002	3.54840E-002	3.03181E+001	11	...........	5.91933E-002	-3.64083E-003	5.58580E-001	6.98336E-001	-3.13644E-002	-3.95956E-002	6.42692E-001	-4.30035E-002	-4.38369E-004	2.69630E-005	-4.13669E-003	-5.17168E-003	2.32276E-004	2.93234E-004	-4.75960E-003	3.18472E-004
	212	212	4.99729E-002	-7.28062E-003	0.00000E+000	-3.63834E-004	-7.13447E-002	3.51669E-002	3.05867E+001	11	...........	5.86860E-002	-3.64708E-003	5.58487E-001	6.98295E-001	-3.13633E-002	-3.96354E-002	6.42744E-001	-4.29678E-002	-4.27270E-004	2.65530E-005	-4.06613E-003	-5.08402E-003	2.28345E-004	2.88570E-004	-4.67957E-003	3.12832E-004
	213	213	4.99767E-002	-7.25386E-003	0.00000E+000	-3.62524E-004	-7.10753E-002	3.53478E-002	3.10058E+001	11	...........	5.89807E-002	-3.70556E-003	5.58437E-001	6.98305E-001	-3.13324E-002	-3.96779E-002	6.42729E-001	-4.27704E-002	-4.27838E-004	2.68796E-005	-4.05082E-003	-5.06541E-003	2.27281E-004	2.87818E-004	-4.66227E-003	3.10251E-004
	214	214	4.99770E-002	-7.22564E-003	0.00000E+000	-3.61116E-004	-7.07967E-002	3.54254E-002	3.02531E+001	11	...........	5.91112E-002	-3.72347E-003	5.58544E-001	6.98384E-001	-3.13593E-002	-3.96993E-002	6.42574E-001	-4.28021E-002	-4.27116E-004	2.69045E-005	-4.03583E-003	-5.04627E-003	2.26591E-004	2.86853E-004	-4.64300E-003	3.09272E-004
	215	215	4.99760E-002	-7.16457E-003	0.00000E+000	-3.58057E-004	-7.01900E-002	3.51076E-002	3.03375E+001	11	...........	5.85987E-002	-3.73347E-003	5.58472E-001	6.98320E-001	-3.13458E-002	-3.96928E-002	6.42648E-001	-4.28151E-002	-4.19835E-004	2.67487E-005	-4.00121E-003	-5.00316E-003	2.24579E-004	2.84382E-004	-4.60430E-003	3.06752E-004
	216	216	4.99758E-002	-7.13543E-003	0.00000E+000	-3.56599E-004	-6.98967E-002	3.54921E-002	3.02236E+001	11	...........	5.92204E-002	-3.68153E-003	5.58461E-001	6.98386E-001	-3.13428E-002	-3.96578E-002	6.42605E-001	-4.28896E-002	-4.22563E-004	2.62693E-005	-3.98486E-003	-4.98329E-003	2.23644E-004	2.82975E-004	-4.58526E-003	3.06036E-004
	217	217	4.99740E-002	-7.03213E-003	0.00000E+000	-3.51424E-004	-6.88687E-002	3.53138E-002	3.04367E+001	11	...........	5.89271E-002	-3.71111E-003	5.58595E-001	6.98321E-001	-3.13386E-002	-3.96787E-002	6.42625E-001	-4.28035E-002	-4.14383E-004	2.60970E-005	-3.92811E-003	-4.91068E-003	2.20377E-004	2.79026E-004	-4.51902E-003	3.00999E-004
	218	218	4.99726E-002	-6.95646E-003	0.00000E+000	-3.47632E-004	-6.81147E-002	3.54610E-002	3.07947E+001	11	...........	5.91801E-002	-3.72833E-003	5.58584E-001	6.98235E-001	-3.13392E-002	-3.96403E-002	6.42810E-001	-4.25886E-002	-4.11684E-004	2.59360E-005	-3.88577E-003	-4.85724E-003	2.18010E-004	2.75756E-004	-4.47168E-003	2.96266E-004
	219	219	4.99772E-002	-6.94280E-003	0.00000E+000	-3.46982E-004	-6.79773E-002	3.53449E-002	3.04454E+001	11	...........	5.89810E-002	-3.78222E-003	5.58444E-001	6.98159E-001	-3.12862E-002	-3.96118E-002	6.42743E-001	-4.26843E-002	-4.09493E-004	2.62592E-005	-3.87716E-003	-4.84718E-003	2.17214E-004	2.75017E-004	-4.46244E-003	2.96349E-004
	220	220	4.99761E-002	-6.86120E-003	0.00000E+000	-3.42896E-004	-6.71620E-002	3.54578E-002	3.01951E+001	11	...........	5.91650E-002	-3.77000E-003	5.58535E-001	6.98145E-001	-3.12932E-002	-3.95850E-002	6.42783E-001	-4.25754E-002	-4.05943E-004	2.58667E-005	-3.83222E-003	-4.79011E-003	2.14709E-004	2.71601E-004	-4.41026E-003	2.92118E-004
	221	221	4.99756E-002	-6.79760E-003	0.00000E+000	-3.39714E-004	-6.65307E-002	3.52160E-002	3.06708E+001	11	...........	5.87569E-002	-3.70069E-003	5.58545E-001	6.98089E-001	-3.12914E-002	-3.95935E-002	6.42703E-001	-4.26326E-002	-3.99406E-004	2.51558E-005	-3.79676E-003	-4.74533E-003	2.12706E-004	2.69141E-004	-4.36884E-003	2.89800E-004
	222	222	4.99762E-002	-6.74873E-003	0.00000E+000	-3.37276E-004	-6.60400E-002	3.54700E-002	3.08348E+001	11	...........	5.91965E-002	-3.64903E-003	5.58381E-001	6.98149E-001	-3.12889E-002	-3.95904E-002	6.42650E-001	-4.25800E-002	-3.99502E-004	2.46263E-005	-3.76836E-003	-4.71162E-003	2.11160E-004	2.67185E-004	-4.33707E-003	2.87361E-004
	223	223	4.99709E-002	-6.62926E-003	0.00000E+000	-3.31270E-004	-6.48500E-002	3.53360E-002	3.04743E+001	11	...........	5.89621E-002	-3.59333E-003	5.58339E-001	6.98232E-001	-3.12833E-002	-3.96062E-002	6.42646E-001	-4.25972E-002	-3.90875E-004	2.38211E-005	-3.70138E-003	-4.62876E-003	2.07385E-004	2.62560E-004	-4.26027E-003	2.82388E-004
	224	224	4.99767E-002	-6.44712E-003	0.00000E+000	-3.22206E-004	-6.30253E-002	3.52944E-002	2.96268E+001	11	...........	5.88911E-002	-3.56958E-003	5.58392E-001	6.98177E-001	-3.12624E-002	-3.96451E-002	6.42680E-001	-4.25881E-002	-3.79678E-004	2.30135E-005	-3.60002E-003	-4.50123E-003	2.01552E-004	2.55597E-004	-4.14343E-003	2.74570E-004
	225	225	4.99790E-002	-6.58596E-003	0.00000E+000	-3.29160E-004	-6.44233E-002	3.56012E-002	3.13032E+001	11	...........	5.94100E-002	-3.52667E-003	5.58383E-001	6.98143E-001	-3.12557E-002	-3.96635E-002	6.42652E-001	-4.26353E-002	-3.91272E-004	2.32265E-005	-3.67749E-003	-4.59794E-003	2.05849E-004	2.61222E-004	-4.23248E-003	2.80794E-004
	226	226	4.99728E-002	-6.53867E-003	0.00000E+000	-3.26755E-004	-6.39433E-002	3.54237E-002	3.01409E+001	11	...........	5.91185E-002	-3.57611E-003	5.58340E-001	6.98070E-001	-3.12683E-002	-3.96068E-002	6.42669E-001	-4.25528E-002	-3.86556E-004	2.33830E-005	-3.65080E-003	-4.56444E-003	2.04453E-004	2.58976E-004	-4.20219E-003	2.78238E-004
	227	227	4.99782E-002	-6.39776E-003	0.00000E+000	-3.19748E-004	-6.25367E-002	3.53066E-002	3.00780E+001	11	...........	5.89104E-002	-3.61361E-003	5.58106E-001	6.98091E-001	-3.12665E-002	-3.95875E-002	6.42625E-001	-4.25628E-002	-3.76895E-004	2.31190E-005	-3.57063E-003	-4.46622E-003	2.00036E-004	2.53271E-004	-4.11136E-003	2.72306E-004
	228	228	4.99759E-002	-6.44617E-003	0.00000E+000	-3.22153E-004	-6.30233E-002	3.55194E-002	3.06792E+001	11	...........	5.92712E-002	-3.57500E-003	5.58102E-001	6.98165E-001	-3.12321E-002	-3.95928E-002	6.42591E-001	-4.26282E-002	-3.82073E-004	2.30451E-005	-3.59762E-003	-4.50049E-003	2.01327E-004	2.55222E-004	-4.14226E-003	2.74789E-004
	229	229	4.99741E-002	-6.29621E-003	0.00000E+000	-3.14648E-004	-6.15233E-002	3.55028E-002	2.99297E+001	11	...........	5.92417E-002	-3.67083E-003	5.58305E-001	6.98095E-001	-3.12383E-002	-3.96243E-002	6.42572E-001	-4.27074E-002	-3.72998E-004	2.31123E-005	-3.51521E-003	-4.39536E-003	1.96683E-004	2.49483E-004	-4.04577E-003	2.68895E-004
	230	230	4.99765E-002	-6.30622E-003	0.00000E+000	-3.15163E-004	-6.16240E-002	3.53481E-002	3.04535E+001	11	...........	5.89682E-002	-3.59333E-003	5.58275E-001	6.98107E-001	-3.12093E-002	-3.95796E-002	6.42572E-001	-4.26274E-002	-3.71867E-004	2.26604E-005	-3.52061E-003	-4.40242E-003	1.96813E-004	2.49598E-004	-4.05220E-003	2.68818E-004
	231	231	4.99753E-002	-6.25611E-003	0.00000E+000	-3.12651E-004	-6.11187E-002	3.54389E-002	3.03611E+001	11	...........	5.91137E-002	-3.75333E-003	5.58231E-001	6.98156E-001	-3.12056E-002	-3.95897E-002	6.42585E-001	-4.27093E-002	-3.69822E-004	2.34813E-005	-3.49236E-003	-4.36774E-003	1.95225E-004	2.47678E-004	-4.02008E-003	2.67194E-004
	232	232	4.99768E-002	-6.18460E-003	0.00000E+000	-3.09086E-004	-6.04047E-002	3.53640E-002	3.07811E+001	11	...........	5.90414E-002	-3.77417E-003	5.58235E-001	6.98214E-001	-3.12200E-002	-3.95764E-002	6.42528E-001	-4.27278E-002	-3.65147E-004	2.33417E-005	-3.45246E-003	-4.31817E-003	1.93083E-004	2.44764E-004	-3.97378E-003	2.64254E-004
	233	233	4.99742E-002	-6.18341E-003	0.00000E+000	-3.09011E-004	-6.03967E-002	3.55687E-002	3.06407E+001	11	...........	5.93729E-002	-3.78931E-003	5.58284E-001	6.98329E-001	-3.12101E-002	-3.95796E-002	6.42527E-001	-4.26640E-002	-3.67127E-004	2.34308E-005	-3.45210E-003	-4.31806E-003	1.92985E-004	2.44737E-004	-3.97301E-003	2.63809E-004
	234	234	4.99769E-002	-6.10875E-003	0.00000E+000	-3.05297E-004	-5.96600E-002	3.53473E-002	3.06491E+001	11	...........	5.89654E-002	-3.75736E-003	5.58259E-001	6.98402E-001	-3.12236E-002	-3.95840E-002	6.42534E-001	-4.27460E-002	-3.60205E-004	2.29528E-005	-3.41027E-003	-4.26637E-003	1.90737E-004	2.41809E-004	-3.92508E-003	2.61125E-004
	235	235	4.99753E-002	-6.05254E-003	0.00000E+000	-3.02477E-004	-5.90973E-002	3.53774E-002	3.08277E+001	11	...........	5.90504E-002	-3.71125E-003	5.58234E-001	6.98296E-001	-3.12515E-002	-3.96172E-002	6.42717E-001	-4.27210E-002	-3.57405E-004	2.24625E-005	-3.37873E-003	-4.22647E-003	1.89151E-004	2.39785E-004	-3.89007E-003	2.58570E-004
	236	236	4.99750E-002	-6.05097E-003	0.00000E+000	-3.02397E-004	-5.90853E-002	3.55538E-002	3.05962E+001	11	...........	5.93108E-002	-3.75208E-003	5.58266E-001	6.98167E-001	-3.12249E-002	-3.96300E-002	6.42720E-001	-4.27085E-002	-3.58888E-004	2.27037E-005	-3.37805E-003	-4.22459E-003	1.88941E-004	2.39800E-004	-3.88908E-003	2.58428E-004
	237	237	4.99771E-002	-5.99792E-003	0.00000E+000	-2.99759E-004	-5.85547E-002	3.54910E-002	3.06246E+001	11	...........	5.92260E-002	-3.71292E-003	5.58149E-001	6.98215E-001	-3.11885E-002	-3.96068E-002	6.42574E-001	-4.27662E-002	-3.55233E-004	2.22698E-005	-3.34773E-003	-4.18784E-003	1.87066E-004	2.37559E-004	-3.85411E-003	2.56509E-004
	238	238	4.99764E-002	-5.95872E-003	0.00000E+000	-2.97795E-004	-5.81667E-002	3.53259E-002	3.07495E+001	11	...........	5.89756E-002	-3.74125E-003	5.57986E-001	6.98265E-001	-3.11775E-002	-3.96082E-002	6.42588E-001	-4.26792E-002	-3.51419E-004	2.22931E-005	-3.32488E-003	-4.16076E-003	1.85778E-004	2.36014E-004	-3.82900E-003	2.54313E-004
	239	239	4.99743E-002	-5.87527E-003	0.00000E+000	-2.93612E-004	-5.73400E-002	3.53801E-002	3.01619E+001	11	...........	5.90462E-002	-3.73153E-003	5.58094E-001	6.98366E-001	-3.11814E-002	-3.96308E-002	6.42450E-001	-4.25899E-002	-3.46913E-004	2.19237E-005	-3.27895E-003	-4.10309E-003	1.83199E-004	2.32842E-004	-3.77457E-003	2.50227E-004
	240	240	4.99755E-002	-5.87521E-003	0.00000E+000	-2.93617E-004	-5.73380E-002	3.55724E-002	3.08424E+001	11	...........	5.93550E-002	-3.72069E-003	5.58025E-001	6.98317E-001	-3.11572E-002	-3.96222E-002	6.42501E-001	-4.25953E-002	-3.48723E-004	2.18599E-005	-3.27851E-003	-4.10276E-003	1.83055E-004	2.32789E-004	-3.77483E-003	2.50256E-004
	241	241	4.99749E-002	-5.84330E-003	0.00000E+000	-2.92018E-004	-5.70213E-002	3.55107E-002	3.08031E+001	11	...........	5.92442E-002	-3.74958E-003	5.57858E-001	6.98310E-001	-3.11472E-002	-3.96594E-002	6.42484E-001	-4.25776E-002	-3.46182E-004	2.19099E-005	-3.25974E-003	-4.08043E-003	1.82003E-004	2.31742E-004	-3.75423E-003	2.48794E-004
	242	242	4.99756E-002	-5.80022E-003	0.00000E+000	-2.89870E-004	-5.65927E-002	3.55053E-002	3.02882E+001	11	...........	5.92532E-002	-3.72958E-003	5.57756E-001	6.98167E-001	-3.11619E-002	-3.96419E-002	6.42540E-001	-4.26908E-002	-3.43681E-004	2.16324E-005	-3.23511E-003	-4.04952E-003	1.80746E-004	2.29932E-004	-3.72687E-003	2.47616E-004
	243	243	4.99761E-002	-5.71046E-003	0.00000E+000	-2.85386E-004	-5.57093E-002	3.54188E-002	2.99619E+001	11	...........	5.91206E-002	-3.66236E-003	5.57764E-001	6.98121E-001	-3.11781E-002	-3.96506E-002	6.42536E-001	-4.28082E-002	-3.37605E-004	2.09138E-005	-3.18509E-003	-3.98659E-003	1.78041E-004	2.26423E-004	-3.66917E-003	2.44454E-004
	244	244	4.99760E-002	-5.69045E-003	0.00000E+000	-2.84386E-004	-5.55073E-002	3.54272E-002	3.09282E+001	11	...........	5.90968E-002	-3.65639E-003	5.57669E-001	6.98104E-001	-3.11692E-002	-3.96639E-002	6.42562E-001	-4.26258E-002	-3.36287E-004	2.08065E-005	-3.17339E-003	-3.97253E-003	1.77367E-004	2.25705E-004	-3.65647E-003	2.42560E-004
	245	245	4.99754E-002	-5.61834E-003	0.00000E+000	-2.80779E-004	-5.47873E-002	3.53804E-002	3.00622E+001	11	...........	5.92082E-002	-3.61028E-003	5.57590E-001	6.98051E-001	-3.11618E-002	-3.96578E-002	6.42719E-001	-4.28275E-002	-3.32652E-004	2.02838E-005	-3.13273E-003	-3.92189E-003	1.75078E-004	2.22811E-004	-3.61101E-003	2.40619E-004
	246	246	4.99756E-002	-5.57684E-003	0.00000E+000	-2.78706E-004	-5.43700E-002	3.55532E-002	3.04562E+001	11	...........	5.93294E-002	-3.46375E-003	5.57520E-001	6.98123E-001	-3.11615E-002	-3.96747E-002	6.42711E-001	-4.26912E-002	-3.30871E-004	1.93168E-005	-3.10920E-003	-3.89332E-003	1.73783E-004	2.21259E-004	-3.58429E-003	2.38082E-004
	247	247	4.99761E-002	-5.56545E-003	0.00000E+000	-2.78139E-004	-5.42593E-002	3.54735E-002	3.06047E+001	11	...........	5.92028E-002	-3.63681E-003	5.57566E-001	6.98360E-001	-3.11783E-002	-3.97075E-002	6.42675E-001	-4.26660E-002	-3.29490E-004	2.02405E-005	-3.10310E-003	-3.88669E-003	1.73521E-004	2.20990E-004	-3.57677E-003	2.37455E-004
	248	248	4.99755E-002	-5.53115E-003	0.00000E+000	-2.76422E-004	-5.39160E-002	3.55443E-002	3.06734E+001	11	...........	5.93010E-002	-3.69389E-003	5.57549E-001	6.98397E-001	-3.11610E-002	-3.97212E-002	6.42618E-001	-4.26356E-002	-3.28003E-004	2.04315E-005	-3.08389E-003	-3.86294E-003	1.72356E-004	2.19704E-004	-3.55442E-003	2.35824E-004
	249	249	4.99753E-002	-5.49218E-003	0.00000E+000	-2.74473E-004	-5.35313E-002	3.55442E-002	3.07814E+001	11	...........	5.93081E-002	-3.70792E-003	5.57624E-001	6.98423E-001	-3.11771E-002	-3.97032E-002	6.42583E-001	-4.26540E-002	-3.25730E-004	2.03645E-005	-3.06257E-003	-3.83586E-003	1.71230E-004	2.18057E-004	-3.52918E-003	2.34263E-004
	250	250	4.99763E-002	-5.44348E-003	0.00000E+000	-2.72045E-004	-5.30513E-002	3.55381E-002	3.03492E+001	11	...........	5.93032E-002	-3.71389E-003	5.57555E-001	6.98441E-001	-3.11568E-002	-3.96587E-002	6.42688E-001	-4.26319E-002	-3.22816E-004	2.02165E-005	-3.03504E-003	-3.80195E-003	1.69602E-004	2.15882E-004	-3.49846E-003	2.32066E-004
	251	251	4.99765E-002	-5.39446E-003	0.00000E+000	-2.69596E-004	-5.25633E-002	3.53954E-002	3.05881E+001	11	...........	5.90754E-002	-3.75875E-003	5.57653E-001	6.98369E-001	-3.11779E-002	-3.96089E-002	6.42709E-001	-4.26201E-002	-3.18680E-004	2.02764E-005	-3.00824E-003	-3.76732E-003	1.68188E-004	2.13669E-004	-3.46707E-003	2.29913E-004
	252	252	4.99754E-002	-5.39878E-003	0.00000E+000	-2.69806E-004	-5.26067E-002	3.55964E-002	3.09721E+001	11	...........	5.94132E-002	-3.78319E-003	5.57646E-001	6.98319E-001	-3.11965E-002	-3.96435E-002	6.42766E-001	-4.27510E-002	-3.20759E-004	2.04246E-005	-3.01061E-003	-3.77007E-003	1.68423E-004	2.14026E-004	-3.47015E-003	2.30803E-004
	253	253	4.99764E-002	-5.34896E-003	0.00000E+000	-2.67322E-004	-5.21133E-002	3.56314E-002	3.05694E+001	11	...........	5.94428E-002	-3.77792E-003	5.57756E-001	6.98146E-001	-3.12137E-002	-3.96382E-002	6.42681E-001	-4.29272E-002	-3.17957E-004	2.02079E-005	-2.98341E-003	-3.73436E-003	1.66961E-004	2.12023E-004	-3.43767E-003	2.29616E-004
	254	254	4.99753E-002	-5.26741E-003	0.00000E+000	-2.63241E-004	-5.13067E-002	3.53649E-002	3.01082E+001	11	...........	5.90436E-002	-3.74542E-003	5.57623E-001	6.98042E-001	-3.12083E-002	-3.96471E-002	6.42575E-001	-4.26690E-002	-3.11007E-004	1.97286E-005	-2.93723E-003	-3.67687E-003	1.64387E-004	2.08837E-004	-3.38471E-003	2.24755E-004
	255	255	4.99765E-002	-5.24639E-003	0.00000E+000	-2.62196E-004	-5.10993E-002	3.55903E-002	3.09487E+001	11	...........	5.93786E-002	-3.73000E-003	5.57673E-001	6.97969E-001	-3.11962E-002	-3.96885E-002	6.42584E-001	-4.27187E-002	-3.11523E-004	1.95690E-005	-2.92577E-003	-3.66181E-003	1.63668E-004	2.08221E-004	-3.37125E-003	2.24119E-004
	256	256	4.99757E-002	-5.25115E-003	0.00000E+000	-2.62430E-004	-5.11447E-002	3.55738E-002	3.08704E+001	11	...........	5.93625E-002	-3.70361E-003	5.57674E-001	6.97906E-001	-3.11776E-002	-3.96978E-002	6.42532E-001	-4.26199E-002	-3.11721E-004	1.94482E-005	-2.92843E-003	-3.66481E-003	1.63718E-004	2.08459E-004	-3.37403E-003	2.23803E-004
	257	257	4.99743E-002	-5.21224E-003	0.00000E+000	-2.60478E-004	-5.07693E-002	3.56331E-002	3.05475E+001	11	...........	5.94492E-002	-3.66250E-003	5.57751E-001	6.97990E-001	-3.12033E-002	-3.96587E-002	6.42566E-001	-4.25537E-002	-3.09863E-004	1.90898E-005	-2.90713E-003	-3.63809E-003	1.62639E-004	2.06711E-004	-3.34921E-003	2.21800E-004
	258	258	4.99762E-002	-5.09192E-003	0.00000E+000	-2.54475E-004	-4.95800E-002	3.53670E-002	2.86978E+001	11	...........	5.90203E-002	-3.69486E-003	5.57795E-001	6.98125E-001	-3.12068E-002	-3.96551E-002	6.42814E-001	-4.26282E-002	-3.00526E-004	1.88139E-005	-2.84025E-003	-3.55479E-003	1.58903E-004	2.01921E-004	-3.27316E-003	2.17059E-004
	259	258.082	4.99607E-002	-5.05584E-003	0.00000E+000	-2.52594E-004	-4.92204E-002	3.52990E-002	3.09792E+001	11	...........	5.89439E-002	-3.65476E-003	5.57895E-001	6.98095E-001	-3.12636E-002	-3.96786E-002	6.42952E-001	-4.26990E-002	-2.98011E-004	1.84779E-005	-2.82063E-003	-3.52946E-003	1.58064E-004	2.00609E-004	-3.25067E-003	2.15879E-004
STARTTIMEOFFSET	QUANT	401424.7	Start Time Offset (s)
