EXPLAIN
TAG	PWR800_DISCHARGE
TITLE	LABEL	PWR Discharge	Test Identifier
DATE	LABEL	10/14/2022	Date
TIME	LABEL	6:08:34	Time
NOTES	NOTES	1	Notes...
	
PSTAT	PSTAT	REF3000-21114	Potentiostat
CAPACITY	QUANT	5.30000E-002	Capacity (A-hr)
CELLTYPE	SELECTOR	1	Cell Type
WORKINGCONNECTION	SELECTOR	0	Working Connection
MAXDISCHARGETIME	VARIABLEANDUNITS	7.20000E+003	s	2.00000E+000	hour(s)	Max Discharge Time
DISCHARGEMODE	MULTIPARAM	0	1.00000E-001	Discharge Mode	Constant Current	Amp(s)
VOLTAGEFINISH	TWOPARAM	T	5.00000E-003	7.20000E+003	Voltage Finish	I (A) <	Max Time(s)
SAMPLETIME	QUANT	1.00000E+000	Sample Period (s)
DISCHARGESTOPAT1	MULTIPARAM	1	5.00000E-002	Stop At 1	|Voltage| < Limit	V
DISCHARGESTOPAT2	MULTIPARAM	0	0.00000E+000	Stop At 2	None	N/A
AESELECTOR	AESELECTOR	0x1	T	Set Limits	AE Channels
AESBHCSELECTOR	TOGGLE	F	Save Both Half Cells
IRCOMP	TOGGLE	F	IR Measure
EOC	QUANT	0.5734769	Open Circuit (V)
SEQUENCER	TOGGLE	TRUE	Run as Sequence
PSTATMODEL	IQUANT	5	Pstat Model
PSTATSECTION	LABEL	REF3000-21114	Pstat Section
PSTATSERIALNO	LABEL	21114	Pstat Serial Number
CTRLMODE	IQUANT	0	Control Mode
ELECTROMETER	IQUANT	0	RE=0 or CS=1
IESTAB	IQUANT	0	I/E Stability
CASPEED	IQUANT	4	Control Amp Speed
CONVENTION	IQUANT	1	Current Convention
ICHRANGE	IQUANT	2	Ich Range
ICHRANGEMODE	TOGGLE	T	Ich Auto Range
ICHOFFSETENABLE	TOGGLE	F	Ich Offset Enable
ICHOFFSET	QUANT	0	Ich Offset (V)
ICHFILTER	IQUANT	1	Ich Filter
VCHRANGE	IQUANT	3	Vch Range
VCHRANGEMODE	TOGGLE	T	Vch Auto Range
VCHOFFSETENABLE	TOGGLE	F	Vch Offset Enable
VCHOFFSET	QUANT	0	Vch Offset (V)
VCHFILTER	IQUANT	1	Vch Filter
ACHRANGE	IQUANT	2	Ach Range
ACHOFFSETENABLE	TOGGLE	F	Ach Offset Enable
ACHOFFSET	QUANT	0	Ach Offset (V)
ACHFILTER	IQUANT	1	Ach Filter
IERANGELOWERLIMIT	IQUANT	9	I/E Range Lower Limit
IERANGEMODE	TOGGLE	F	I/E AutoRange
IERANGE	IQUANT	9	I/E Range
POSFEEDENABLE	TOGGLE	F	Positive Feedback IR Comp
POSFEEDRESISTANCE	QUANT	0	Positive Feedback Resistance (ohm)
ACHSELECT	IQUANT	1	Ach Select
SENSECABLEID	IQUANT	13	Sense Cable ID
PWRCABLEID	IQUANT	13	Power Cable ID
DCCALDATE	LABEL		DC Calibration Date
ACCALDATE	LABEL		AC Calibration Date
THERMOSELECT	IQUANT	1	Thermo Select
FRAMEWORKVERSION	LABEL	7.8.6	Framework Version
INSTRUMENTVERSION	LABEL	4.50	Instrument Version
COMPLIANCEVOLTAGE	IQUANT	0	Compliance Voltage
CURVE	TABLE	252
	Pt	T	Vf	Im	Vu	Pwr	Sig	Ach	Temp	IERange	Over	Vf1	Vf2	Vf3	Vf4	Vf5	Vf6	Vf7	Vf8	Pwr1	Pwr2	Pwr3	Pwr4	Pwr5	Pwr6	Pwr7	Pwr8
	#	s	V	A	V	W	V	V	deg C	#	bits	V	V	V	V	V	V	V	V	W	W	W	W	W	W	W	W
	0	1	3.48858E-001	-1.00081E-001	0.00000E+000	-3.49142E-002	-9.94000E-001	3.70087E-002	3.14667E+001	11	...........	6.15054E-002	-5.20139E-003	6.07180E-001	5.41578E-001	-2.68707E-002	-3.78797E-002	7.06438E-001	-4.36044E-002	-6.15555E-003	5.20562E-004	-6.07674E-002	-5.42019E-002	2.68926E-003	3.79105E-003	-7.07013E-002	4.36399E-003
	1	2	2.63435E-001	-1.00082E-001	0.00000E+000	-2.63651E-002	-9.94000E-001	3.70326E-002	3.06158E+001	11	...........	6.15460E-002	-5.25639E-003	6.07302E-001	5.41528E-001	-2.68757E-002	-3.78806E-002	7.06585E-001	-4.36158E-002	-6.15962E-003	5.26068E-004	-6.07798E-002	-5.41971E-002	2.68976E-003	3.79115E-003	-7.07162E-002	4.36515E-003
	2	3	2.00543E-001	-1.00082E-001	0.00000E+000	-2.00708E-002	-9.94000E-001	3.69100E-002	2.92035E+001	11	...........	6.13618E-002	-5.20944E-003	6.07461E-001	5.41610E-001	-2.68492E-002	-3.79043E-002	7.06551E-001	-4.36764E-002	-6.14121E-003	5.21371E-004	-6.07959E-002	-5.42054E-002	2.68712E-003	3.79354E-003	-7.07131E-002	4.37122E-003
	3	4	1.51722E-001	-1.00082E-001	0.00000E+000	-1.51847E-002	-9.94000E-001	3.69914E-002	2.93863E+001	11	...........	6.14937E-002	-5.25083E-003	6.07609E-001	5.41546E-001	-2.68328E-002	-3.79199E-002	7.06521E-001	-4.36792E-002	-6.15442E-003	5.25514E-004	-6.08107E-002	-5.41989E-002	2.68548E-003	3.79509E-003	-7.07100E-002	4.37150E-003
	4	5	1.12965E-001	-1.00082E-001	0.00000E+000	-1.13058E-002	-9.94000E-001	3.68927E-002	2.85155E+001	11	...........	6.13225E-002	-5.33819E-003	6.07529E-001	5.41479E-001	-2.68203E-002	-3.79331E-002	7.06546E-001	-4.37929E-002	-6.13728E-003	5.34258E-004	-6.08027E-002	-5.41924E-002	2.68423E-003	3.79642E-003	-7.07126E-002	4.38289E-003
	5	6	8.28699E-002	-1.00082E-001	0.00000E+000	-8.29382E-003	-9.94000E-001	3.69915E-002	2.86568E+001	11	...........	6.15062E-002	-5.38889E-003	6.07383E-001	5.41498E-001	-2.67840E-002	-3.79354E-002	7.06567E-001	-4.37206E-002	-6.15570E-003	5.39333E-004	-6.07884E-002	-5.41944E-002	2.68061E-003	3.79667E-003	-7.07150E-002	4.37566E-003
	6	6.975	5.97660E-002	-1.00082E-001	0.00000E+000	-5.98153E-003	-9.94000E-001	3.69591E-002	2.85430E+001	11	...........	6.14271E-002	-5.33476E-003	6.07465E-001	5.41545E-001	-2.67917E-002	-3.79426E-002	7.06456E-001	-4.37340E-002	-6.14777E-003	5.33916E-004	-6.07966E-002	-5.41991E-002	2.68138E-003	3.79739E-003	-7.07039E-002	4.37701E-003
	7	7	5.13132E-002	-9.80947E-002	0.00000E+000	-5.03355E-003	-9.74240E-001	3.70200E-002	2.85860E+001	11	...........	6.16056E-002	-5.28889E-003	6.07617E-001	5.41556E-001	-2.70389E-002	-3.78167E-002	7.06461E-001	-4.36167E-002	-6.04318E-003	5.18812E-004	-5.96040E-002	-5.31237E-002	2.65237E-003	3.70962E-003	-6.93001E-002	4.27856E-003
	8	8	4.97993E-002	-9.29655E-002	0.00000E+000	-4.62962E-003	-9.23230E-001	3.71141E-002	2.85084E+001	11	...........	6.16932E-002	-5.24736E-003	6.07512E-001	5.41534E-001	-2.67792E-002	-3.79506E-002	7.06551E-001	-4.36900E-002	-5.73534E-003	4.87824E-004	-5.64777E-002	-5.03440E-002	2.48954E-003	3.52809E-003	-6.56849E-002	4.06166E-003
	9	9	4.98925E-002	-8.47074E-002	0.00000E+000	-4.22627E-003	-8.41116E-001	3.71761E-002	2.87026E+001	11	...........	6.17832E-002	-5.26486E-003	6.07524E-001	5.41412E-001	-2.67964E-002	-3.79457E-002	7.06567E-001	-4.37825E-002	-5.23349E-003	4.45973E-004	-5.14618E-002	-4.58616E-002	2.26985E-003	3.21428E-003	-5.98515E-002	3.70870E-003
	10	10	4.99338E-002	-8.11210E-002	0.00000E+000	-4.05068E-003	-8.05483E-001	3.73754E-002	2.93159E+001	11	...........	6.21262E-002	-5.39708E-003	6.07413E-001	5.41406E-001	-2.68183E-002	-3.79501E-002	7.06456E-001	-4.37863E-002	-5.03974E-003	4.37817E-004	-4.92740E-002	-4.39194E-002	2.17553E-003	3.07855E-003	-5.73084E-002	3.55198E-003
	11	11	4.99406E-002	-7.79125E-002	0.00000E+000	-3.89100E-003	-7.73572E-001	3.74592E-002	2.95811E+001	11	...........	6.22444E-002	-5.32417E-003	6.07365E-001	5.41516E-001	-2.68206E-002	-3.78949E-002	7.06369E-001	-4.37397E-002	-4.84962E-003	4.14819E-004	-4.73214E-002	-4.21909E-002	2.08966E-003	2.95248E-003	-5.50350E-002	3.40787E-003
	12	12	4.99369E-002	-7.56899E-002	0.00000E+000	-3.77972E-003	-7.51468E-001	3.75546E-002	2.92070E+001	11	...........	6.24322E-002	-5.26319E-003	6.07302E-001	5.41506E-001	-2.68197E-002	-3.78951E-002	7.06465E-001	-4.38519E-002	-4.72549E-003	3.98371E-004	-4.59666E-002	-4.09865E-002	2.02998E-003	2.86828E-003	-5.34722E-002	3.31915E-003
	13	13	4.99584E-002	-7.28660E-002	0.00000E+000	-3.64027E-003	-7.23385E-001	3.76335E-002	2.92816E+001	11	...........	6.25560E-002	-5.21611E-003	6.07358E-001	5.41483E-001	-2.67951E-002	-3.79003E-002	7.06507E-001	-4.38224E-002	-4.55820E-003	3.80077E-004	-4.42558E-002	-3.94557E-002	1.95245E-003	2.76164E-003	-5.14803E-002	3.19316E-003
	14	14	4.99560E-002	-7.12085E-002	0.00000E+000	-3.55729E-003	-7.06933E-001	3.76174E-002	2.95039E+001	11	...........	6.25254E-002	-5.26458E-003	6.07346E-001	5.41474E-001	-2.68074E-002	-3.78858E-002	7.06371E-001	-4.37957E-002	-4.45234E-003	3.74883E-004	-4.32482E-002	-3.85576E-002	1.90891E-003	2.69779E-003	-5.02996E-002	3.11863E-003
	15	15	4.99564E-002	-7.07319E-002	0.00000E+000	-3.53351E-003	-7.02196E-001	3.78065E-002	2.99988E+001	11	...........	6.28300E-002	-5.34694E-003	6.07271E-001	5.41457E-001	-2.68369E-002	-3.78454E-002	7.06413E-001	-4.37994E-002	-4.44408E-003	3.78199E-004	-4.29534E-002	-3.82983E-002	1.89823E-003	2.67688E-003	-4.99659E-002	3.09802E-003
	16	16	4.99571E-002	-6.99169E-002	0.00000E+000	-3.49285E-003	-6.94093E-001	3.79072E-002	3.02497E+001	11	...........	6.29819E-002	-5.28236E-003	6.07258E-001	5.41339E-001	-2.68640E-002	-3.78774E-002	7.06466E-001	-4.38375E-002	-4.40350E-003	3.69326E-004	-4.24576E-002	-3.78487E-002	1.87825E-003	2.64827E-003	-4.93939E-002	3.06498E-003
	17	17	4.99431E-002	-6.86068E-002	0.00000E+000	-3.42643E-003	-6.81068E-001	3.79272E-002	2.95726E+001	11	...........	6.30212E-002	-5.30625E-003	6.07243E-001	5.41410E-001	-2.68749E-002	-3.79017E-002	7.06460E-001	-4.37746E-002	-4.32369E-003	3.64045E-004	-4.16610E-002	-3.71444E-002	1.84380E-003	2.60031E-003	-4.84680E-002	3.00323E-003
	18	18	4.99748E-002	-6.74760E-002	0.00000E+000	-3.37210E-003	-6.69818E-001	3.80469E-002	3.01586E+001	11	...........	6.32282E-002	-5.23139E-003	6.07326E-001	5.41351E-001	-2.68840E-002	-3.78875E-002	7.06503E-001	-4.36822E-002	-4.26638E-003	3.52993E-004	-4.09799E-002	-3.65282E-002	1.81403E-003	2.55650E-003	-4.76720E-002	2.94750E-003
	19	19	4.99541E-002	-6.62856E-002	0.00000E+000	-3.31124E-003	-6.57980E-001	3.79668E-002	2.97778E+001	11	...........	6.31029E-002	-5.28069E-003	6.07306E-001	5.41270E-001	-2.68972E-002	-3.78674E-002	7.06591E-001	-4.37219E-002	-4.18281E-003	3.50034E-004	-4.02557E-002	-3.58784E-002	1.78290E-003	2.51006E-003	-4.68368E-002	2.89813E-003
	20	20	4.99693E-002	-6.58145E-002	0.00000E+000	-3.28871E-003	-6.53279E-001	3.80877E-002	3.02928E+001	11	...........	6.34637E-002	-5.27264E-003	6.07322E-001	5.41205E-001	-2.69167E-002	-3.78900E-002	7.06735E-001	-4.36757E-002	-4.17684E-003	3.47016E-004	-3.99706E-002	-3.56192E-002	1.77151E-003	2.49371E-003	-4.65134E-002	2.87450E-003
	21	21	4.99664E-002	-6.55847E-002	0.00000E+000	-3.27703E-003	-6.51004E-001	3.80901E-002	3.00026E+001	11	...........	6.35447E-002	-5.28681E-003	6.07296E-001	5.41112E-001	-2.68996E-002	-3.78979E-002	7.06673E-001	-4.36661E-002	-4.16756E-003	3.46734E-004	-3.98293E-002	-3.54887E-002	1.76420E-003	2.48552E-003	-4.63469E-002	2.86383E-003
	22	22	4.99565E-002	-6.42850E-002	0.00000E+000	-3.21145E-003	-6.38083E-001	3.81247E-002	3.03190E+001	11	...........	6.36118E-002	-5.37431E-003	6.07224E-001	5.41269E-001	-2.69056E-002	-3.78726E-002	7.06593E-001	-4.37306E-002	-4.08929E-003	3.45487E-004	-3.90354E-002	-3.47955E-002	1.72962E-003	2.43464E-003	-4.54234E-002	2.81122E-003
	23	23	4.99641E-002	-6.35263E-002	0.00000E+000	-3.17403E-003	-6.30533E-001	3.81652E-002	3.00315E+001	11	...........	6.36800E-002	-5.33097E-003	6.07202E-001	5.41196E-001	-2.69089E-002	-3.78662E-002	7.06525E-001	-4.36086E-002	-4.04535E-003	3.38657E-004	-3.85733E-002	-3.43801E-002	1.70942E-003	2.40550E-003	-4.48829E-002	2.77029E-003
	24	24	4.99641E-002	-6.22856E-002	0.00000E+000	-3.11204E-003	-6.18206E-001	3.81085E-002	2.98181E+001	11	...........	6.35708E-002	-5.31611E-003	6.07239E-001	5.41268E-001	-2.68831E-002	-3.78487E-002	7.06521E-001	-4.36307E-002	-3.95955E-003	3.31117E-004	-3.78222E-002	-3.37132E-002	1.67443E-003	2.35743E-003	-4.40061E-002	2.71756E-003
	25	25	4.99675E-002	-6.26112E-002	0.00000E+000	-3.12852E-003	-6.21436E-001	3.83663E-002	3.06656E+001	11	...........	6.40029E-002	-5.30347E-003	6.07331E-001	5.41200E-001	-2.68878E-002	-3.78644E-002	7.06575E-001	-4.36811E-002	-4.00730E-003	3.32057E-004	-3.80257E-002	-3.38851E-002	1.68348E-003	2.37074E-003	-4.42395E-002	2.73493E-003
	26	26	4.99667E-002	-6.22070E-002	0.00000E+000	-3.10828E-003	-6.17413E-001	3.83662E-002	3.06194E+001	11	...........	6.40218E-002	-5.35014E-003	6.07214E-001	5.41151E-001	-2.68854E-002	-3.78821E-002	7.06518E-001	-4.38462E-002	-3.98261E-003	3.32816E-004	-3.77730E-002	-3.36634E-002	1.67246E-003	2.35653E-003	-4.39504E-002	2.72755E-003
	27	27	4.99610E-002	-6.09589E-002	0.00000E+000	-3.04557E-003	-6.05012E-001	3.83127E-002	3.02341E+001	11	...........	6.39337E-002	-5.22194E-003	6.07091E-001	5.41128E-001	-2.68790E-002	-3.78760E-002	7.06541E-001	-4.38729E-002	-3.89733E-003	3.18324E-004	-3.70076E-002	-3.29866E-002	1.63852E-003	2.30888E-003	-4.30700E-002	2.67444E-003
	28	28	4.99614E-002	-6.08120E-002	0.00000E+000	-3.03825E-003	-6.03549E-001	3.85528E-002	3.06821E+001	11	...........	6.43331E-002	-5.23375E-003	6.07150E-001	5.41215E-001	-2.68794E-002	-3.78594E-002	7.06765E-001	-4.36990E-002	-3.91222E-003	3.18275E-004	-3.69220E-002	-3.29123E-002	1.63459E-003	2.30231E-003	-4.29798E-002	2.65742E-003
	29	29	4.99663E-002	-5.95472E-002	0.00000E+000	-2.97535E-003	-5.90981E-001	3.84468E-002	3.04443E+001	11	...........	6.41558E-002	-5.21750E-003	6.07132E-001	5.41227E-001	-2.68804E-002	-3.78386E-002	7.06678E-001	-4.36492E-002	-3.82030E-003	3.10687E-004	-3.61530E-002	-3.22285E-002	1.60065E-003	2.25318E-003	-4.20807E-002	2.59918E-003
	30	30	4.99599E-002	-5.88767E-002	0.00000E+000	-2.94148E-003	-5.84312E-001	3.84971E-002	3.06208E+001	11	...........	6.42312E-002	-5.29903E-003	6.07045E-001	5.41145E-001	-2.68728E-002	-3.78399E-002	7.06603E-001	-4.37250E-002	-3.78173E-003	3.11989E-004	-3.57408E-002	-3.18609E-002	1.58218E-003	2.22789E-003	-4.16025E-002	2.57438E-003
	31	31	4.99733E-002	-5.90801E-002	0.00000E+000	-2.95242E-003	-5.86344E-001	3.86841E-002	3.05814E+001	11	...........	6.45581E-002	-5.28361E-003	6.06912E-001	5.41221E-001	-2.68760E-002	-3.78556E-002	7.06637E-001	-4.37524E-002	-3.81409E-003	3.12156E-004	-3.58564E-002	-3.19753E-002	1.58783E-003	2.23651E-003	-4.17481E-002	2.58489E-003
	32	32	4.99635E-002	-5.81792E-002	0.00000E+000	-2.90684E-003	-5.77375E-001	3.85943E-002	3.07433E+001	11	...........	6.44090E-002	-5.32542E-003	6.06896E-001	5.41282E-001	-2.68644E-002	-3.78389E-002	7.06733E-001	-4.38221E-002	-3.74727E-003	3.09829E-004	-3.53087E-002	-3.14914E-002	1.56295E-003	2.20144E-003	-4.11172E-002	2.54954E-003
	33	33	4.99602E-002	-5.79113E-002	0.00000E+000	-2.89326E-003	-5.74711E-001	3.88081E-002	3.09274E+001	11	...........	6.47508E-002	-5.39944E-003	6.06930E-001	5.41270E-001	-2.68860E-002	-3.78457E-002	7.06762E-001	-4.38386E-002	-3.74981E-003	3.12689E-004	-3.51481E-002	-3.13457E-002	1.55700E-003	2.19169E-003	-4.09295E-002	2.53875E-003
	34	34	4.99651E-002	-5.67206E-002	0.00000E+000	-2.83405E-003	-5.62869E-001	3.87372E-002	3.06023E+001	11	...........	6.46460E-002	-5.39486E-003	6.06865E-001	5.41168E-001	-2.68931E-002	-3.78261E-002	7.06779E-001	-4.37843E-002	-3.66676E-003	3.06000E-004	-3.44218E-002	-3.06954E-002	1.52539E-003	2.14552E-003	-4.00889E-002	2.48347E-003
	35	35	4.99662E-002	-5.61967E-002	0.00000E+000	-2.80794E-003	-5.57653E-001	3.87908E-002	3.07637E+001	11	...........	6.47092E-002	-5.31500E-003	6.06939E-001	5.41215E-001	-2.69256E-002	-3.78347E-002	7.06846E-001	-4.37604E-002	-3.63644E-003	2.98685E-004	-3.41080E-002	-3.04145E-002	1.51313E-003	2.12619E-003	-3.97224E-002	2.45919E-003
	36	36	4.99683E-002	-5.59792E-002	0.00000E+000	-2.79718E-003	-5.55494E-001	3.88712E-002	3.09123E+001	11	...........	6.48482E-002	-5.33806E-003	6.07006E-001	5.41256E-001	-2.69290E-002	-3.78408E-002	7.06743E-001	-4.37526E-002	-3.63015E-003	2.98820E-004	-3.39797E-002	-3.02990E-002	1.50746E-003	2.11830E-003	-3.95629E-002	2.44924E-003
	37	37	4.99596E-002	-5.57931E-002	0.00000E+000	-2.78740E-003	-5.53633E-001	3.89737E-002	3.11470E+001	11	...........	6.50199E-002	-5.27694E-003	6.07086E-001	5.41327E-001	-2.69351E-002	-3.78486E-002	7.06738E-001	-4.38457E-002	-3.62766E-003	2.94417E-004	-3.38712E-002	-3.02023E-002	1.50279E-003	2.11169E-003	-3.94311E-002	2.44629E-003
	38	38	4.99698E-002	-5.51586E-002	0.00000E+000	-2.75626E-003	-5.47334E-001	3.89254E-002	3.12534E+001	11	...........	6.49404E-002	-5.33986E-003	6.07047E-001	5.41259E-001	-2.69639E-002	-3.78389E-002	7.06806E-001	-4.38819E-002	-3.58202E-003	2.94539E-004	-3.34839E-002	-2.98551E-002	1.48729E-003	2.08714E-003	-3.89864E-002	2.42047E-003
	39	39	4.99546E-002	-5.44322E-002	0.00000E+000	-2.71914E-003	-5.40105E-001	3.89999E-002	3.12027E+001	11	...........	6.50753E-002	-5.32083E-003	6.07002E-001	5.41151E-001	-2.69710E-002	-3.78578E-002	7.06807E-001	-4.38621E-002	-3.54219E-003	2.89624E-004	-3.30404E-002	-2.94560E-002	1.46809E-003	2.06068E-003	-3.84731E-002	2.38751E-003
	40	40	4.99584E-002	-5.34801E-002	0.00000E+000	-2.67178E-003	-5.30643E-001	3.89794E-002	3.03726E+001	11	...........	6.50403E-002	-5.34250E-003	6.07074E-001	5.41216E-001	-2.69972E-002	-3.78268E-002	7.06696E-001	-4.37833E-002	-3.47836E-003	2.85718E-004	-3.24664E-002	-2.89443E-002	1.44382E-003	2.02298E-003	-3.77942E-002	2.34154E-003
	41	41	4.99866E-002	-5.30234E-002	0.00000E+000	-2.65046E-003	-5.26095E-001	3.91010E-002	3.12202E+001	11	...........	6.52575E-002	-5.44542E-003	6.07213E-001	5.41288E-001	-2.70078E-002	-3.78253E-002	7.06799E-001	-4.37242E-002	-3.46018E-003	2.88735E-004	-3.21965E-002	-2.87010E-002	1.43205E-003	2.00563E-003	-3.74769E-002	2.31841E-003
	42	42	4.99580E-002	-5.31070E-002	0.00000E+000	-2.65312E-003	-5.26922E-001	3.91313E-002	3.15299E+001	11	...........	6.52942E-002	-5.30208E-003	6.07222E-001	5.41240E-001	-2.70032E-002	-3.78294E-002	7.06829E-001	-4.37815E-002	-3.46758E-003	2.81578E-004	-3.22477E-002	-2.87436E-002	1.43406E-003	2.00901E-003	-3.75376E-002	2.32511E-003
	43	43	4.99628E-002	-5.22244E-002	0.00000E+000	-2.60928E-003	-5.18162E-001	3.90962E-002	3.07713E+001	11	...........	6.52407E-002	-5.36778E-003	6.07149E-001	5.41143E-001	-2.69968E-002	-3.78432E-002	7.06834E-001	-4.37268E-002	-3.40716E-003	2.80329E-004	-3.17080E-002	-2.82609E-002	1.40989E-003	1.97634E-003	-3.69140E-002	2.28361E-003
	44	44	4.99709E-002	-5.19470E-002	0.00000E+000	-2.59584E-003	-5.15396E-001	3.92450E-002	3.14585E+001	11	...........	6.54910E-002	-5.27681E-003	6.07229E-001	5.41027E-001	-2.70232E-002	-3.78612E-002	7.06880E-001	-4.37603E-002	-3.40206E-003	2.74114E-004	-3.15437E-002	-2.81047E-002	1.40377E-003	1.96678E-003	-3.67203E-002	2.27322E-003
	45	45	4.99521E-002	-5.10594E-002	0.00000E+000	-2.55053E-003	-5.06598E-001	3.91556E-002	3.09136E+001	11	...........	6.53381E-002	-5.35236E-003	6.07285E-001	5.41070E-001	-2.70347E-002	-3.78769E-002	7.06857E-001	-4.35594E-002	-3.33612E-003	2.73289E-004	-3.10077E-002	-2.76268E-002	1.38038E-003	1.93398E-003	-3.60917E-002	2.22412E-003
	46	46	4.99802E-002	-5.07598E-002	0.00000E+000	-2.53698E-003	-5.03612E-001	3.92710E-002	3.10645E+001	11	...........	6.55178E-002	-5.32222E-003	6.07229E-001	5.41021E-001	-2.70332E-002	-3.78865E-002	7.06872E-001	-4.36600E-002	-3.32567E-003	2.70155E-004	-3.08228E-002	-2.74621E-002	1.37220E-003	1.92311E-003	-3.58806E-002	2.21617E-003
	47	47	4.99700E-002	-5.06581E-002	0.00000E+000	-2.53139E-003	-5.02606E-001	3.92831E-002	3.15618E+001	11	...........	6.55581E-002	-5.33750E-003	6.07317E-001	5.41190E-001	-2.70206E-002	-3.79040E-002	7.06831E-001	-4.37665E-002	-3.32105E-003	2.70388E-004	-3.07655E-002	-2.74157E-002	1.36881E-003	1.92015E-003	-3.58067E-002	2.21713E-003
	48	48	4.99604E-002	-5.01727E-002	0.00000E+000	-2.50665E-003	-4.97784E-001	3.93522E-002	3.16436E+001	11	...........	6.56576E-002	-5.31958E-003	6.07437E-001	5.41149E-001	-2.69882E-002	-3.78993E-002	7.06796E-001	-4.38422E-002	-3.29422E-003	2.66898E-004	-3.04768E-002	-2.71509E-002	1.35407E-003	1.90151E-003	-3.54619E-002	2.19968E-003
	49	49	4.99646E-002	-4.96703E-002	0.00000E+000	-2.48175E-003	-4.92781E-001	3.91812E-002	3.16512E+001	11	...........	6.57135E-002	-5.23514E-003	6.07395E-001	5.41115E-001	-2.69710E-002	-3.78953E-002	7.07003E-001	-4.38065E-002	-3.26401E-003	2.60031E-004	-3.01695E-002	-2.68773E-002	1.33966E-003	1.88227E-003	-3.51170E-002	2.17588E-003
	50	50	4.99503E-002	-4.86127E-002	0.00000E+000	-2.42822E-003	-4.82273E-001	3.94042E-002	3.04506E+001	11	...........	6.57404E-002	-5.27500E-003	6.07268E-001	5.41182E-001	-2.69750E-002	-3.78818E-002	7.06928E-001	-4.37206E-002	-3.19582E-003	2.56432E-004	-2.95209E-002	-2.63083E-002	1.31133E-003	1.84154E-003	-3.43657E-002	2.12537E-003
	51	51	4.99849E-002	-4.75459E-002	0.00000E+000	-2.37658E-003	-4.71662E-001	3.93804E-002	3.11819E+001	11	...........	6.57071E-002	-5.30347E-003	6.07212E-001	5.41075E-001	-2.69760E-002	-3.78690E-002	7.06902E-001	-4.37754E-002	-3.12410E-003	2.52158E-004	-2.88704E-002	-2.57259E-002	1.28260E-003	1.80052E-003	-3.36103E-002	2.08134E-003
	52	52	4.99646E-002	-4.84714E-002	0.00000E+000	-2.42185E-003	-4.80865E-001	3.95445E-002	3.19080E+001	11	...........	6.59890E-002	-5.33750E-003	6.07220E-001	5.41122E-001	-2.69578E-002	-3.78739E-002	7.06927E-001	-4.38249E-002	-3.19858E-003	2.58716E-004	-2.94328E-002	-2.62290E-002	1.30668E-003	1.83580E-003	-3.42657E-002	2.12425E-003
	53	53	4.99672E-002	-4.78859E-002	0.00000E+000	-2.39272E-003	-4.75034E-001	3.95521E-002	3.16761E+001	11	...........	6.60060E-002	-5.43083E-003	6.07269E-001	5.41210E-001	-2.69349E-002	-3.78917E-002	7.06875E-001	-4.37835E-002	-3.16075E-003	2.60060E-004	-2.90796E-002	-2.59163E-002	1.28980E-003	1.81448E-003	-3.38493E-002	2.09661E-003
	54	54	4.99618E-002	-4.71864E-002	0.00000E+000	-2.35752E-003	-4.68081E-001	3.95465E-002	3.17548E+001	11	...........	6.59733E-002	-5.41569E-003	6.07245E-001	5.41111E-001	-2.69115E-002	-3.79104E-002	7.06904E-001	-4.38356E-002	-3.11304E-003	2.55547E-004	-2.86537E-002	-2.55331E-002	1.26986E-003	1.78886E-003	-3.33562E-002	2.06844E-003
	55	55	4.99507E-002	-4.65610E-002	0.00000E+000	-2.32575E-003	-4.61858E-001	3.95998E-002	3.12436E+001	11	...........	6.60806E-002	-5.39389E-003	6.07258E-001	5.41222E-001	-2.69194E-002	-3.79344E-002	7.06854E-001	-4.37643E-002	-3.07677E-003	2.51145E-004	-2.82745E-002	-2.51998E-002	1.25339E-003	1.76626E-003	-3.29118E-002	2.03771E-003
	56	56	4.99835E-002	-4.58954E-002	0.00000E+000	-2.29401E-003	-4.55241E-001	3.96552E-002	3.11784E+001	11	...........	6.61747E-002	-5.44125E-003	6.07196E-001	5.41313E-001	-2.69421E-002	-3.79568E-002	7.06718E-001	-4.36779E-002	-3.03711E-003	2.49728E-004	-2.78675E-002	-2.48438E-002	1.23652E-003	1.74204E-003	-3.24351E-002	2.00461E-003
	57	57	4.99665E-002	-4.54998E-002	0.00000E+000	-2.27347E-003	-4.51308E-001	3.95744E-002	3.18985E+001	11	...........	6.60524E-002	-5.25375E-003	6.07090E-001	5.41366E-001	-2.69262E-002	-3.79776E-002	7.06679E-001	-4.37540E-002	-3.00537E-003	2.39045E-004	-2.76225E-002	-2.46320E-002	1.22514E-003	1.72798E-003	-3.21537E-002	1.99080E-003
	58	58	4.99652E-002	-4.55571E-002	0.00000E+000	-2.27627E-003	-4.51872E-001	3.97324E-002	3.17280E+001	11	...........	6.62879E-002	-5.27167E-003	6.07091E-001	5.41393E-001	-2.68965E-002	-3.79618E-002	7.06643E-001	-4.37832E-002	-3.01989E-003	2.40162E-004	-2.76573E-002	-2.46643E-002	1.22533E-003	1.72943E-003	-3.21926E-002	1.99464E-003
	59	59	4.99701E-002	-4.49813E-002	0.00000E+000	-2.24772E-003	-4.46159E-001	3.97430E-002	3.19988E+001	11	...........	6.63001E-002	-5.27292E-003	6.07035E-001	5.41435E-001	-2.68808E-002	-3.79497E-002	7.06658E-001	-4.38296E-002	-2.98227E-003	2.37183E-004	-2.73052E-002	-2.43545E-002	1.20914E-003	1.70703E-003	-3.17864E-002	1.97151E-003
	60	60	4.99553E-002	-4.45186E-002	0.00000E+000	-2.22394E-003	-4.41552E-001	3.97956E-002	3.15112E+001	11	...........	6.63804E-002	-5.34514E-003	6.07023E-001	5.41407E-001	-2.68899E-002	-3.79133E-002	7.06619E-001	-4.38989E-002	-2.95516E-003	2.37958E-004	-2.70238E-002	-2.41027E-002	1.19710E-003	1.68785E-003	-3.14577E-002	1.95432E-003
	61	61	4.99764E-002	-4.38108E-002	0.00000E+000	-2.18951E-003	-4.34511E-001	3.97991E-002	3.20715E+001	11	...........	6.63990E-002	-5.36931E-003	6.06981E-001	5.41324E-001	-2.68612E-002	-3.79035E-002	7.06671E-001	-4.39587E-002	-2.90900E-003	2.35234E-004	-2.65923E-002	-2.37159E-002	1.17681E-003	1.66058E-003	-3.09599E-002	1.92587E-003
	62	62	4.99468E-002	-4.36759E-002	0.00000E+000	-2.18147E-003	-4.33178E-001	3.97921E-002	3.12888E+001	11	...........	6.64021E-002	-5.36000E-003	6.06962E-001	5.41457E-001	-2.68572E-002	-3.79058E-002	7.06683E-001	-4.38708E-002	-2.90017E-003	2.34103E-004	-2.65096E-002	-2.36486E-002	1.17301E-003	1.65557E-003	-3.08650E-002	1.91610E-003
	63	63	4.99849E-002	-4.30881E-002	0.00000E+000	-2.15376E-003	-4.27332E-001	3.98577E-002	3.21393E+001	11	...........	6.64912E-002	-5.39833E-003	6.06889E-001	5.41599E-001	-2.68443E-002	-3.79146E-002	7.06743E-001	-4.39179E-002	-2.86498E-003	2.32604E-004	-2.61497E-002	-2.33365E-002	1.15667E-003	1.63367E-003	-3.04522E-002	1.89234E-003
	64	64	4.99676E-002	-4.28844E-002	0.00000E+000	-2.14283E-003	-4.25299E-001	3.97782E-002	3.24816E+001	11	...........	6.63719E-002	-5.50069E-003	6.06959E-001	5.41675E-001	-2.68436E-002	-3.79246E-002	7.06872E-001	-4.38458E-002	-2.84632E-003	2.35894E-004	-2.60291E-002	-2.32294E-002	1.15117E-003	1.62637E-003	-3.03138E-002	1.88030E-003
	65	65	4.99633E-002	-4.21742E-002	0.00000E+000	-2.10716E-003	-4.18234E-001	3.99012E-002	3.19432E+001	11	...........	6.65867E-002	-5.48875E-003	6.06977E-001	5.41644E-001	-2.68443E-002	-3.79137E-002	7.06911E-001	-4.38536E-002	-2.80824E-003	2.31483E-004	-2.55987E-002	-2.28434E-002	1.13214E-003	1.59898E-003	-2.98134E-002	1.84949E-003
	66	66	4.99667E-002	-4.12645E-002	0.00000E+000	-2.06185E-003	-4.09201E-001	3.97201E-002	3.15016E+001	11	...........	6.62722E-002	-5.28069E-003	6.07023E-001	5.41530E-001	-2.68493E-002	-3.78949E-002	7.06890E-001	-4.38460E-002	-2.73469E-003	2.17905E-004	-2.50485E-002	-2.23460E-002	1.10792E-003	1.56371E-003	-2.91695E-002	1.80928E-003
	67	67	4.99691E-002	-4.15046E-002	0.00000E+000	-2.07395E-003	-4.11577E-001	4.00821E-002	3.24742E+001	11	...........	6.68753E-002	-5.39931E-003	6.07056E-001	5.41451E-001	-2.68721E-002	-3.79182E-002	7.06933E-001	-4.38682E-002	-2.77563E-003	2.24096E-004	-2.51956E-002	-2.24727E-002	1.11532E-003	1.57378E-003	-2.93410E-002	1.82073E-003
	68	68	4.99669E-002	-4.11303E-002	0.00000E+000	-2.05515E-003	-4.07885E-001	3.99713E-002	3.22929E+001	11	...........	6.66910E-002	-5.39764E-003	6.07122E-001	5.41408E-001	-2.68835E-002	-3.79189E-002	7.06943E-001	-4.38671E-002	-2.74302E-003	2.22007E-004	-2.49711E-002	-2.22683E-002	1.10573E-003	1.55962E-003	-2.90768E-002	1.80427E-003
	69	69	4.99626E-002	-4.04575E-002	0.00000E+000	-2.02136E-003	-4.01188E-001	4.00327E-002	3.20036E+001	11	...........	6.67951E-002	-5.32069E-003	6.07049E-001	5.41503E-001	-2.68781E-002	-3.79236E-002	7.06903E-001	-4.37492E-002	-2.70236E-003	2.15262E-004	-2.45597E-002	-2.19079E-002	1.08742E-003	1.53429E-003	-2.85995E-002	1.76998E-003
	70	70	4.99607E-002	-3.96144E-002	0.00000E+000	-1.97916E-003	-3.92804E-001	3.99742E-002	3.17969E+001	11	...........	6.67093E-002	-5.29597E-003	6.07060E-001	5.41393E-001	-2.68675E-002	-3.79204E-002	7.06958E-001	-4.37347E-002	-2.64265E-003	2.09797E-004	-2.40484E-002	-2.14470E-002	1.06434E-003	1.50220E-003	-2.80058E-002	1.73253E-003
	71	71	4.99723E-002	-3.95994E-002	0.00000E+000	-1.97888E-003	-3.92660E-001	4.01375E-002	3.23109E+001	11	...........	6.69660E-002	-5.29875E-003	6.07208E-001	5.41355E-001	-2.68572E-002	-3.79040E-002	7.06925E-001	-4.38125E-002	-2.65181E-003	2.09828E-004	-2.40451E-002	-2.14374E-002	1.06353E-003	1.50098E-003	-2.79938E-002	1.73495E-003
	72	72	4.99737E-002	-3.94674E-002	0.00000E+000	-1.97233E-003	-3.91348E-001	4.01272E-002	3.21625E+001	11	...........	6.69558E-002	-5.36486E-003	6.07374E-001	5.41403E-001	-2.68819E-002	-3.78914E-002	7.06898E-001	-4.37492E-002	-2.64257E-003	2.11737E-004	-2.39715E-002	-2.13678E-002	1.06096E-003	1.49548E-003	-2.78995E-002	1.72667E-003
	73	73	4.99594E-002	-3.87843E-002	0.00000E+000	-1.93764E-003	-3.84557E-001	4.01559E-002	3.24068E+001	11	...........	6.70086E-002	-5.30417E-003	6.07302E-001	5.41292E-001	-2.69212E-002	-3.78917E-002	7.06924E-001	-4.36679E-002	-2.59888E-003	2.05719E-004	-2.35538E-002	-2.09936E-002	1.04412E-003	1.46960E-003	-2.74176E-002	1.69363E-003
	74	74	4.99613E-002	-3.80141E-002	0.00000E+000	-1.89923E-003	-3.76893E-001	4.00387E-002	3.17958E+001	11	...........	6.68172E-002	-5.29028E-003	6.07236E-001	5.41311E-001	-2.69301E-002	-3.78981E-002	7.06912E-001	-4.35732E-002	-2.54000E-003	2.01105E-004	-2.30836E-002	-2.05775E-002	1.02373E-003	1.44066E-003	-2.68726E-002	1.65640E-003
	75	75	4.99763E-002	-3.80509E-002	0.00000E+000	-1.90165E-003	-3.77259E-001	4.02777E-002	3.25951E+001	11	...........	6.71979E-002	-5.35292E-003	6.07160E-001	5.41299E-001	-2.69187E-002	-3.79104E-002	7.06821E-001	-4.37037E-002	-2.55694E-003	2.03684E-004	-2.31030E-002	-2.05970E-002	1.02428E-003	1.44253E-003	-2.68952E-002	1.66297E-003
	76	76	4.99681E-002	-3.78578E-002	0.00000E+000	-1.89168E-003	-3.75334E-001	4.01991E-002	3.25585E+001	11	...........	6.70844E-002	-5.38708E-003	6.07281E-001	5.41277E-001	-2.69033E-002	-3.79079E-002	7.06852E-001	-4.37719E-002	-2.53967E-003	2.03943E-004	-2.29904E-002	-2.04916E-002	1.01850E-003	1.43511E-003	-2.67599E-002	1.65711E-003
	77	77	4.99628E-002	-3.72750E-002	0.00000E+000	-1.86236E-003	-3.69543E-001	4.02093E-002	3.25033E+001	11	...........	6.71035E-002	-5.41083E-003	6.07432E-001	5.41335E-001	-2.68921E-002	-3.79075E-002	7.06707E-001	-4.38483E-002	-2.50128E-003	2.01689E-004	-2.26421E-002	-2.01783E-002	1.00240E-003	1.41300E-003	-2.63425E-002	1.63445E-003
	78	78	4.99584E-002	-3.65795E-002	0.00000E+000	-1.82745E-003	-3.62625E-001	4.02630E-002	3.21231E+001	11	...........	6.71771E-002	-5.35806E-003	6.07474E-001	5.41227E-001	-2.68992E-002	-3.79222E-002	7.06772E-001	-4.37965E-002	-2.45731E-003	1.95995E-004	-2.22211E-002	-1.97978E-002	9.83959E-004	1.38718E-003	-2.58534E-002	1.60206E-003
	79	79	4.99770E-002	-3.63740E-002	0.00000E+000	-1.81786E-003	-3.60576E-001	4.02662E-002	3.17930E+001	11	...........	6.71893E-002	-5.28472E-003	6.07366E-001	5.41165E-001	-2.68872E-002	-3.79135E-002	7.06679E-001	-4.38201E-002	-2.44394E-003	1.92227E-004	-2.20923E-002	-1.96843E-002	9.77996E-004	1.37906E-003	-2.57047E-002	1.59391E-003
	80	80	4.99697E-002	-3.59723E-002	0.00000E+000	-1.79753E-003	-3.56584E-001	4.02604E-002	3.28245E+001	11	...........	6.71835E-002	-5.27264E-003	6.07368E-001	5.41131E-001	-2.69032E-002	-3.79289E-002	7.06803E-001	-4.37954E-002	-2.41675E-003	1.89669E-004	-2.18484E-002	-1.94658E-002	9.67771E-004	1.36439E-003	-2.54253E-002	1.57542E-003
	81	81	4.99677E-002	-3.58855E-002	0.00000E+000	-1.79312E-003	-3.55728E-001	4.03340E-002	3.27097E+001	11	...........	6.73043E-002	-5.22153E-003	6.07637E-001	5.41019E-001	-2.69035E-002	-3.79199E-002	7.06812E-001	-4.36346E-002	-2.41525E-003	1.87377E-004	-2.18054E-002	-1.94148E-002	9.65446E-004	1.36077E-003	-2.53643E-002	1.56585E-003
	82	82	4.99654E-002	-3.52905E-002	0.00000E+000	-1.76330E-003	-3.49796E-001	4.02999E-002	3.29379E+001	11	...........	6.72615E-002	-5.27319E-003	6.07600E-001	5.40892E-001	-2.68943E-002	-3.79244E-002	7.06780E-001	-4.35043E-002	-2.37369E-003	1.86093E-004	-2.14425E-002	-1.90883E-002	9.49112E-004	1.33837E-003	-2.49426E-002	1.53529E-003
	83	83	4.99615E-002	-3.47954E-002	0.00000E+000	-1.73843E-003	-3.44878E-001	4.03596E-002	3.23273E+001	11	...........	6.73265E-002	-5.29194E-003	6.07424E-001	5.40896E-001	-2.69224E-002	-3.79349E-002	7.06758E-001	-4.34496E-002	-2.34266E-003	1.84135E-004	-2.11356E-002	-1.88207E-002	9.36775E-004	1.31996E-003	-2.45919E-002	1.51185E-003
	84	84	4.99716E-002	-3.42804E-002	0.00000E+000	-1.71305E-003	-3.39755E-001	4.03005E-002	3.22620E+001	11	...........	6.72449E-002	-5.30153E-003	6.07301E-001	5.40990E-001	-2.69069E-002	-3.79126E-002	7.06807E-001	-4.35408E-002	-2.30518E-003	1.81739E-004	-2.08185E-002	-1.85454E-002	9.22381E-004	1.29966E-003	-2.42296E-002	1.49260E-003
	85	85	4.99672E-002	-3.41750E-002	0.00000E+000	-1.70763E-003	-3.38705E-001	4.04472E-002	3.28829E+001	11	...........	6.74978E-002	-5.34736E-003	6.07320E-001	5.41055E-001	-2.68982E-002	-3.78933E-002	7.06786E-001	-4.36367E-002	-2.30674E-003	1.82746E-004	-2.07552E-002	-1.84906E-002	9.19245E-004	1.29500E-003	-2.41544E-002	1.49128E-003
	86	86	4.99641E-002	-3.38690E-002	0.00000E+000	-1.69224E-003	-3.35663E-001	4.04770E-002	3.29584E+001	11	...........	6.75135E-002	-5.32208E-003	6.07373E-001	5.40861E-001	-2.68804E-002	-3.78839E-002	7.06795E-001	-4.37446E-002	-2.28662E-003	1.80254E-004	-2.05711E-002	-1.83184E-002	9.10414E-004	1.28309E-003	-2.39385E-002	1.48159E-003
	87	87	4.99721E-002	-3.35425E-002	0.00000E+000	-1.67619E-003	-3.32429E-001	4.04792E-002	3.31372E+001	11	...........	6.75410E-002	-5.41806E-003	6.07368E-001	5.40761E-001	-2.68610E-002	-3.78922E-002	7.06771E-001	-4.38436E-002	-2.26549E-003	1.81735E-004	-2.03726E-002	-1.81385E-002	9.00984E-004	1.27100E-003	-2.37068E-002	1.47062E-003
	88	88	4.99665E-002	-3.30941E-002	0.00000E+000	-1.65359E-003	-3.27959E-001	4.04864E-002	3.22776E+001	11	...........	6.75512E-002	-5.39667E-003	6.07318E-001	5.40703E-001	-2.68774E-002	-3.78903E-002	7.06843E-001	-4.39000E-002	-2.23555E-003	1.78598E-004	-2.00986E-002	-1.78941E-002	8.89481E-004	1.25394E-003	-2.33923E-002	1.45283E-003
	89	89	4.99659E-002	-3.23931E-002	0.00000E+000	-1.61855E-003	-3.20986E-001	4.04352E-002	3.27952E+001	11	...........	6.74722E-002	-5.35181E-003	6.07288E-001	5.40749E-001	-2.68912E-002	-3.78800E-002	7.06713E-001	-4.37667E-002	-2.18563E-003	1.73362E-004	-1.96719E-002	-1.75165E-002	8.71091E-004	1.22705E-003	-2.28926E-002	1.41774E-003
	90	90	4.99671E-002	-3.24710E-002	0.00000E+000	-1.62248E-003	-3.21754E-001	4.05657E-002	3.32259E+001	11	...........	6.76815E-002	-5.25153E-003	6.07277E-001	5.40776E-001	-2.69012E-002	-3.78644E-002	7.06825E-001	-4.37640E-002	-2.19769E-003	1.70522E-004	-1.97189E-002	-1.75596E-002	8.73511E-004	1.22950E-003	-2.29513E-002	1.42106E-003
	91	91	4.99675E-002	-3.21661E-002	0.00000E+000	-1.60726E-003	-3.18728E-001	4.05494E-002	3.31713E+001	11	...........	6.76592E-002	-5.22125E-003	6.07319E-001	5.40645E-001	-2.69246E-002	-3.78401E-002	7.06871E-001	-4.38351E-002	-2.17633E-003	1.67947E-004	-1.95351E-002	-1.73905E-002	8.66059E-004	1.21717E-003	-2.27373E-002	1.41001E-003
	92	92	4.99696E-002	-3.16971E-002	0.00000E+000	-1.58389E-003	-3.14065E-001	4.05603E-002	3.26236E+001	11	...........	6.76786E-002	-5.26125E-003	6.07270E-001	5.40662E-001	-2.69118E-002	-3.78229E-002	7.06898E-001	-4.38110E-002	-2.14522E-003	1.66767E-004	-1.92487E-002	-1.71374E-002	8.53027E-004	1.19888E-003	-2.24067E-002	1.38868E-003
	93	93	4.99598E-002	-3.04055E-002	0.00000E+000	-1.51905E-003	-3.01243E-001	4.04258E-002	3.21696E+001	11	...........	6.74625E-002	-5.29028E-003	6.07384E-001	5.40701E-001	-2.68969E-002	-3.78235E-002	7.06831E-001	-4.38482E-002	-2.05123E-003	1.60854E-004	-1.84678E-002	-1.64403E-002	8.17815E-004	1.15004E-003	-2.14915E-002	1.33323E-003
	94	94	4.99724E-002	-3.07487E-002	0.00000E+000	-1.53659E-003	-3.04673E-001	4.07137E-002	3.29780E+001	11	...........	6.79226E-002	-5.26875E-003	6.07592E-001	5.40681E-001	-2.68867E-002	-3.78474E-002	7.06833E-001	-4.39068E-002	-2.08854E-003	1.62007E-004	-1.86827E-002	-1.66253E-002	8.26731E-004	1.16376E-003	-2.17342E-002	1.35008E-003
	95	95	4.99687E-002	-3.05780E-002	0.00000E+000	-1.52794E-003	-3.02974E-001	4.05883E-002	3.34746E+001	11	...........	6.77176E-002	-5.26736E-003	6.07717E-001	5.40643E-001	-2.68894E-002	-3.78215E-002	7.06858E-001	-4.38057E-002	-2.07067E-003	1.61066E-004	-1.85828E-002	-1.65318E-002	8.22226E-004	1.15651E-003	-2.16143E-002	1.33949E-003
	96	96	4.99654E-002	-3.02975E-002	0.00000E+000	-1.51383E-003	-3.00177E-001	4.06283E-002	3.31283E+001	11	...........	6.77832E-002	-5.17681E-003	6.07692E-001	5.40677E-001	-2.68662E-002	-3.78071E-002	7.06878E-001	-4.39210E-002	-2.05366E-003	1.56844E-004	-1.84116E-002	-1.63812E-002	8.13981E-004	1.14546E-003	-2.14166E-002	1.33070E-003
	97	97	4.99686E-002	-2.99496E-002	0.00000E+000	-1.49654E-003	-2.96714E-001	4.06699E-002	3.33895E+001	11	...........	6.78838E-002	-5.27903E-003	6.07823E-001	5.40851E-001	-2.68533E-002	-3.78417E-002	7.06797E-001	-4.39425E-002	-2.03309E-003	1.58105E-004	-1.82041E-002	-1.61983E-002	8.04247E-004	1.13334E-003	-2.11683E-002	1.31606E-003
	98	98	4.99673E-002	-2.96355E-002	0.00000E+000	-1.48080E-003	-2.93593E-001	4.06649E-002	3.34326E+001	11	...........	6.78539E-002	-5.37486E-003	6.07900E-001	5.40901E-001	-2.68689E-002	-3.78621E-002	7.06746E-001	-4.38796E-002	-2.01088E-003	1.59287E-004	-1.80154E-002	-1.60299E-002	7.96273E-004	1.12206E-003	-2.09448E-002	1.30039E-003
	99	99	4.99696E-002	-2.92514E-002	0.00000E+000	-1.46168E-003	-2.89779E-001	4.06687E-002	3.34759E+001	11	...........	6.78683E-002	-5.27750E-003	6.07824E-001	5.41064E-001	-2.68819E-002	-3.78501E-002	7.06699E-001	-4.39003E-002	-1.98524E-003	1.54374E-004	-1.77797E-002	-1.58269E-002	7.86334E-004	1.10717E-003	-2.06719E-002	1.28414E-003
	100	100	4.99689E-002	-2.90059E-002	0.00000E+000	-1.44939E-003	-2.87332E-001	4.07419E-002	3.33771E+001	11	...........	6.79868E-002	-5.28000E-003	6.07756E-001	5.41239E-001	-2.68757E-002	-3.78356E-002	7.06774E-001	-4.39304E-002	-1.97202E-003	1.53151E-004	-1.76285E-002	-1.56991E-002	7.79553E-004	1.09745E-003	-2.05006E-002	1.27424E-003
	101	101	4.99652E-002	-2.84172E-002	0.00000E+000	-1.41987E-003	-2.81484E-001	4.06572E-002	3.31298E+001	11	...........	6.78338E-002	-5.31972E-003	6.07676E-001	5.41219E-001	-2.68964E-002	-3.78307E-002	7.06751E-001	-4.39239E-002	-1.92764E-003	1.51171E-004	-1.72684E-002	-1.53799E-002	7.64319E-004	1.07504E-003	-2.00838E-002	1.24819E-003
	102	102	4.99604E-002	-2.80980E-002	0.00000E+000	-1.40379E-003	-2.78318E-001	4.08527E-002	3.28592E+001	11	...........	6.81703E-002	-5.30458E-003	6.07651E-001	5.41301E-001	-2.68658E-002	-3.78414E-002	7.06764E-001	-4.39860E-002	-1.91545E-003	1.49048E-004	-1.70738E-002	-1.52095E-002	7.54875E-004	1.06327E-003	-1.98586E-002	1.23592E-003
	103	103	4.99771E-002	-2.77288E-002	0.00000E+000	-1.38580E-003	-2.74636E-001	4.07402E-002	3.29581E+001	11	...........	6.79718E-002	-5.39417E-003	6.07653E-001	5.41474E-001	-2.68829E-002	-3.78528E-002	7.06923E-001	-4.38474E-002	-1.88478E-003	1.49574E-004	-1.68495E-002	-1.50144E-002	7.45431E-004	1.04961E-003	-1.96021E-002	1.21584E-003
	104	104	4.99682E-002	-2.75984E-002	0.00000E+000	-1.37904E-003	-2.73335E-001	4.07695E-002	3.36530E+001	11	...........	6.80296E-002	-5.46069E-003	6.07401E-001	5.41517E-001	-2.68889E-002	-3.78525E-002	7.06881E-001	-4.37568E-002	-1.87751E-003	1.50706E-004	-1.67633E-002	-1.49450E-002	7.42090E-004	1.04467E-003	-1.95088E-002	1.20762E-003
	105	105	4.99660E-002	-2.73646E-002	0.00000E+000	-1.36730E-003	-2.71007E-001	4.08191E-002	3.37715E+001	11	...........	6.81133E-002	-5.35375E-003	6.07274E-001	5.41385E-001	-2.69061E-002	-3.78314E-002	7.06923E-001	-4.38193E-002	-1.86390E-003	1.46503E-004	-1.66178E-002	-1.48148E-002	7.36276E-004	1.03524E-003	-1.93447E-002	1.19910E-003
	106	106	4.99695E-002	-2.69861E-002	0.00000E+000	-1.34848E-003	-2.67248E-001	4.08157E-002	3.37750E+001	11	...........	6.81106E-002	-5.27764E-003	6.07156E-001	5.41331E-001	-2.68982E-002	-3.78185E-002	7.06949E-001	-4.37057E-002	-1.83804E-003	1.42423E-004	-1.63848E-002	-1.46084E-002	7.25879E-004	1.02057E-003	-1.90778E-002	1.17945E-003
	107	107	4.99669E-002	-2.67214E-002	0.00000E+000	-1.33518E-003	-2.64615E-001	4.08708E-002	3.33540E+001	11	...........	6.81931E-002	-5.34861E-003	6.06999E-001	5.41306E-001	-2.69160E-002	-3.78276E-002	7.06888E-001	-4.38769E-002	-1.82221E-003	1.42922E-004	-1.62199E-002	-1.44644E-002	7.19232E-004	1.01081E-003	-1.88890E-002	1.17245E-003
	108	108	4.99608E-002	-2.58783E-002	0.00000E+000	-1.29290E-003	-2.56231E-001	4.08071E-002	3.27296E+001	11	...........	6.80867E-002	-5.27306E-003	6.07095E-001	5.41191E-001	-2.69247E-002	-3.78450E-002	7.06857E-001	-4.38606E-002	-1.76197E-003	1.36458E-004	-1.57106E-002	-1.40051E-002	6.96767E-004	9.79365E-004	-1.82923E-002	1.13504E-003
	109	109	4.99749E-002	-2.57530E-002	0.00000E+000	-1.28701E-003	-2.54984E-001	4.08578E-002	3.35857E+001	11	...........	6.81904E-002	-5.26944E-003	6.07254E-001	5.41216E-001	-2.68944E-002	-3.78494E-002	7.06864E-001	-4.38299E-002	-1.75611E-003	1.35704E-004	-1.56386E-002	-1.39380E-002	6.92614E-004	9.74739E-004	-1.82039E-002	1.12875E-003
	110	110	4.99622E-002	-2.57684E-002	0.00000E+000	-1.28745E-003	-2.55143E-001	4.09087E-002	3.35369E+001	11	...........	6.82450E-002	-5.32528E-003	6.07255E-001	5.41331E-001	-2.68853E-002	-3.78685E-002	7.06835E-001	-4.39133E-002	-1.75856E-003	1.37224E-004	-1.56480E-002	-1.39492E-002	6.92791E-004	9.75810E-004	-1.82140E-002	1.13158E-003
	111	111	4.99739E-002	-2.54090E-002	0.00000E+000	-1.26979E-003	-2.51566E-001	4.09228E-002	3.39114E+001	11	...........	6.82828E-002	-5.36431E-003	6.07102E-001	5.41408E-001	-2.68828E-002	-3.78637E-002	7.06844E-001	-4.39078E-002	-1.73500E-003	1.36302E-004	-1.54259E-002	-1.37566E-002	6.83064E-004	9.62080E-004	-1.79602E-002	1.11565E-003
	112	112	4.99677E-002	-2.51214E-002	0.00000E+000	-1.25526E-003	-2.48699E-001	4.09001E-002	3.39898E+001	11	...........	6.82601E-002	-5.26292E-003	6.07043E-001	5.41545E-001	-2.68964E-002	-3.78525E-002	7.06849E-001	-4.37875E-002	-1.71479E-003	1.32212E-004	-1.52497E-002	-1.36043E-002	6.75674E-004	9.50906E-004	-1.77570E-002	1.10000E-003
	113	113	4.99685E-002	-2.49032E-002	0.00000E+000	-1.24438E-003	-2.46531E-001	4.09142E-002	3.31623E+001	11	...........	6.82653E-002	-5.26472E-003	6.07131E-001	5.41422E-001	-2.68996E-002	-3.78410E-002	7.06806E-001	-4.38044E-002	-1.70003E-003	1.31109E-004	-1.51195E-002	-1.34832E-002	6.69886E-004	9.42362E-004	-1.76018E-002	1.09087E-003
	114	114	4.99667E-002	-2.41758E-002	0.00000E+000	-1.20798E-003	-2.39302E-001	4.08900E-002	3.29732E+001	11	...........	6.82242E-002	-5.27486E-003	6.07072E-001	5.41364E-001	-2.69218E-002	-3.78386E-002	7.06843E-001	-4.37979E-002	-1.64937E-003	1.27524E-004	-1.46764E-002	-1.30879E-002	6.50856E-004	9.14778E-004	-1.70885E-002	1.05885E-003
	115	115	4.99693E-002	-2.38403E-002	0.00000E+000	-1.19128E-003	-2.35963E-001	4.09261E-002	3.36621E+001	11	...........	6.82786E-002	-5.21944E-003	6.07202E-001	5.41382E-001	-2.69160E-002	-3.78317E-002	7.06897E-001	-4.38006E-002	-1.62778E-003	1.24433E-004	-1.44759E-002	-1.29067E-002	6.41685E-004	9.01919E-004	-1.68526E-002	1.04422E-003
	116	116	4.99687E-002	-2.39994E-002	0.00000E+000	-1.19922E-003	-2.37546E-001	4.09829E-002	3.38257E+001	11	...........	6.83951E-002	-5.28125E-003	6.07407E-001	5.41282E-001	-2.69121E-002	-3.78304E-002	7.06958E-001	-4.38056E-002	-1.64144E-003	1.26747E-004	-1.45774E-002	-1.29905E-002	6.45875E-004	9.07909E-004	-1.69666E-002	1.05131E-003
	117	117	4.99681E-002	-2.36713E-002	0.00000E+000	-1.18281E-003	-2.34277E-001	4.09684E-002	3.40428E+001	11	...........	6.83669E-002	-5.24444E-003	6.07516E-001	5.41076E-001	-2.68981E-002	-3.78601E-002	7.06891E-001	-4.37560E-002	-1.61833E-003	1.24143E-004	-1.43807E-002	-1.28080E-002	6.36711E-004	8.96197E-004	-1.67330E-002	1.03576E-003
	118	118	4.99681E-002	-2.34416E-002	0.00000E+000	-1.17134E-003	-2.31996E-001	4.10332E-002	3.41187E+001	11	...........	6.84653E-002	-5.25542E-003	6.07599E-001	5.40833E-001	-2.68850E-002	-3.78489E-002	7.06840E-001	-4.35124E-002	-1.60494E-003	1.23196E-004	-1.42431E-002	-1.26780E-002	6.30228E-004	8.87240E-004	-1.65695E-002	1.02000E-003
	119	119	4.99680E-002	-2.31207E-002	0.00000E+000	-1.15530E-003	-2.28820E-001	4.10386E-002	3.41687E+001	11	...........	6.84693E-002	-5.26306E-003	6.07615E-001	5.40766E-001	-2.68950E-002	-3.78581E-002	7.06922E-001	-4.35517E-002	-1.58306E-003	1.21686E-004	-1.40485E-002	-1.25029E-002	6.21832E-004	8.75306E-004	-1.63446E-002	1.00695E-003
	120	120	4.99593E-002	-2.26928E-002	0.00000E+000	-1.13371E-003	-2.24556E-001	4.10268E-002	3.25632E+001	11	...........	6.84657E-002	-5.31028E-003	6.07886E-001	5.40708E-001	-2.69171E-002	-3.78619E-002	7.06933E-001	-4.35708E-002	-1.55368E-003	1.20505E-004	-1.37946E-002	-1.22702E-002	6.10823E-004	8.59193E-004	-1.60423E-002	9.88743E-004
	121	121	4.99795E-002	-2.21614E-002	0.00000E+000	-1.10762E-003	-2.19267E-001	4.09878E-002	3.37449E+001	11	...........	6.84062E-002	-5.29778E-003	6.07918E-001	5.40665E-001	-2.69258E-002	-3.78717E-002	7.06901E-001	-4.36112E-002	-1.51598E-003	1.17406E-004	-1.34723E-002	-1.19819E-002	5.96714E-004	8.39289E-004	-1.56659E-002	9.66486E-004
	122	122	4.99623E-002	-2.23020E-002	0.00000E+000	-1.11426E-003	-2.20662E-001	4.10794E-002	3.33804E+001	11	...........	6.85332E-002	-5.33597E-003	6.07864E-001	5.40690E-001	-2.69208E-002	-3.78592E-002	7.07061E-001	-4.37308E-002	-1.52843E-003	1.19003E-004	-1.35566E-002	-1.20585E-002	6.00388E-004	8.44335E-004	-1.57689E-002	9.75285E-004
	123	123	4.99738E-002	-2.18700E-002	0.00000E+000	-1.09293E-003	-2.16368E-001	4.10603E-002	3.41484E+001	11	...........	6.85128E-002	-5.27069E-003	6.07934E-001	5.40747E-001	-2.69151E-002	-3.78462E-002	7.06995E-001	-4.37821E-002	-1.49838E-003	1.15270E-004	-1.32955E-002	-1.18262E-002	5.88635E-004	8.27699E-004	-1.54620E-002	9.57515E-004
	124	124	4.99696E-002	-2.18152E-002	0.00000E+000	-1.09010E-003	-2.15826E-001	4.10875E-002	3.43108E+001	11	...........	6.85596E-002	-5.26167E-003	6.07882E-001	5.40633E-001	-2.69250E-002	-3.78358E-002	7.07013E-001	-4.38251E-002	-1.49564E-003	1.14784E-004	-1.32611E-002	-1.17940E-002	5.87374E-004	8.25396E-004	-1.54236E-002	9.56053E-004
	125	125	4.99644E-002	-2.15014E-002	0.00000E+000	-1.07431E-003	-2.12706E-001	4.10752E-002	3.42650E+001	11	...........	6.85578E-002	-5.34736E-003	6.07868E-001	5.40751E-001	-2.69489E-002	-3.78286E-002	7.06977E-001	-4.38429E-002	-1.47409E-003	1.14976E-004	-1.30700E-002	-1.16269E-002	5.79440E-004	8.13369E-004	-1.52010E-002	9.42686E-004
	126	126	4.99671E-002	-2.10828E-002	0.00000E+000	-1.05345E-003	-2.08541E-001	4.10145E-002	3.30058E+001	11	...........	6.84317E-002	-5.31153E-003	6.07925E-001	5.40811E-001	-2.69551E-002	-3.78482E-002	7.06950E-001	-4.37729E-002	-1.44273E-003	1.11982E-004	-1.28168E-002	-1.14018E-002	5.68289E-004	7.97945E-004	-1.49045E-002	9.22855E-004
	127	127	4.99742E-002	-2.09075E-002	0.00000E+000	-1.04483E-003	-2.06797E-001	4.11150E-002	3.39189E+001	11	...........	6.86037E-002	-5.27861E-003	6.07921E-001	5.40757E-001	-2.69653E-002	-3.78601E-002	7.06972E-001	-4.37563E-002	-1.43433E-003	1.10362E-004	-1.27101E-002	-1.13059E-002	5.63776E-004	7.91560E-004	-1.47810E-002	9.14833E-004
	128	128	4.99688E-002	-2.08820E-002	0.00000E+000	-1.04345E-003	-2.06536E-001	4.11383E-002	3.43376E+001	11	...........	6.86611E-002	-5.21361E-003	6.07746E-001	5.40781E-001	-2.69787E-002	-3.78726E-002	7.07061E-001	-4.37243E-002	-1.43378E-003	1.08871E-004	-1.26909E-002	-1.12926E-002	5.63370E-004	7.90856E-004	-1.47648E-002	9.13051E-004
	129	129	4.99692E-002	-2.05346E-002	0.00000E+000	-1.02610E-003	-2.03097E-001	4.11179E-002	3.40480E+001	11	...........	6.86224E-002	-5.23903E-003	6.07793E-001	5.40959E-001	-2.69756E-002	-3.78736E-002	7.07194E-001	-4.36799E-002	-1.40913E-003	1.07581E-004	-1.24808E-002	-1.11084E-002	5.53932E-004	7.77720E-004	-1.45220E-002	8.96949E-004
	130	130	4.99680E-002	-2.02940E-002	0.00000E+000	-1.01405E-003	-2.00707E-001	4.11736E-002	3.43599E+001	11	...........	6.87144E-002	-5.40958E-003	6.07769E-001	5.41072E-001	-2.69562E-002	-3.78854E-002	7.07101E-001	-4.36879E-002	-1.39449E-003	1.09782E-004	-1.23340E-002	-1.09805E-002	5.47049E-004	7.68845E-004	-1.43499E-002	8.86601E-004
	131	131	4.99681E-002	-1.99705E-002	0.00000E+000	-9.97888E-004	-1.97492E-001	4.12217E-002	3.32721E+001	11	...........	6.87801E-002	-5.38958E-003	6.07774E-001	5.41025E-001	-2.69771E-002	-3.78972E-002	7.07016E-001	-4.36981E-002	-1.37357E-003	1.07633E-004	-1.21375E-002	-1.08045E-002	5.38745E-004	7.56826E-004	-1.41194E-002	8.72671E-004
	132	132	4.99678E-002	-1.93662E-002	0.00000E+000	-9.67686E-004	-1.91476E-001	4.09941E-002	3.36719E+001	11	...........	6.83960E-002	-5.25958E-003	6.07784E-001	5.41046E-001	-2.69849E-002	-3.78867E-002	7.06978E-001	-4.36840E-002	-1.32457E-003	1.01858E-004	-1.17704E-002	-1.04780E-002	5.22593E-004	7.33720E-004	-1.36915E-002	8.45992E-004
	133	133	4.99702E-002	-1.95711E-002	0.00000E+000	-9.77974E-004	-1.93506E-001	4.13425E-002	3.44997E+001	11	...........	6.89849E-002	-5.30028E-003	6.07866E-001	5.41145E-001	-2.69869E-002	-3.78879E-002	7.06962E-001	-4.35419E-002	-1.35011E-003	1.03732E-004	-1.18966E-002	-1.05908E-002	5.28165E-004	7.41510E-004	-1.38361E-002	8.52165E-004
	134	134	4.99698E-002	-1.93238E-002	0.00000E+000	-9.65608E-004	-1.91061E-001	4.12393E-002	3.43583E+001	11	...........	6.88085E-002	-5.28694E-003	6.07827E-001	5.41075E-001	-2.69764E-002	-3.78976E-002	7.06890E-001	-4.36556E-002	-1.32964E-003	1.02164E-004	-1.17455E-002	-1.04556E-002	5.21287E-004	7.32327E-004	-1.36598E-002	8.43592E-004
	135	135	4.99643E-002	-1.88114E-002	0.00000E+000	-9.39900E-004	-1.85964E-001	4.10944E-002	3.31765E+001	11	...........	6.85740E-002	-5.32472E-003	6.07827E-001	5.40981E-001	-2.69731E-002	-3.79375E-002	7.06876E-001	-4.37393E-002	-1.28998E-003	1.00166E-004	-1.14341E-002	-1.01766E-002	5.07402E-004	7.13659E-004	-1.32974E-002	8.22799E-004
	136	136	4.99706E-002	-1.87458E-002	0.00000E+000	-9.36742E-004	-1.85312E-001	4.13679E-002	3.42020E+001	11	...........	6.90432E-002	-5.41069E-003	6.07749E-001	5.40839E-001	-2.69883E-002	-3.79353E-002	7.07000E-001	-4.37251E-002	-1.29427E-003	1.01428E-004	-1.13928E-002	-1.01385E-002	5.05919E-004	7.11129E-004	-1.32533E-002	8.19665E-004
	137	137	4.99702E-002	-1.84470E-002	0.00000E+000	-9.21801E-004	-1.82336E-001	4.10746E-002	3.37755E+001	11	...........	6.85856E-002	-5.36639E-003	6.07756E-001	5.40830E-001	-2.69786E-002	-3.79460E-002	7.06901E-001	-4.37165E-002	-1.26520E-003	9.89938E-005	-1.12113E-002	-9.97670E-003	4.97674E-004	6.99989E-004	-1.30402E-002	8.06439E-004
	138	138	4.99715E-002	-1.83939E-002	0.00000E+000	-9.19170E-004	-1.81806E-001	4.12359E-002	3.43099E+001	11	...........	6.88058E-002	-5.42083E-003	6.07773E-001	5.40760E-001	-2.69908E-002	-3.79651E-002	7.06856E-001	-4.37831E-002	-1.26561E-003	9.97103E-005	-1.11793E-002	-9.94669E-003	4.96467E-004	6.98327E-004	-1.30018E-002	8.05341E-004
	139	139	4.99700E-002	-1.82592E-002	0.00000E+000	-9.12414E-004	-1.80466E-001	4.12838E-002	3.44888E+001	11	...........	6.88874E-002	-5.41056E-003	6.07866E-001	5.40785E-001	-2.69864E-002	-3.79792E-002	7.06808E-001	-4.37721E-002	-1.25783E-003	9.87926E-005	-1.10992E-002	-9.87432E-003	4.92751E-004	6.93471E-004	-1.29058E-002	7.99245E-004
	140	140	4.99686E-002	-1.79744E-002	0.00000E+000	-8.98158E-004	-1.77652E-001	4.12687E-002	3.46332E+001	11	...........	6.88704E-002	-5.29889E-003	6.07982E-001	5.40940E-001	-2.70096E-002	-3.79628E-002	7.06752E-001	-4.37675E-002	-1.23791E-003	9.52446E-005	-1.09281E-002	-9.72310E-003	4.85482E-004	6.82360E-004	-1.27035E-002	7.86697E-004
	141	141	4.99671E-002	-1.77477E-002	0.00000E+000	-8.86802E-004	-1.75391E-001	4.13156E-002	3.31856E+001	11	...........	6.89529E-002	-5.32625E-003	6.08061E-001	5.41071E-001	-2.70131E-002	-3.79321E-002	7.06951E-001	-4.39068E-002	-1.22376E-003	9.45287E-005	-1.07917E-002	-9.60277E-003	4.79420E-004	6.73208E-004	-1.25468E-002	7.79245E-004
	142	142	4.99706E-002	-1.71784E-002	0.00000E+000	-8.58417E-004	-1.69721E-001	4.11711E-002	3.40233E+001	11	...........	6.86925E-002	-5.26347E-003	6.07936E-001	5.40971E-001	-2.69735E-002	-3.79350E-002	7.07046E-001	-4.38285E-002	-1.18003E-003	9.04182E-005	-1.04434E-002	-9.29303E-003	4.63362E-004	6.51664E-004	-1.21459E-002	7.52904E-004
	143	143	4.99694E-002	-1.73686E-002	0.00000E+000	-8.67899E-004	-1.71617E-001	4.13737E-002	3.47377E+001	11	...........	6.90443E-002	-5.26500E-003	6.07920E-001	5.40848E-001	-2.69546E-002	-3.79367E-002	7.06981E-001	-4.37587E-002	-1.19920E-003	9.14458E-005	-1.05587E-002	-9.39378E-003	4.68164E-004	6.58908E-004	-1.22793E-002	7.60029E-004
	144	144	4.99681E-002	-1.71627E-002	0.00000E+000	-8.57585E-004	-1.69562E-001	4.13193E-002	3.44885E+001	11	...........	6.89357E-002	-5.30028E-003	6.07977E-001	5.40822E-001	-2.69364E-002	-3.79412E-002	7.06833E-001	-4.37374E-002	-1.18312E-003	9.09668E-005	-1.04345E-002	-9.28194E-003	4.62300E-004	6.51173E-004	-1.21311E-002	7.50649E-004
	145	145	4.99658E-002	-1.68673E-002	0.00000E+000	-8.42788E-004	-1.66624E-001	4.12930E-002	3.43652E+001	11	...........	6.89058E-002	-5.30389E-003	6.07976E-001	5.40847E-001	-2.69056E-002	-3.79546E-002	7.06959E-001	-4.37974E-002	-1.16225E-003	8.94622E-005	-1.02549E-002	-9.12263E-003	4.53824E-004	6.40191E-004	-1.19245E-002	7.38743E-004
	146	146	4.99717E-002	-1.66320E-002	0.00000E+000	-8.31129E-004	-1.64294E-001	4.13713E-002	3.44472E+001	11	...........	6.90360E-002	-5.24069E-003	6.07937E-001	5.40912E-001	-2.69272E-002	-3.79564E-002	7.06887E-001	-4.37335E-002	-1.14821E-003	8.71631E-005	-1.01112E-002	-8.99644E-003	4.47853E-004	6.31290E-004	-1.17569E-002	7.27374E-004
	147	147	4.99692E-002	-1.62496E-002	0.00000E+000	-8.11979E-004	-1.60486E-001	4.11090E-002	3.35540E+001	11	...........	6.85846E-002	-5.27681E-003	6.07904E-001	5.41009E-001	-2.69379E-002	-3.79611E-002	7.06957E-001	-4.37393E-002	-1.11447E-003	8.57459E-005	-9.87818E-003	-8.79118E-003	4.37730E-004	6.16852E-004	-1.14878E-002	7.10746E-004
	148	148	4.99709E-002	-1.63078E-002	0.00000E+000	-8.14916E-004	-1.61064E-001	4.14668E-002	3.41514E+001	11	...........	6.92040E-002	-5.40750E-003	6.07936E-001	5.41033E-001	-2.69292E-002	-3.79712E-002	7.06822E-001	-4.36742E-002	-1.12857E-003	8.81845E-005	-9.91410E-003	-8.82305E-003	4.39156E-004	6.19228E-004	-1.15267E-002	7.12230E-004
	149	149	4.99691E-002	-1.58790E-002	0.00000E+000	-7.93460E-004	-1.56800E-001	4.11714E-002	3.40534E+001	11	...........	6.86882E-002	-5.35694E-003	6.07841E-001	5.41085E-001	-2.69292E-002	-3.79593E-002	7.06915E-001	-4.35797E-002	-1.09070E-003	8.50629E-005	-9.65191E-003	-8.59189E-003	4.27608E-004	6.02756E-004	-1.12251E-002	6.92003E-004
	150	150	4.99696E-002	-1.58804E-002	0.00000E+000	-7.93535E-004	-1.56808E-001	4.14937E-002	3.48919E+001	11	...........	6.92390E-002	-5.35292E-003	6.08004E-001	5.41032E-001	-2.69365E-002	-3.79722E-002	7.06931E-001	-4.36351E-002	-1.09954E-003	8.50063E-005	-9.65533E-003	-8.59180E-003	4.27762E-004	6.03013E-004	-1.12263E-002	6.92942E-004
	151	151	4.99702E-002	-1.57313E-002	0.00000E+000	-7.86096E-004	-1.55323E-001	4.13683E-002	3.49727E+001	11	...........	6.90172E-002	-5.28958E-003	6.07995E-001	5.41055E-001	-2.69261E-002	-3.79587E-002	7.06913E-001	-4.36262E-002	-1.08573E-003	8.32121E-005	-9.56456E-003	-8.51151E-003	4.23583E-004	5.97141E-004	-1.11207E-002	6.86298E-004
	152	152	4.99680E-002	-1.55153E-002	0.00000E+000	-7.75266E-004	-1.53184E-001	4.13360E-002	3.50039E+001	11	...........	6.89564E-002	-5.28917E-003	6.08042E-001	5.41057E-001	-2.69268E-002	-3.79526E-002	7.06875E-001	-4.37315E-002	-1.06988E-003	8.20628E-005	-9.43392E-003	-8.39463E-003	4.17776E-004	5.88845E-004	-1.09674E-002	6.78506E-004
	153	153	4.99698E-002	-1.52414E-002	0.00000E+000	-7.61612E-004	-1.50459E-001	4.14087E-002	3.39347E+001	11	...........	6.90929E-002	-5.34278E-003	6.08004E-001	5.41037E-001	-2.69281E-002	-3.79508E-002	7.06748E-001	-4.37107E-002	-1.05308E-003	8.14316E-005	-9.26686E-003	-8.24618E-003	4.10422E-004	5.78425E-004	-1.07719E-002	6.66214E-004
	154	154	4.99699E-002	-1.49315E-002	0.00000E+000	-7.46124E-004	-1.47372E-001	4.12480E-002	3.43756E+001	11	...........	6.88226E-002	-5.37181E-003	6.07852E-001	5.40934E-001	-2.69099E-002	-3.79558E-002	7.06835E-001	-4.35857E-002	-1.02762E-003	8.02090E-005	-9.07612E-003	-8.07694E-003	4.01804E-004	5.66737E-004	-1.05541E-002	6.50799E-004
	155	155	4.99701E-002	-1.49915E-002	0.00000E+000	-7.49125E-004	-1.47966E-001	4.14292E-002	3.49072E+001	11	...........	6.91340E-002	-5.35097E-003	6.07834E-001	5.40997E-001	-2.68982E-002	-3.79524E-002	7.06824E-001	-4.36131E-002	-1.03642E-003	8.02189E-005	-9.11231E-003	-8.11034E-003	4.03243E-004	5.68961E-004	-1.05963E-002	6.53823E-004
	156	156	4.99700E-002	-1.48505E-002	0.00000E+000	-7.42079E-004	-1.46563E-001	4.14157E-002	3.40689E+001	11	...........	6.91043E-002	-5.34667E-003	6.07828E-001	5.41066E-001	-2.68992E-002	-3.79575E-002	7.06798E-001	-4.37412E-002	-1.02623E-003	7.94006E-005	-9.02654E-003	-8.03510E-003	3.99466E-004	5.63687E-004	-1.04963E-002	6.49579E-004
	157	157	4.99699E-002	-1.44430E-002	0.00000E+000	-7.21716E-004	-1.42504E-001	4.13472E-002	3.48744E+001	11	...........	6.89949E-002	-5.40056E-003	6.07705E-001	5.41141E-001	-2.69004E-002	-3.79483E-002	7.06779E-001	-4.38267E-002	-9.96494E-004	7.80003E-005	-8.77710E-003	-7.81571E-003	3.88523E-004	5.48089E-004	-1.02080E-002	6.32989E-004
	158	158	4.99689E-002	-1.44410E-002	0.00000E+000	-7.21600E-004	-1.42485E-001	4.14563E-002	3.50258E+001	11	...........	6.91811E-002	-5.37681E-003	6.07514E-001	5.41230E-001	-2.69199E-002	-3.79210E-002	7.06832E-001	-4.37047E-002	-9.99043E-004	7.76464E-005	-8.77311E-003	-7.81590E-003	3.88749E-004	5.47616E-004	-1.02073E-002	6.31139E-004
	159	159	4.99685E-002	-1.41998E-002	0.00000E+000	-7.09541E-004	-1.40095E-001	4.14320E-002	3.46200E+001	11	...........	6.91351E-002	-5.24389E-003	6.07489E-001	5.41271E-001	-2.69196E-002	-3.78908E-002	7.06642E-001	-4.38093E-002	-9.81702E-004	7.44619E-005	-8.62620E-003	-7.68592E-003	3.82252E-004	5.38041E-004	-1.00341E-002	6.22081E-004
	160	160	4.99697E-002	-1.38999E-002	0.00000E+000	-6.94573E-004	-1.37117E-001	4.12809E-002	3.38268E+001	11	...........	6.88878E-002	-5.33403E-003	6.07497E-001	5.41362E-001	-2.69299E-002	-3.78635E-002	7.06683E-001	-4.38343E-002	-9.57532E-004	7.41424E-005	-8.44414E-003	-7.52487E-003	3.74322E-004	5.26298E-004	-9.82282E-003	6.09292E-004
	161	161	4.99726E-002	-1.39548E-002	0.00000E+000	-6.97360E-004	-1.37661E-001	4.15617E-002	3.48090E+001	11	...........	6.93644E-002	-5.35083E-003	6.07377E-001	5.41444E-001	-2.69151E-002	-3.78526E-002	7.06762E-001	-4.37983E-002	-9.67970E-004	7.46701E-005	-8.47585E-003	-7.55577E-003	3.75597E-004	5.28228E-004	-9.86275E-003	6.11199E-004
	162	162	4.99653E-002	-1.37064E-002	0.00000E+000	-6.84845E-004	-1.35189E-001	4.13560E-002	3.39593E+001	11	...........	6.90147E-002	-5.29708E-003	6.07352E-001	5.41591E-001	-2.69325E-002	-3.78599E-002	7.06840E-001	-4.37390E-002	-9.45944E-004	7.26040E-005	-8.32461E-003	-7.42327E-003	3.69148E-004	5.18922E-004	-9.68824E-003	5.99505E-004
	163	163	4.99740E-002	-1.36132E-002	0.00000E+000	-6.80304E-004	-1.34260E-001	4.15715E-002	3.49823E+001	11	...........	6.93792E-002	-5.24806E-003	6.07425E-001	5.41515E-001	-2.69332E-002	-3.78664E-002	7.06946E-001	-4.37747E-002	-9.44469E-004	7.14426E-005	-8.26897E-003	-7.37172E-003	3.66646E-004	5.15481E-004	-9.62377E-003	5.95912E-004
	164	164	4.99662E-002	-1.34235E-002	0.00000E+000	-6.70719E-004	-1.32376E-001	4.14867E-002	3.51198E+001	11	...........	6.92244E-002	-5.26153E-003	6.07521E-001	5.41514E-001	-2.69032E-002	-3.78671E-002	7.06707E-001	-4.37097E-002	-9.29232E-004	7.06279E-005	-8.15504E-003	-7.26899E-003	3.61134E-004	5.08307E-004	-9.48645E-003	5.86736E-004
	165	165	4.99699E-002	-1.31498E-002	0.00000E+000	-6.57093E-004	-1.29651E-001	4.14234E-002	3.40028E+001	11	...........	6.91139E-002	-5.22833E-003	6.07477E-001	5.41459E-001	-2.68942E-002	-3.78836E-002	7.06685E-001	-4.37724E-002	-9.08833E-004	6.87515E-005	-7.98819E-003	-7.12007E-003	3.53652E-004	4.98161E-004	-9.29276E-003	5.75597E-004
	166	166	4.99694E-002	-1.29785E-002	0.00000E+000	-6.48530E-004	-1.27955E-001	4.14158E-002	3.43328E+001	11	...........	6.90985E-002	-5.24181E-003	6.07538E-001	5.41536E-001	-2.68969E-002	-3.78653E-002	7.06673E-001	-4.36969E-002	-8.96797E-004	6.80309E-005	-7.88495E-003	-7.02834E-003	3.49083E-004	4.91436E-004	-9.17157E-003	5.67122E-004
	167	167	4.99748E-002	-1.30163E-002	0.00000E+000	-6.50486E-004	-1.28329E-001	4.15498E-002	3.50443E+001	11	...........	6.93354E-002	-5.28236E-003	6.07764E-001	5.41510E-001	-2.68799E-002	-3.78686E-002	7.06757E-001	-4.37154E-002	-9.02490E-004	6.87567E-005	-7.91083E-003	-7.04845E-003	3.49876E-004	4.92909E-004	-9.19935E-003	5.69012E-004
	168	168	4.99691E-002	-1.28700E-002	0.00000E+000	-6.43103E-004	-1.26881E-001	4.14942E-002	3.52669E+001	11	...........	6.92355E-002	-5.33736E-003	6.07782E-001	5.41542E-001	-2.68914E-002	-3.78572E-002	7.06779E-001	-4.37104E-002	-8.91062E-004	6.86919E-005	-7.82216E-003	-6.96964E-003	3.46092E-004	4.87223E-004	-9.09626E-003	5.62553E-004
	169	169	4.99686E-002	-1.26842E-002	0.00000E+000	-6.33810E-004	-1.25032E-001	4.14990E-002	3.48864E+001	11	...........	6.92489E-002	-5.38361E-003	6.07804E-001	5.41681E-001	-2.68967E-002	-3.78335E-002	7.06743E-001	-4.37606E-002	-8.78364E-004	6.82866E-005	-7.70949E-003	-6.87077E-003	3.41162E-004	4.79886E-004	-8.96444E-003	5.55066E-004
	170	170	4.99687E-002	-1.23634E-002	0.00000E+000	-6.17782E-004	-1.21833E-001	4.15148E-002	3.39495E+001	11	...........	6.92687E-002	-5.39097E-003	6.07703E-001	5.41735E-001	-2.68854E-002	-3.78176E-002	7.06716E-001	-4.37544E-002	-8.56396E-004	6.66507E-005	-7.51327E-003	-6.69767E-003	3.32395E-004	4.67554E-004	-8.73740E-003	5.40953E-004
	171	171	4.99685E-002	-1.21846E-002	0.00000E+000	-6.08848E-004	-1.20054E-001	4.14639E-002	3.41280E+001	11	...........	6.91864E-002	-5.34236E-003	6.07845E-001	5.41775E-001	-2.68882E-002	-3.78081E-002	7.06735E-001	-4.38278E-002	-8.43010E-004	6.50946E-005	-7.40637E-003	-6.60132E-003	3.27622E-004	4.60677E-004	-8.61129E-003	5.34025E-004
	172	172	4.99738E-002	-1.21583E-002	0.00000E+000	-6.07594E-004	-1.19792E-001	4.15922E-002	3.50200E+001	11	...........	6.93996E-002	-5.30556E-003	6.07884E-001	5.41677E-001	-2.68892E-002	-3.78222E-002	7.06662E-001	-4.38144E-002	-8.43778E-004	6.45063E-005	-7.39081E-003	-6.58585E-003	3.26925E-004	4.59852E-004	-8.59177E-003	5.32707E-004
	173	173	4.99698E-002	-1.20883E-002	0.00000E+000	-6.04052E-004	-1.19099E-001	4.15312E-002	3.51313E+001	11	...........	6.93128E-002	-5.23125E-003	6.07818E-001	5.41481E-001	-2.68662E-002	-3.77990E-002	7.06612E-001	-4.38388E-002	-8.37876E-004	6.32371E-005	-7.34751E-003	-6.54561E-003	3.24768E-004	4.56928E-004	-8.54177E-003	5.29938E-004
	174	174	4.99665E-002	-1.18606E-002	0.00000E+000	-5.92633E-004	-1.16835E-001	4.14726E-002	3.39309E+001	11	...........	6.92087E-002	-5.21028E-003	6.08014E-001	5.41407E-001	-2.68600E-002	-3.78051E-002	7.06635E-001	-4.38231E-002	-8.20858E-004	6.17970E-005	-7.21141E-003	-6.42142E-003	3.18576E-004	4.48392E-004	-8.38112E-003	5.19768E-004
	175	175	4.99725E-002	-1.17276E-002	0.00000E+000	-5.86058E-004	-1.15507E-001	4.16478E-002	3.49176E+001	11	...........	6.95087E-002	-5.32764E-003	6.08086E-001	5.41387E-001	-2.68589E-002	-3.78175E-002	7.06768E-001	-4.38149E-002	-8.15172E-004	6.24805E-005	-7.13140E-003	-6.34918E-003	3.14991E-004	4.43509E-004	-8.28870E-003	5.13844E-004
	176	176	4.99698E-002	-1.15332E-002	0.00000E+000	-5.76315E-004	-1.13579E-001	4.14071E-002	3.41793E+001	11	...........	6.90942E-002	-5.31667E-003	6.08130E-001	5.41398E-001	-2.68454E-002	-3.78222E-002	7.06774E-001	-4.36250E-002	-7.96880E-004	6.13184E-005	-7.01371E-003	-6.24407E-003	3.09615E-004	4.36213E-004	-8.15140E-003	5.03138E-004
	177	177	4.99711E-002	-1.14622E-002	0.00000E+000	-5.72782E-004	-1.12878E-001	4.15943E-002	3.48743E+001	11	...........	6.94117E-002	-5.32181E-003	6.08087E-001	5.41532E-001	-2.68656E-002	-3.78132E-002	7.06792E-001	-4.36893E-002	-7.95614E-004	6.09998E-005	-6.97004E-003	-6.20717E-003	3.07940E-004	4.33424E-004	-8.10143E-003	5.00778E-004
	178	178	4.99711E-002	-1.13533E-002	0.00000E+000	-5.67335E-004	-1.11792E-001	4.15812E-002	3.51312E+001	11	...........	6.93867E-002	-5.25750E-003	6.07977E-001	5.41540E-001	-2.68657E-002	-3.78214E-002	7.06908E-001	-4.37271E-002	-7.87766E-004	5.96898E-005	-6.90253E-003	-6.14825E-003	3.05014E-004	4.29397E-004	-8.02572E-003	4.96446E-004
	179	179	4.99684E-002	-1.12427E-002	0.00000E+000	-5.61781E-004	-1.10692E-001	4.16054E-002	3.47998E+001	11	...........	6.94255E-002	-5.28097E-003	6.07966E-001	5.41499E-001	-2.68668E-002	-3.78432E-002	7.06898E-001	-4.36964E-002	-7.80533E-004	5.93726E-005	-6.83520E-003	-6.08793E-003	3.02056E-004	4.25461E-004	-7.94747E-003	4.91267E-004
	180	180	4.99712E-002	-1.10912E-002	0.00000E+000	-5.54241E-004	-1.09178E-001	4.16159E-002	3.50108E+001	11	...........	6.94554E-002	-5.28958E-003	6.08019E-001	5.41388E-001	-2.68621E-002	-3.78362E-002	7.06777E-001	-4.37000E-002	-7.70345E-004	5.86679E-005	-6.74367E-003	-6.00465E-003	2.97933E-004	4.19650E-004	-7.83902E-003	4.84686E-004
	181	181	4.99697E-002	-1.08744E-002	0.00000E+000	-5.43390E-004	-1.07024E-001	4.14649E-002	3.42821E+001	11	...........	6.92083E-002	-5.21278E-003	6.08001E-001	5.41378E-001	-2.68557E-002	-3.78339E-002	7.06740E-001	-4.36704E-002	-7.52598E-004	5.66858E-005	-6.61164E-003	-5.88715E-003	2.92039E-004	4.11421E-004	-7.68537E-003	4.74889E-004
	182	182	4.99707E-002	-1.08079E-002	0.00000E+000	-5.40076E-004	-1.06362E-001	4.16175E-002	3.50670E+001	11	...........	6.94543E-002	-5.23569E-003	6.08084E-001	5.41202E-001	-2.68357E-002	-3.78292E-002	7.06776E-001	-4.35833E-002	-7.50652E-004	5.65866E-005	-6.57209E-003	-5.84923E-003	2.90036E-004	4.08852E-004	-7.63873E-003	4.71042E-004
	183	183	4.99706E-002	-1.07291E-002	0.00000E+000	-5.36141E-004	-1.05576E-001	4.16499E-002	3.50260E+001	11	...........	6.95025E-002	-5.33139E-003	6.08195E-001	5.41148E-001	-2.68474E-002	-3.77964E-002	7.06764E-001	-4.36036E-002	-7.45701E-004	5.72011E-005	-6.52540E-003	-5.80604E-003	2.88049E-004	4.05522E-004	-7.58296E-003	4.67829E-004
	184	184	4.99703E-002	-1.05594E-002	0.00000E+000	-5.27656E-004	-1.03889E-001	4.15378E-002	3.49413E+001	11	...........	6.93233E-002	-5.34528E-003	6.08352E-001	5.41178E-001	-2.68622E-002	-3.78117E-002	7.06668E-001	-4.36710E-002	-7.32012E-004	5.64429E-005	-6.42383E-003	-5.71451E-003	2.83649E-004	3.99268E-004	-7.46199E-003	4.61139E-004
	185	185	4.99699E-002	-1.04074E-002	0.00000E+000	-5.20055E-004	-1.02403E-001	4.15885E-002	3.49823E+001	11	...........	6.94075E-002	-5.29917E-003	6.08460E-001	5.41266E-001	-2.68614E-002	-3.77957E-002	7.06796E-001	-4.35775E-002	-7.22349E-004	5.51503E-005	-6.33246E-003	-5.63315E-003	2.79556E-004	3.93353E-004	-7.35588E-003	4.53527E-004
	186	186	4.99705E-002	-1.02687E-002	0.00000E+000	-5.13133E-004	-1.01040E-001	4.17099E-002	3.46220E+001	11	...........	6.95900E-002	-5.26542E-003	6.08443E-001	5.41429E-001	-2.68474E-002	-3.77929E-002	7.06809E-001	-4.37346E-002	-7.14600E-004	5.40691E-005	-6.24793E-003	-5.55978E-003	2.75688E-004	3.88085E-004	-7.25802E-003	4.49098E-004
	187	187	4.99707E-002	-1.00147E-002	0.00000E+000	-5.00442E-004	-9.85060E-002	4.13142E-002	3.41948E+001	11	...........	6.89415E-002	-5.19014E-003	6.08348E-001	5.41553E-001	-2.68565E-002	-3.77672E-002	7.06774E-001	-4.38232E-002	-6.90430E-004	5.19778E-005	-6.09243E-003	-5.42350E-003	2.68960E-004	3.78228E-004	-7.07814E-003	4.38877E-004
	188	188	4.99709E-002	-1.01285E-002	0.00000E+000	-5.06132E-004	-9.96400E-002	4.17872E-002	3.43680E+001	11	...........	6.97278E-002	-5.26986E-003	6.08379E-001	5.41543E-001	-2.68322E-002	-3.77750E-002	7.06766E-001	-4.37896E-002	-7.06240E-004	5.33760E-005	-6.16199E-003	-5.48503E-003	2.71771E-004	3.82605E-004	-7.15850E-003	4.43524E-004
	189	189	4.99700E-002	-9.92034E-003	0.00000E+000	-4.95719E-004	-9.75680E-002	4.15693E-002	3.53369E+001	11	...........	6.93815E-002	-5.26292E-003	6.08417E-001	5.41516E-001	-2.68240E-002	-3.77729E-002	7.06763E-001	-4.35954E-002	-6.88288E-004	5.22099E-005	-6.03571E-003	-5.37202E-003	2.66103E-004	3.74720E-004	-7.01132E-003	4.32481E-004
	190	190	4.99709E-002	-9.87536E-003	0.00000E+000	-4.93481E-004	-9.71193E-002	4.16865E-002	3.53819E+001	11	...........	6.95839E-002	-5.41069E-003	6.08413E-001	5.41406E-001	-2.68337E-002	-3.77726E-002	7.06822E-001	-4.35985E-002	-6.87166E-004	5.34325E-005	-6.00829E-003	-5.34657E-003	2.64993E-004	3.73018E-004	-6.98012E-003	4.30550E-004
	191	191	4.99691E-002	-9.71153E-003	0.00000E+000	-4.85276E-004	-9.54863E-002	4.16673E-002	3.52185E+001	11	...........	6.95268E-002	-5.30361E-003	6.08437E-001	5.41334E-001	-2.68367E-002	-3.77783E-002	7.06804E-001	-4.37787E-002	-6.75212E-004	5.15062E-005	-5.90885E-003	-5.25718E-003	2.60625E-004	3.66885E-004	-6.86415E-003	4.25159E-004
	192	192	4.99691E-002	-9.52194E-003	0.00000E+000	-4.75803E-004	-9.36007E-002	4.15250E-002	3.41363E+001	11	...........	6.92807E-002	-5.27458E-003	6.08257E-001	5.41417E-001	-2.68421E-002	-3.77657E-002	7.06839E-001	-4.38536E-002	-6.59687E-004	5.02243E-005	-5.79178E-003	-5.15534E-003	2.55589E-004	3.59603E-004	-6.73048E-003	4.17572E-004
	193	193	4.99736E-002	-9.53439E-003	0.00000E+000	-4.76468E-004	-9.37257E-002	4.17427E-002	3.50423E+001	11	...........	6.96643E-002	-5.24222E-003	6.08251E-001	5.41443E-001	-2.68322E-002	-3.77657E-002	7.06599E-001	-4.38008E-002	-6.64207E-004	4.99814E-005	-5.79930E-003	-5.16233E-003	2.55829E-004	3.60073E-004	-6.73699E-003	4.17614E-004
	194	194	4.99702E-002	-9.45534E-003	0.00000E+000	-4.72486E-004	-9.29367E-002	4.16359E-002	3.54243E+001	11	...........	6.94654E-002	-5.18861E-003	6.08176E-001	5.41365E-001	-2.68337E-002	-3.77906E-002	7.06641E-001	-4.36678E-002	-6.56819E-004	4.90601E-005	-5.75051E-003	-5.11879E-003	2.53722E-004	3.57323E-004	-6.68153E-003	4.12894E-004
	195	195	4.99698E-002	-9.31789E-003	0.00000E+000	-4.65613E-004	-9.15660E-002	4.16776E-002	3.53826E+001	11	...........	6.95529E-002	-5.38111E-003	6.08217E-001	5.41268E-001	-2.68140E-002	-3.77825E-002	7.06674E-001	-4.36115E-002	-6.48086E-004	5.01406E-005	-5.66730E-003	-5.04348E-003	2.49850E-004	3.52053E-004	-6.58471E-003	4.06367E-004
	196	196	4.99687E-002	-9.11571E-003	0.00000E+000	-4.55500E-004	-8.95497E-002	4.16462E-002	3.43041E+001	11	...........	6.94804E-002	-5.28986E-003	6.08127E-001	5.41297E-001	-2.68172E-002	-3.77621E-002	7.06719E-001	-4.37615E-002	-6.33363E-004	4.82208E-005	-5.54351E-003	-4.93431E-003	2.44458E-004	3.44228E-004	-6.44225E-003	3.98917E-004
	197	197	4.99720E-002	-8.99482E-003	0.00000E+000	-4.49489E-004	-8.83687E-002	4.16122E-002	3.41595E+001	11	...........	6.94347E-002	-5.25431E-003	6.08078E-001	5.41401E-001	-2.68224E-002	-3.77694E-002	7.06802E-001	-4.37301E-002	-6.24553E-004	4.72615E-005	-5.46955E-003	-4.86980E-003	2.41262E-004	3.39729E-004	-6.35756E-003	3.93345E-004
	198	198	4.99720E-002	-8.94755E-003	0.00000E+000	-4.47127E-004	-8.78963E-002	4.17231E-002	3.52939E+001	11	...........	6.96278E-002	-5.26750E-003	6.08183E-001	5.41322E-001	-2.68449E-002	-3.77790E-002	7.06785E-001	-4.37225E-002	-6.22998E-004	4.71312E-005	-5.44175E-003	-4.84351E-003	2.40196E-004	3.38030E-004	-6.32400E-003	3.91209E-004
	199	199	4.99692E-002	-8.92027E-003	0.00000E+000	-4.45739E-004	-8.76273E-002	4.17166E-002	3.55033E+001	11	...........	6.96100E-002	-5.23819E-003	6.08191E-001	5.41271E-001	-2.68525E-002	-3.77637E-002	7.06814E-001	-4.38007E-002	-6.20940E-004	4.67261E-005	-5.42522E-003	-4.82828E-003	2.39532E-004	3.36863E-004	-6.30497E-003	3.90714E-004
	200	200	4.99712E-002	-8.80991E-003	0.00000E+000	-4.40242E-004	-8.65257E-002	4.16477E-002	3.54958E+001	11	...........	6.95099E-002	-5.34389E-003	6.08037E-001	5.41428E-001	-2.68715E-002	-3.77524E-002	7.06780E-001	-4.38169E-002	-6.12375E-004	4.70792E-005	-5.35675E-003	-4.76993E-003	2.36736E-004	3.32595E-004	-6.22666E-003	3.86023E-004
	201	201	4.99703E-002	-8.69362E-003	0.00000E+000	-4.34422E-004	-8.53687E-002	4.16852E-002	3.51605E+001	11	...........	6.95560E-002	-5.45097E-003	6.08057E-001	5.41371E-001	-2.68683E-002	-3.77650E-002	7.06902E-001	-4.35903E-002	-6.04693E-004	4.73887E-005	-5.28622E-003	-4.70647E-003	2.33583E-004	3.28315E-004	-6.14554E-003	3.78957E-004
	202	202	4.99686E-002	-8.48894E-003	0.00000E+000	-4.24181E-004	-8.33303E-002	4.15943E-002	3.40953E+001	11	...........	6.93983E-002	-5.36486E-003	6.08007E-001	5.41282E-001	-2.68796E-002	-3.77540E-002	7.06797E-001	-4.37493E-002	-5.89118E-004	4.55420E-005	-5.16133E-003	-4.59491E-003	2.28179E-004	3.20492E-004	-5.99996E-003	3.71385E-004
	203	203	4.99729E-002	-8.44338E-003	0.00000E+000	-4.21941E-004	-8.28707E-002	4.17432E-002	3.52291E+001	11	...........	6.96547E-002	-5.31444E-003	6.07997E-001	5.41410E-001	-2.68779E-002	-3.77272E-002	7.06700E-001	-4.37367E-002	-5.88121E-004	4.48719E-005	-5.13356E-003	-4.57133E-003	2.26941E-004	3.18545E-004	-5.96694E-003	3.69285E-004
	204	204	4.99713E-002	-8.41220E-003	0.00000E+000	-4.20368E-004	-8.25657E-002	4.16762E-002	3.56394E+001	11	...........	6.95430E-002	-5.22708E-003	6.08065E-001	5.41329E-001	-2.68951E-002	-3.77358E-002	7.06735E-001	-4.37519E-002	-5.85010E-004	4.39713E-005	-5.11517E-003	-4.55377E-003	2.26247E-004	3.17441E-004	-5.94519E-003	3.68050E-004
	205	205	4.99701E-002	-8.31896E-003	0.00000E+000	-4.15699E-004	-8.16403E-002	4.16893E-002	3.53597E+001	11	...........	6.95787E-002	-5.25764E-003	6.08164E-001	5.41291E-001	-2.69386E-002	-3.77424E-002	7.06904E-001	-4.39017E-002	-5.78823E-004	4.37381E-005	-5.05929E-003	-4.50298E-003	2.24101E-004	3.13977E-004	-5.88070E-003	3.65216E-004
	206	206	4.99710E-002	-8.22848E-003	0.00000E+000	-4.11185E-004	-8.07340E-002	4.17185E-002	3.55053E+001	11	...........	6.96176E-002	-5.26375E-003	6.08267E-001	5.41259E-001	-2.69642E-002	-3.77599E-002	7.06766E-001	-4.38897E-002	-5.72848E-004	4.33127E-005	-5.00511E-003	-4.45374E-003	2.21874E-004	3.10706E-004	-5.81562E-003	3.61146E-004
	207	207	4.99708E-002	-8.10981E-003	0.00000E+000	-4.05254E-004	-7.95533E-002	4.17325E-002	3.52980E+001	11	...........	6.96410E-002	-5.21986E-003	6.08169E-001	5.41231E-001	-2.70201E-002	-3.77797E-002	7.06736E-001	-4.37808E-002	-5.64775E-004	4.23321E-005	-4.93214E-003	-4.38928E-003	2.19128E-004	3.06386E-004	-5.73149E-003	3.55054E-004
	208	208	4.99665E-002	-7.96100E-003	0.00000E+000	-3.97783E-004	-7.80757E-002	4.16609E-002	3.38130E+001	11	...........	6.95249E-002	-5.21069E-003	6.08017E-001	5.41183E-001	-2.70129E-002	-3.77792E-002	7.06581E-001	-4.37263E-002	-5.53487E-004	4.14823E-005	-4.84043E-003	-4.30836E-003	2.15050E-004	3.00760E-004	-5.62509E-003	3.48105E-004
	209	209	4.99754E-002	-7.88706E-003	0.00000E+000	-3.94159E-004	-7.73453E-002	4.17667E-002	3.52488E+001	11	...........	6.96900E-002	-5.17778E-003	6.08048E-001	5.41242E-001	-2.70000E-002	-3.77731E-002	7.06671E-001	-4.37035E-002	-5.49649E-004	4.08375E-005	-4.79571E-003	-4.26881E-003	2.12951E-004	2.97918E-004	-5.57356E-003	3.44692E-004
	210	210	4.99705E-002	-7.87156E-003	0.00000E+000	-3.93345E-004	-7.71857E-002	4.17414E-002	3.56191E+001	11	...........	6.96550E-002	-5.25694E-003	6.08043E-001	5.41419E-001	-2.69976E-002	-3.77740E-002	7.06801E-001	-4.36686E-002	-5.48293E-004	4.13803E-005	-4.78624E-003	-4.26181E-003	2.12513E-004	2.97340E-004	-5.56362E-003	3.43740E-004
	211	211	4.99699E-002	-7.75902E-003	0.00000E+000	-3.87717E-004	-7.60890E-002	4.17248E-002	3.54856E+001	11	...........	6.96033E-002	-5.24819E-003	6.07885E-001	5.41478E-001	-2.69818E-002	-3.77949E-002	7.06862E-001	-4.38140E-002	-5.40053E-004	4.07208E-005	-4.71659E-003	-4.20133E-003	2.09352E-004	2.93251E-004	-5.48456E-003	3.39954E-004
	212	212	4.99686E-002	-7.64536E-003	0.00000E+000	-3.82028E-004	-7.49497E-002	4.17391E-002	3.43745E+001	11	...........	6.96456E-002	-5.30861E-003	6.07672E-001	5.41393E-001	-2.69600E-002	-3.77831E-002	7.06800E-001	-4.37346E-002	-5.32466E-004	4.05863E-005	-4.64588E-003	-4.13915E-003	2.06119E-004	2.88865E-004	-5.40374E-003	3.34367E-004
	213	213	4.99736E-002	-7.51567E-003	0.00000E+000	-3.75585E-004	-7.36550E-002	4.16971E-002	3.51843E+001	11	...........	6.95828E-002	-5.22861E-003	6.07640E-001	5.41429E-001	-2.69761E-002	-3.77785E-002	7.06585E-001	-4.37724E-002	-5.22961E-004	3.92965E-005	-4.56682E-003	-4.06920E-003	2.02743E-004	2.83930E-004	-5.31046E-003	3.28978E-004
	214	214	4.99716E-002	-7.56135E-003	0.00000E+000	-3.77853E-004	-7.41090E-002	4.17656E-002	3.53663E+001	11	...........	6.97183E-002	-5.20986E-003	6.07613E-001	5.41396E-001	-2.69917E-002	-3.77912E-002	7.06691E-001	-4.37424E-002	-5.27165E-004	3.93936E-005	-4.59437E-003	-4.09369E-003	2.04094E-004	2.85753E-004	-5.34354E-003	3.30751E-004
	215	215	4.99702E-002	-7.44209E-003	0.00000E+000	-3.71883E-004	-7.29220E-002	4.17612E-002	3.52891E+001	11	...........	6.96958E-002	-5.27528E-003	6.07534E-001	5.41406E-001	-2.70072E-002	-3.78132E-002	7.06697E-001	-4.36732E-002	-5.18683E-004	3.92591E-005	-4.52132E-003	-4.02920E-003	2.00990E-004	2.81409E-004	-5.25930E-003	3.25020E-004
	216	216	4.99686E-002	-7.35924E-003	0.00000E+000	-3.67731E-004	-7.20953E-002	4.17917E-002	3.48870E+001	11	...........	6.97422E-002	-5.30611E-003	6.07697E-001	5.41356E-001	-2.70294E-002	-3.78440E-002	7.06623E-001	-4.36451E-002	-5.13250E-004	3.90490E-005	-4.47219E-003	-3.98397E-003	1.98916E-004	2.78503E-004	-5.20021E-003	3.21195E-004
	217	217	4.99732E-002	-7.22890E-003	0.00000E+000	-3.61251E-004	-7.07993E-002	4.17585E-002	3.55458E+001	11	...........	6.96931E-002	-5.27889E-003	6.07759E-001	5.41382E-001	-2.70050E-002	-3.78507E-002	7.06701E-001	-4.37489E-002	-5.03804E-004	3.81605E-005	-4.39343E-003	-3.91359E-003	1.95216E-004	2.73619E-004	-5.10867E-003	3.16256E-004
	218	218	4.99695E-002	-7.16878E-003	0.00000E+000	-3.58220E-004	-7.02027E-002	4.17687E-002	3.44591E+001	11	...........	6.96932E-002	-5.18972E-003	6.07824E-001	5.41430E-001	-2.70001E-002	-3.78369E-002	7.06731E-001	-4.37854E-002	-4.99615E-004	3.72040E-005	-4.35735E-003	-3.88139E-003	1.93558E-004	2.71245E-004	-5.06640E-003	3.13888E-004
	219	219	4.99718E-002	-7.00813E-003	0.00000E+000	-3.50209E-004	-6.86047E-002	4.16576E-002	3.50955E+001	11	...........	6.95228E-002	-5.28639E-003	6.07821E-001	5.41477E-001	-2.70089E-002	-3.78332E-002	7.06862E-001	-4.37778E-002	-4.87225E-004	3.70477E-005	-4.25969E-003	-3.79474E-003	1.89282E-004	2.65140E-004	-4.95378E-003	3.06800E-004
	220	220	4.99716E-002	-7.04509E-003	0.00000E+000	-3.52054E-004	-6.89693E-002	4.18207E-002	3.57090E+001	11	...........	6.97829E-002	-5.27486E-003	6.07903E-001	5.41444E-001	-2.70107E-002	-3.78233E-002	7.06893E-001	-4.38943E-002	-4.91627E-004	3.71618E-005	-4.28273E-003	-3.81452E-003	1.90293E-004	2.66469E-004	-4.98012E-003	3.09239E-004
	221	221	4.99711E-002	-6.99043E-003	0.00000E+000	-3.49320E-004	-6.84300E-002	4.17822E-002	3.49570E+001	11	...........	6.97275E-002	-5.22083E-003	6.07920E-001	5.41496E-001	-2.69874E-002	-3.78304E-002	7.06837E-001	-4.38972E-002	-4.87425E-004	3.64959E-005	-4.24963E-003	-3.78529E-003	1.88653E-004	2.64451E-004	-4.94110E-003	3.06860E-004
	222	222	4.99706E-002	-6.81267E-003	0.00000E+000	-3.40433E-004	-6.66513E-002	4.16955E-002	3.47321E+001	11	...........	6.95918E-002	-5.31792E-003	6.07833E-001	5.41530E-001	-2.69768E-002	-3.78432E-002	7.06692E-001	-4.38997E-002	-4.74106E-004	3.62292E-005	-4.14096E-003	-3.68926E-003	1.83784E-004	2.57813E-004	-4.81446E-003	2.99074E-004
	223	223	4.99697E-002	-6.75037E-003	0.00000E+000	-3.37314E-004	-6.60273E-002	4.17873E-002	3.49851E+001	11	...........	6.97312E-002	-5.35306E-003	6.07784E-001	5.41591E-001	-2.69431E-002	-3.78394E-002	7.06678E-001	-4.37625E-002	-4.70712E-004	3.61351E-005	-4.10277E-003	-3.65594E-003	1.81876E-004	2.55430E-004	-4.77034E-003	2.95413E-004
	224	224	4.99720E-002	-6.73440E-003	0.00000E+000	-3.36532E-004	-6.58683E-002	4.18262E-002	3.55911E+001	11	...........	6.97982E-002	-5.36069E-003	6.07781E-001	5.41761E-001	-2.69112E-002	-3.78210E-002	7.06740E-001	-4.36846E-002	-4.70049E-004	3.61010E-005	-4.09304E-003	-3.64843E-003	1.81231E-004	2.54701E-004	-4.75947E-003	2.94189E-004
	225	225	4.99715E-002	-6.67992E-003	0.00000E+000	-3.33806E-004	-6.53297E-002	4.17664E-002	3.57347E+001	11	...........	6.97085E-002	-5.26611E-003	6.07966E-001	5.41804E-001	-2.68569E-002	-3.78321E-002	7.06807E-001	-4.36433E-002	-4.65647E-004	3.51772E-005	-4.06116E-003	-3.61921E-003	1.79402E-004	2.52715E-004	-4.72141E-003	2.91534E-004
	226	226	4.99712E-002	-6.62148E-003	0.00000E+000	-3.30883E-004	-6.47483E-002	4.18140E-002	3.46721E+001	11	...........	6.97747E-002	-5.19694E-003	6.07886E-001	5.41679E-001	-2.68435E-002	-3.78486E-002	7.06864E-001	-4.36635E-002	-4.62012E-004	3.44114E-005	-4.02510E-003	-3.58671E-003	1.77743E-004	2.50614E-004	-4.68048E-003	2.89117E-004
	227	227	4.99704E-002	-6.50134E-003	0.00000E+000	-3.24875E-004	-6.35557E-002	4.17242E-002	3.54844E+001	11	...........	6.96360E-002	-5.20167E-003	6.07900E-001	5.41750E-001	-2.68531E-002	-3.78565E-002	7.06731E-001	-4.36385E-002	-4.52727E-004	3.38178E-005	-3.95216E-003	-3.52210E-003	1.74581E-004	2.46118E-004	-4.59470E-003	2.83709E-004
	228	228	4.99711E-002	-6.46408E-003	0.00000E+000	-3.23017E-004	-6.31947E-002	4.18580E-002	3.57761E+001	11	...........	6.98408E-002	-5.20444E-003	6.07869E-001	5.41781E-001	-2.68760E-002	-3.78832E-002	7.06814E-001	-4.36528E-002	-4.51457E-004	3.36419E-005	-3.92931E-003	-3.50211E-003	1.73728E-004	2.44880E-004	-4.56890E-003	2.82175E-004
	229	229	4.99713E-002	-6.41354E-003	0.00000E+000	-3.20493E-004	-6.27007E-002	4.18113E-002	3.57323E+001	11	...........	6.97672E-002	-5.10806E-003	6.08043E-001	5.41848E-001	-2.68628E-002	-3.78762E-002	7.06734E-001	-4.36093E-002	-4.47455E-004	3.27607E-005	-3.89971E-003	-3.47516E-003	1.72286E-004	2.42921E-004	-4.53267E-003	2.79690E-004
	230	230	4.99706E-002	-6.36420E-003	0.00000E+000	-3.18023E-004	-6.22073E-002	4.18307E-002	3.57666E+001	11	...........	6.98168E-002	-5.23444E-003	6.08158E-001	5.41548E-001	-2.68564E-002	-3.79028E-002	7.06676E-001	-4.36725E-002	-4.44328E-004	3.33130E-005	-3.87044E-003	-3.44652E-003	1.70919E-004	2.41221E-004	-4.49743E-003	2.77940E-004
	231	231	4.99710E-002	-6.29395E-003	0.00000E+000	-3.14515E-004	-6.15063E-002	4.18415E-002	3.50446E+001	11	...........	6.98243E-002	-5.27806E-003	6.08065E-001	5.41466E-001	-2.68332E-002	-3.79092E-002	7.06662E-001	-4.37808E-002	-4.39471E-004	3.32198E-005	-3.82713E-003	-3.40796E-003	1.68887E-004	2.38598E-004	-4.44769E-003	2.75554E-004
	232	232	4.99709E-002	-6.16299E-003	0.00000E+000	-3.07970E-004	-6.01983E-002	4.18336E-002	3.50212E+001	11	...........	6.98268E-002	-5.24708E-003	6.08128E-001	5.41423E-001	-2.68279E-002	-3.79178E-002	7.06736E-001	-4.37440E-002	-4.30342E-004	3.23377E-005	-3.74789E-003	-3.33678E-003	1.65340E-004	2.33687E-004	-4.35561E-003	2.69594E-004
	233	233	4.99709E-002	-6.07229E-003	0.00000E+000	-3.03438E-004	-5.92967E-002	4.17230E-002	3.42144E+001	11	...........	6.96305E-002	-5.36653E-003	6.08113E-001	5.41437E-001	-2.68150E-002	-3.79199E-002	7.06714E-001	-4.37753E-002	-4.22817E-004	3.25871E-005	-3.69264E-003	-3.28776E-003	1.62828E-004	2.30260E-004	-4.29137E-003	2.65816E-004
	234	234	4.99715E-002	-6.03247E-003	0.00000E+000	-3.01451E-004	-5.88973E-002	4.17244E-002	3.55317E+001	11	...........	6.98579E-002	-5.47569E-003	6.08200E-001	5.41511E-001	-2.68464E-002	-3.79135E-002	7.06597E-001	-4.37633E-002	-4.21415E-004	3.30319E-005	-3.66895E-003	-3.26665E-003	1.61950E-004	2.28712E-004	-4.26253E-003	2.64001E-004
	235	235	4.99712E-002	-6.02135E-003	0.00000E+000	-3.00894E-004	-5.87927E-002	4.18562E-002	3.57320E+001	11	...........	6.98393E-002	-5.43653E-003	6.08148E-001	5.41382E-001	-2.68501E-002	-3.79001E-002	7.06541E-001	-4.39050E-002	-4.20527E-004	3.27353E-005	-3.66187E-003	-3.25986E-003	1.61674E-004	2.28210E-004	-4.25433E-003	2.64368E-004
	236	236	4.99710E-002	-5.96339E-003	0.00000E+000	-2.97996E-004	-5.82100E-002	4.18451E-002	3.58077E+001	11	...........	6.98339E-002	-5.36708E-003	6.08270E-001	5.41385E-001	-2.68543E-002	-3.78735E-002	7.06704E-001	-4.37761E-002	-4.16446E-004	3.20060E-005	-3.62735E-003	-3.22849E-003	1.60143E-004	2.25854E-004	-4.21435E-003	2.61054E-004
	237	237	4.99707E-002	-5.88743E-003	0.00000E+000	-2.94199E-004	-5.74547E-002	4.18419E-002	3.53977E+001	11	...........	6.98196E-002	-5.37389E-003	6.08332E-001	5.41502E-001	-2.68400E-002	-3.78617E-002	7.06744E-001	-4.37036E-002	-4.11058E-004	3.16384E-005	-3.58152E-003	-3.18806E-003	1.58019E-004	2.22908E-004	-4.16091E-003	2.57302E-004
	238	238	4.99704E-002	-5.74986E-003	0.00000E+000	-2.87323E-004	-5.60863E-002	4.16977E-002	3.42729E+001	11	...........	6.95869E-002	-5.44514E-003	6.08386E-001	5.41537E-001	-2.68256E-002	-3.78622E-002	7.06688E-001	-4.36692E-002	-4.00115E-004	3.13088E-005	-3.49813E-003	-3.11376E-003	1.54243E-004	2.17702E-004	-4.06336E-003	2.51092E-004
	239	239	4.99715E-002	-5.71995E-003	0.00000E+000	-2.85834E-004	-5.57877E-002	4.18481E-002	3.49245E+001	11	...........	6.98304E-002	-5.37931E-003	6.08515E-001	5.41392E-001	-2.68201E-002	-3.78304E-002	7.06727E-001	-4.35622E-002	-3.99426E-004	3.07694E-005	-3.48068E-003	-3.09673E-003	1.53410E-004	2.16388E-004	-4.04244E-003	2.49174E-004
	240	240	4.99725E-002	-5.73892E-003	0.00000E+000	-2.86788E-004	-5.59820E-002	4.19332E-002	3.57786E+001	11	...........	6.99828E-002	-5.35722E-003	6.08592E-001	5.41343E-001	-2.68326E-002	-3.78117E-002	7.06665E-001	-4.36235E-002	-4.01626E-004	3.07447E-005	-3.49266E-003	-3.10672E-003	1.53990E-004	2.16998E-004	-4.05550E-003	2.50352E-004
	241	241	4.99710E-002	-5.68437E-003	0.00000E+000	-2.84053E-004	-5.54370E-002	4.18501E-002	3.58602E+001	11	...........	6.98471E-002	-5.48444E-003	6.08612E-001	5.41314E-001	-2.68471E-002	-3.78007E-002	7.06628E-001	-4.34983E-002	-3.97036E-004	3.11756E-005	-3.45957E-003	-3.07702E-003	1.52609E-004	2.14873E-004	-4.01673E-003	2.47260E-004
	242	242	4.99707E-002	-5.61379E-003	0.00000E+000	-2.80525E-004	-5.47297E-002	4.18192E-002	3.57990E+001	11	...........	6.98054E-002	-5.51611E-003	6.08535E-001	5.41201E-001	-2.68414E-002	-3.77937E-002	7.06532E-001	-4.37143E-002	-3.91873E-004	3.09663E-005	-3.41619E-003	-3.03819E-003	1.50682E-004	2.12166E-004	-3.96633E-003	2.45403E-004
	243	243	4.99717E-002	-5.56418E-003	0.00000E+000	-2.78052E-004	-5.42367E-002	4.18471E-002	3.56737E+001	11	...........	6.98287E-002	-5.47000E-003	6.08565E-001	5.41171E-001	-2.68415E-002	-3.77824E-002	7.06626E-001	-4.36031E-002	-3.88540E-004	3.04361E-005	-3.38617E-003	-3.01117E-003	1.49351E-004	2.10228E-004	-3.93179E-003	2.42615E-004
	244	244	4.99702E-002	-5.50141E-003	0.00000E+000	-2.74907E-004	-5.36107E-002	4.19109E-002	3.56216E+001	11	...........	6.99433E-002	-5.37597E-003	6.08648E-001	5.41152E-001	-2.68435E-002	-3.77765E-002	7.06721E-001	-4.36612E-002	-3.84787E-004	2.95754E-005	-3.34842E-003	-2.97710E-003	1.47677E-004	2.07824E-004	-3.88796E-003	2.40198E-004
	245	245	4.99715E-002	-5.38515E-003	0.00000E+000	-2.69104E-004	-5.24550E-002	4.17305E-002	3.41609E+001	11	...........	6.96196E-002	-5.27639E-003	6.08583E-001	5.41123E-001	-2.68435E-002	-3.77853E-002	7.06657E-001	-4.36774E-002	-3.74912E-004	2.84142E-005	-3.27731E-003	-2.91403E-003	1.44556E-004	2.03480E-004	-3.80546E-003	2.35209E-004
	246	246	4.99718E-002	-5.35822E-003	0.00000E+000	-2.67760E-004	-5.21887E-002	4.18300E-002	3.51790E+001	11	...........	6.98235E-002	-5.19333E-003	6.08504E-001	5.41055E-001	-2.68519E-002	-3.77901E-002	7.06634E-001	-4.36447E-002	-3.74130E-004	2.78270E-005	-3.26050E-003	-2.89909E-003	1.43879E-004	2.02488E-004	-3.78630E-003	2.33858E-004
	247	247	4.99713E-002	-5.35080E-003	0.00000E+000	-2.67386E-004	-5.21113E-002	4.19506E-002	3.59142E+001	11	...........	7.00174E-002	-5.25736E-003	6.08414E-001	5.41091E-001	-2.68599E-002	-3.78075E-002	7.06688E-001	-4.37042E-002	-3.74649E-004	2.81311E-005	-3.25551E-003	-2.89527E-003	1.43722E-004	2.02300E-004	-3.78135E-003	2.33852E-004
	248	248	4.99709E-002	-5.30201E-003	0.00000E+000	-2.64947E-004	-5.16267E-002	4.19092E-002	3.58882E+001	11	...........	6.99469E-002	-5.21583E-003	6.08270E-001	5.41299E-001	-2.68442E-002	-3.78215E-002	7.06641E-001	-4.37563E-002	-3.70860E-004	2.76544E-005	-3.22506E-003	-2.86998E-003	1.42328E-004	2.00530E-004	-3.74662E-003	2.31996E-004
	249	249	4.99714E-002	-5.25023E-003	0.00000E+000	-2.62361E-004	-5.11217E-002	4.18847E-002	3.54014E+001	11	...........	6.99026E-002	-5.26014E-003	6.08180E-001	5.41171E-001	-2.68460E-002	-3.78124E-002	7.06528E-001	-4.36712E-002	-3.67005E-004	2.76169E-005	-3.19308E-003	-2.84127E-003	1.40948E-004	1.98524E-004	-3.70943E-003	2.29284E-004
	250	250	4.99711E-002	-5.16088E-003	0.00000E+000	-2.57895E-004	-5.02393E-002	4.19272E-002	3.46233E+001	11	...........	6.99703E-002	-5.26306E-003	6.08199E-001	5.41118E-001	-2.68212E-002	-3.77964E-002	7.06428E-001	-4.37007E-002	-3.61108E-004	2.71620E-005	-3.13884E-003	-2.79265E-003	1.38421E-004	1.95063E-004	-3.64579E-003	2.25534E-004
	251	250.143	4.99602E-002	-5.09501E-003	0.00000E+000	-2.54548E-004	-4.95837E-002	4.18029E-002	3.38433E+001	11	...........	6.97800E-002	-5.27326E-003	6.08202E-001	5.41166E-001	-2.69477E-002	-3.77558E-002	7.06528E-001	-4.37946E-002	-3.55530E-004	2.68673E-005	-3.09879E-003	-2.75724E-003	1.37299E-004	1.92366E-004	-3.59977E-003	2.23134E-004
STARTTIMEOFFSET	QUANT	640689	Start Time Offset (s)
