EXPLAIN
TAG	PWR800_DISCHARGE
TITLE	LABEL	PWR Discharge	Test Identifier
DATE	LABEL	10/14/2022	Date
TIME	LABEL	10:40:06	Time
NOTES	NOTES	1	Notes...
	
PSTAT	PSTAT	REF3000-21114	Potentiostat
CAPACITY	QUANT	5.30000E-002	Capacity (A-hr)
CELLTYPE	SELECTOR	1	Cell Type
WORKINGCONNECTION	SELECTOR	0	Working Connection
MAXDISCHARGETIME	VARIABLEANDUNITS	7.20000E+003	s	2.00000E+000	hour(s)	Max Discharge Time
DISCHARGEMODE	MULTIPARAM	0	1.00000E-001	Discharge Mode	Constant Current	Amp(s)
VOLTAGEFINISH	TWOPARAM	T	5.00000E-003	7.20000E+003	Voltage Finish	I (A) <	Max Time(s)
SAMPLETIME	QUANT	1.00000E+000	Sample Period (s)
DISCHARGESTOPAT1	MULTIPARAM	1	5.00000E-002	Stop At 1	|Voltage| < Limit	V
DISCHARGESTOPAT2	MULTIPARAM	0	0.00000E+000	Stop At 2	None	N/A
AESELECTOR	AESELECTOR	0x1	T	Set Limits	AE Channels
AESBHCSELECTOR	TOGGLE	F	Save Both Half Cells
IRCOMP	TOGGLE	F	IR Measure
EOC	QUANT	0.5729675	Open Circuit (V)
SEQUENCER	TOGGLE	TRUE	Run as Sequence
PSTATMODEL	IQUANT	5	Pstat Model
PSTATSECTION	LABEL	REF3000-21114	Pstat Section
PSTATSERIALNO	LABEL	21114	Pstat Serial Number
CTRLMODE	IQUANT	0	Control Mode
ELECTROMETER	IQUANT	0	RE=0 or CS=1
IESTAB	IQUANT	0	I/E Stability
CASPEED	IQUANT	4	Control Amp Speed
CONVENTION	IQUANT	1	Current Convention
ICHRANGE	IQUANT	2	Ich Range
ICHRANGEMODE	TOGGLE	T	Ich Auto Range
ICHOFFSETENABLE	TOGGLE	F	Ich Offset Enable
ICHOFFSET	QUANT	0	Ich Offset (V)
ICHFILTER	IQUANT	1	Ich Filter
VCHRANGE	IQUANT	3	Vch Range
VCHRANGEMODE	TOGGLE	T	Vch Auto Range
VCHOFFSETENABLE	TOGGLE	F	Vch Offset Enable
VCHOFFSET	QUANT	0	Vch Offset (V)
VCHFILTER	IQUANT	1	Vch Filter
ACHRANGE	IQUANT	2	Ach Range
ACHOFFSETENABLE	TOGGLE	F	Ach Offset Enable
ACHOFFSET	QUANT	0	Ach Offset (V)
ACHFILTER	IQUANT	1	Ach Filter
IERANGELOWERLIMIT	IQUANT	9	I/E Range Lower Limit
IERANGEMODE	TOGGLE	F	I/E AutoRange
IERANGE	IQUANT	9	I/E Range
POSFEEDENABLE	TOGGLE	F	Positive Feedback IR Comp
POSFEEDRESISTANCE	QUANT	0	Positive Feedback Resistance (ohm)
ACHSELECT	IQUANT	1	Ach Select
SENSECABLEID	IQUANT	13	Sense Cable ID
PWRCABLEID	IQUANT	13	Power Cable ID
DCCALDATE	LABEL		DC Calibration Date
ACCALDATE	LABEL		AC Calibration Date
THERMOSELECT	IQUANT	1	Thermo Select
FRAMEWORKVERSION	LABEL	7.8.6	Framework Version
INSTRUMENTVERSION	LABEL	4.50	Instrument Version
COMPLIANCEVOLTAGE	IQUANT	0	Compliance Voltage
CURVE	TABLE	247
	Pt	T	Vf	Im	Vu	Pwr	Sig	Ach	Temp	IERange	Over	Vf1	Vf2	Vf3	Vf4	Vf5	Vf6	Vf7	Vf8	Pwr1	Pwr2	Pwr3	Pwr4	Pwr5	Pwr6	Pwr7	Pwr8
	#	s	V	A	V	W	V	V	deg C	#	bits	V	V	V	V	V	V	V	V	W	W	W	W	W	W	W	W
	0	1	3.47795E-001	-1.00089E-001	0.00000E+000	-3.48106E-002	-9.94000E-001	3.67253E-002	3.15887E+001	11	...........	6.09793E-002	-5.26389E-003	6.09230E-001	5.35007E-001	-2.53754E-002	-3.59990E-002	7.05790E-001	-4.37539E-002	-6.10338E-003	5.26859E-004	-6.09774E-002	-5.35485E-002	2.53981E-003	3.60312E-003	-7.06420E-002	4.37930E-003
	1	2	2.62304E-001	-1.00090E-001	0.00000E+000	-2.62541E-002	-9.94000E-001	3.68639E-002	3.12148E+001	11	...........	6.12029E-002	-5.24806E-003	6.09370E-001	5.34873E-001	-2.54176E-002	-3.60128E-002	7.05833E-001	-4.37029E-002	-6.12582E-003	5.25280E-004	-6.09920E-002	-5.35356E-002	2.54406E-003	3.60453E-003	-7.06471E-002	4.37424E-003
	2	3	1.99484E-001	-1.00091E-001	0.00000E+000	-1.99666E-002	-9.94000E-001	3.67723E-002	3.03046E+001	11	...........	6.10532E-002	-5.23736E-003	6.09524E-001	5.34737E-001	-2.54793E-002	-3.60144E-002	7.05920E-001	-4.37836E-002	-6.11087E-003	5.24212E-004	-6.10078E-002	-5.35223E-002	2.55025E-003	3.60472E-003	-7.06561E-002	4.38234E-003
	3	4	1.49074E-001	-1.00091E-001	0.00000E+000	-1.49210E-002	-9.94000E-001	3.67126E-002	2.94172E+001	11	...........	6.09550E-002	-5.13361E-003	6.09503E-001	5.34531E-001	-2.55081E-002	-3.60426E-002	7.05952E-001	-4.38603E-002	-6.10106E-003	5.13829E-004	-6.10058E-002	-5.35018E-002	2.55313E-003	3.60755E-003	-7.06596E-002	4.39003E-003
	4	5	1.08778E-001	-1.00091E-001	0.00000E+000	-1.08877E-002	-9.94000E-001	3.67367E-002	2.93430E+001	11	...........	6.09983E-002	-5.13431E-003	6.09366E-001	5.34498E-001	-2.55292E-002	-3.60658E-002	7.06056E-001	-4.37711E-002	-6.10537E-003	5.13896E-004	-6.09919E-002	-5.34982E-002	2.55523E-003	3.60985E-003	-7.06697E-002	4.38108E-003
	5	6	7.71220E-002	-1.00091E-001	0.00000E+000	-7.71921E-003	-9.94000E-001	3.66365E-002	2.86141E+001	11	...........	6.08742E-002	-5.26403E-003	6.09488E-001	5.34463E-001	-2.55653E-002	-3.60697E-002	7.05934E-001	-4.35968E-002	-6.09295E-003	5.26881E-004	-6.10041E-002	-5.34949E-002	2.55885E-003	3.61025E-003	-7.06575E-002	4.36364E-003
	6	6.66333	5.62234E-002	-1.00091E-001	0.00000E+000	-5.62745E-003	-9.94000E-001	3.67332E-002	2.87089E+001	11	...........	6.10048E-002	-5.30025E-003	6.09535E-001	5.34245E-001	-2.56007E-002	-3.60710E-002	7.05897E-001	-4.35287E-002	-6.10603E-003	5.30507E-004	-6.10089E-002	-5.34731E-002	2.56240E-003	3.61038E-003	-7.06538E-002	4.35682E-003
	7	7	4.98037E-002	-9.71894E-002	0.00000E+000	-4.84039E-003	-9.65139E-001	3.68582E-002	2.89490E+001	11	...........	6.12059E-002	-5.20545E-003	6.09489E-001	5.34151E-001	-2.56382E-002	-3.60594E-002	7.05899E-001	-4.36262E-002	-5.94856E-003	5.05914E-004	-5.92359E-002	-5.19139E-002	2.49176E-003	3.50459E-003	-6.86059E-002	4.24001E-003
	8	8	4.98742E-002	-8.93777E-002	0.00000E+000	-4.45764E-003	-8.87492E-001	3.69718E-002	2.93220E+001	11	...........	6.13911E-002	-5.22042E-003	6.09339E-001	5.34212E-001	-2.56471E-002	-3.60576E-002	7.05883E-001	-4.38179E-002	-5.48699E-003	4.66589E-004	-5.44613E-002	-4.77467E-002	2.29228E-003	3.22275E-003	-6.30902E-002	3.91634E-003
	9	9	4.99183E-002	-8.20751E-002	0.00000E+000	-4.09705E-003	-8.14883E-001	3.70656E-002	2.95968E+001	11	...........	6.15300E-002	-5.29000E-003	6.09379E-001	5.34147E-001	-2.55951E-002	-3.60726E-002	7.06067E-001	-4.37253E-002	-5.05008E-003	4.34177E-004	-5.00149E-002	-4.38402E-002	2.10072E-003	2.96067E-003	-5.79505E-002	3.58876E-003
	10	10	4.99439E-002	-7.79130E-002	0.00000E+000	-3.89128E-003	-7.73505E-001	3.72437E-002	3.00525E+001	11	...........	6.18242E-002	-5.37972E-003	6.09434E-001	5.34186E-001	-2.55853E-002	-3.60549E-002	7.06025E-001	-4.38062E-002	-4.81690E-003	4.19150E-004	-4.74828E-002	-4.16200E-002	1.99342E-003	2.80914E-003	-5.50085E-002	3.41307E-003
	11	11	4.99405E-002	-7.46191E-002	0.00000E+000	-3.72652E-003	-7.40761E-001	3.73282E-002	2.95355E+001	11	...........	6.19521E-002	-5.48444E-003	6.09397E-001	5.34255E-001	-2.56282E-002	-3.60360E-002	7.05994E-001	-4.37479E-002	-4.62281E-003	4.09244E-004	-4.54726E-002	-3.98657E-002	1.91235E-003	2.68897E-003	-5.26806E-002	3.26443E-003
	12	12	4.99802E-002	-7.15765E-002	0.00000E+000	-3.57741E-003	-7.10548E-001	3.73044E-002	2.98734E+001	11	...........	6.19087E-002	-5.37069E-003	6.09123E-001	5.34307E-001	-2.57000E-002	-3.60497E-002	7.05979E-001	-4.36837E-002	-4.43121E-003	3.84416E-004	-4.35989E-002	-3.82438E-002	1.83952E-003	2.58031E-003	-5.05315E-002	3.12673E-003
	13	13	4.99743E-002	-7.11812E-002	0.00000E+000	-3.55723E-003	-7.06612E-001	3.75342E-002	3.05981E+001	11	...........	6.23182E-002	-5.36819E-003	6.09019E-001	5.34315E-001	-2.56731E-002	-3.60789E-002	7.06039E-001	-4.36383E-002	-4.43589E-003	3.82115E-004	-4.33507E-002	-3.80332E-002	1.82744E-003	2.56814E-003	-5.02567E-002	3.10623E-003
	14	14	4.99763E-002	-6.97774E-002	0.00000E+000	-3.48722E-003	-6.92630E-001	3.75479E-002	3.06476E+001	11	...........	6.23792E-002	-5.43444E-003	6.09061E-001	5.34291E-001	-2.56606E-002	-3.60979E-002	7.05985E-001	-4.36169E-002	-4.35266E-003	3.79201E-004	-4.24987E-002	-3.72814E-002	1.79053E-003	2.51882E-003	-4.92618E-002	3.04348E-003
	15	15	4.99730E-002	-6.83864E-002	0.00000E+000	-3.41747E-003	-6.78803E-001	3.76256E-002	3.07168E+001	11	...........	6.24699E-002	-5.46889E-003	6.09139E-001	5.34190E-001	-2.57253E-002	-3.61037E-002	7.05939E-001	-4.36207E-002	-4.27209E-003	3.73998E-004	-4.16568E-002	-3.65313E-002	1.75926E-003	2.46901E-003	-4.82766E-002	2.98306E-003
	16	16	4.99500E-002	-6.69872E-002	0.00000E+000	-3.34602E-003	-6.64887E-001	3.77190E-002	3.04584E+001	11	...........	6.26390E-002	-5.44875E-003	6.09245E-001	5.34072E-001	-2.57994E-002	-3.61260E-002	7.05889E-001	-4.34524E-002	-4.19602E-003	3.64997E-004	-4.08116E-002	-3.57760E-002	1.72823E-003	2.41998E-003	-4.72856E-002	2.91075E-003
	17	17	5.00014E-002	-6.53351E-002	0.00000E+000	-3.26684E-003	-6.48449E-001	3.76995E-002	3.06771E+001	11	...........	6.26076E-002	-5.43250E-003	6.09201E-001	5.33953E-001	-2.57715E-002	-3.61843E-002	7.05967E-001	-4.35121E-002	-4.09047E-003	3.54933E-004	-3.98022E-002	-3.48859E-002	1.68378E-003	2.36410E-003	-4.61244E-002	2.84287E-003
	18	18	4.99807E-002	-6.52370E-002	0.00000E+000	-3.26059E-003	-6.47480E-001	3.78181E-002	3.08064E+001	11	...........	6.27801E-002	-5.43208E-003	6.09269E-001	5.33753E-001	-2.57474E-002	-3.62347E-002	7.05947E-001	-4.35660E-002	-4.09559E-003	3.54373E-004	-3.97469E-002	-3.48204E-002	1.67968E-003	2.36384E-003	-4.60539E-002	2.84211E-003
	19	19	4.99704E-002	-6.46568E-002	0.00000E+000	-3.23093E-003	-6.41713E-001	3.79162E-002	3.08503E+001	11	...........	6.29501E-002	-5.39597E-003	6.09336E-001	5.33928E-001	-2.57508E-002	-3.62512E-002	7.06019E-001	-4.34574E-002	-4.07015E-003	3.48886E-004	-3.93977E-002	-3.45220E-002	1.66497E-003	2.34389E-003	-4.56489E-002	2.80981E-003
	20	20	4.99907E-002	-6.34993E-002	0.00000E+000	-3.17437E-003	-6.30209E-001	3.78317E-002	3.12643E+001	11	...........	6.29792E-002	-5.41278E-003	6.09405E-001	5.33880E-001	-2.57972E-002	-3.62782E-002	7.06075E-001	-4.34826E-002	-3.99913E-003	3.43708E-004	-3.86968E-002	-3.39010E-002	1.63811E-003	2.30364E-003	-4.48353E-002	2.76112E-003
	21	21	4.99774E-002	-6.30814E-002	0.00000E+000	-3.15264E-003	-6.26045E-001	3.78277E-002	3.14679E+001	11	...........	6.30692E-002	-5.57153E-003	6.09309E-001	5.33896E-001	-2.58249E-002	-3.62772E-002	7.06153E-001	-4.35226E-002	-3.97849E-003	3.51460E-004	-3.84360E-002	-3.36789E-002	1.62907E-003	2.28842E-003	-4.45451E-002	2.74547E-003
	22	22	4.99526E-002	-6.17432E-002	0.00000E+000	-3.08424E-003	-6.12742E-001	3.78616E-002	3.04816E+001	11	...........	6.31324E-002	-5.43986E-003	6.09188E-001	5.33919E-001	-2.58058E-002	-3.62951E-002	7.06225E-001	-4.36731E-002	-3.89800E-003	3.35875E-004	-3.76132E-002	-3.29659E-002	1.59334E-003	2.24098E-003	-4.36046E-002	2.69652E-003
	23	23	5.00079E-002	-6.06795E-002	0.00000E+000	-3.03445E-003	-6.02193E-001	3.79136E-002	3.11276E+001	11	...........	6.32136E-002	-5.36972E-003	6.09371E-001	5.33946E-001	-2.57867E-002	-3.63235E-002	7.06122E-001	-4.37114E-002	-3.83577E-003	3.25832E-004	-3.69763E-002	-3.23996E-002	1.56472E-003	2.20409E-003	-4.28471E-002	2.65239E-003
	24	24	4.99861E-002	-6.09497E-002	0.00000E+000	-3.04663E-003	-6.04884E-001	3.80218E-002	3.16404E+001	11	...........	6.34161E-002	-5.39972E-003	6.09361E-001	5.33939E-001	-2.57894E-002	-3.63240E-002	7.06222E-001	-4.37576E-002	-3.86519E-003	3.29111E-004	-3.71403E-002	-3.25434E-002	1.57186E-003	2.21394E-003	-4.30440E-002	2.66701E-003
	25	25	4.99770E-002	-6.02335E-002	0.00000E+000	-3.01029E-003	-5.97737E-001	3.80502E-002	3.13730E+001	11	...........	6.34497E-002	-5.47208E-003	6.09511E-001	5.34062E-001	-2.58083E-002	-3.63494E-002	7.06284E-001	-4.38293E-002	-3.82180E-003	3.29603E-004	-3.67130E-002	-3.21685E-002	1.55453E-003	2.18945E-003	-4.25420E-002	2.63999E-003
	26	26	4.99779E-002	-5.95925E-002	0.00000E+000	-2.97831E-003	-5.91361E-001	3.81120E-002	3.15019E+001	11	...........	6.35542E-002	-5.39097E-003	6.09554E-001	5.33904E-001	-2.58200E-002	-3.64043E-002	7.06224E-001	-4.37664E-002	-3.78735E-003	3.21262E-004	-3.63248E-002	-3.18167E-002	1.53868E-003	2.16942E-003	-4.20857E-002	2.60815E-003
	27	27	4.99643E-002	-5.83444E-002	0.00000E+000	-2.91514E-003	-5.78965E-001	3.81335E-002	3.07277E+001	11	...........	6.35926E-002	-5.37819E-003	6.09546E-001	5.33876E-001	-2.57867E-002	-3.64361E-002	7.06207E-001	-4.37342E-002	-3.71027E-003	3.13787E-004	-3.55636E-002	-3.11486E-002	1.50451E-003	2.12584E-003	-4.12032E-002	2.55164E-003
	28	28	5.00001E-002	-5.76239E-002	0.00000E+000	-2.88120E-003	-5.71795E-001	3.82001E-002	3.09207E+001	11	...........	6.37151E-002	-5.27764E-003	6.09707E-001	5.33971E-001	-2.57444E-002	-3.64521E-002	7.06169E-001	-4.37292E-002	-3.67151E-003	3.04118E-004	-3.51337E-002	-3.07695E-002	1.48349E-003	2.10051E-003	-4.06922E-002	2.51984E-003
	29	29	4.99897E-002	-5.74411E-002	0.00000E+000	-2.87146E-003	-5.69973E-001	3.82262E-002	3.17224E+001	11	...........	6.37736E-002	-5.41819E-003	6.09754E-001	5.33957E-001	-2.57451E-002	-3.64628E-002	7.06205E-001	-4.38283E-002	-3.66323E-003	3.11227E-004	-3.50249E-002	-3.06711E-002	1.47883E-003	2.09446E-003	-4.05652E-002	2.51755E-003
	30	30	4.99772E-002	-5.73420E-002	0.00000E+000	-2.86579E-003	-5.68977E-001	3.83012E-002	3.19113E+001	11	...........	6.39244E-002	-5.51167E-003	6.09666E-001	5.33991E-001	-2.57718E-002	-3.65061E-002	7.06216E-001	-4.38083E-002	-3.66555E-003	3.16050E-004	-3.49594E-002	-3.06201E-002	1.47781E-003	2.09333E-003	-4.04958E-002	2.51206E-003
	31	31	4.99842E-002	-5.66166E-002	0.00000E+000	-2.82993E-003	-5.61779E-001	3.82887E-002	3.17575E+001	11	...........	6.38953E-002	-5.49014E-003	6.09686E-001	5.33968E-001	-2.58036E-002	-3.65297E-002	7.06184E-001	-4.36057E-002	-3.61753E-003	3.10833E-004	-3.45184E-002	-3.02315E-002	1.46091E-003	2.06819E-003	-3.99817E-002	2.46881E-003
	32	32	4.99717E-002	-5.59428E-002	0.00000E+000	-2.79556E-003	-5.55084E-001	3.83863E-002	3.18277E+001	11	...........	6.40676E-002	-5.45000E-003	6.09687E-001	5.33922E-001	-2.57967E-002	-3.65232E-002	7.06142E-001	-4.37468E-002	-3.58413E-003	3.04888E-004	-3.41076E-002	-2.98691E-002	1.44314E-003	2.04321E-003	-3.95036E-002	2.44732E-003
	33	33	4.99630E-002	-5.49784E-002	0.00000E+000	-2.74689E-003	-5.45481E-001	3.83699E-002	3.09586E+001	11	...........	6.40256E-002	-5.30250E-003	6.09805E-001	5.33924E-001	-2.57743E-002	-3.65431E-002	7.06178E-001	-4.37104E-002	-3.52002E-003	2.91523E-004	-3.35261E-002	-2.93543E-002	1.41703E-003	2.00908E-003	-3.88245E-002	2.40313E-003
	34	34	5.00114E-002	-5.43007E-002	0.00000E+000	-2.71565E-003	-5.38747E-001	3.84668E-002	3.16386E+001	11	...........	6.41854E-002	-5.28167E-003	6.09808E-001	5.33915E-001	-2.57883E-002	-3.65649E-002	7.06211E-001	-4.38443E-002	-3.48531E-003	2.86798E-004	-3.31130E-002	-2.89920E-002	1.40033E-003	1.98550E-003	-3.83478E-002	2.38078E-003
	35	35	4.99834E-002	-5.44566E-002	0.00000E+000	-2.72192E-003	-5.40290E-001	3.85503E-002	3.21820E+001	11	...........	6.43376E-002	-5.30278E-003	6.09670E-001	5.33844E-001	-2.58106E-002	-3.66025E-002	7.06131E-001	-4.38733E-002	-3.50361E-003	2.88771E-004	-3.32006E-002	-2.90714E-002	1.40556E-003	1.99325E-003	-3.84535E-002	2.38919E-003
	36	36	4.99806E-002	-5.38216E-002	0.00000E+000	-2.69004E-003	-5.33995E-001	3.86050E-002	3.14478E+001	11	...........	6.44114E-002	-5.19375E-003	6.09629E-001	5.33790E-001	-2.58124E-002	-3.66146E-002	7.05983E-001	-4.37257E-002	-3.46673E-003	2.79536E-004	-3.28113E-002	-2.87294E-002	1.38926E-003	1.97066E-003	-3.79971E-002	2.35339E-003
	37	37	4.99894E-002	-5.30387E-002	0.00000E+000	-2.65137E-003	-5.26203E-001	3.85525E-002	3.19327E+001	11	...........	6.43099E-002	-5.19542E-003	6.09586E-001	5.33717E-001	-2.58008E-002	-3.66046E-002	7.05957E-001	-4.36460E-002	-3.41091E-003	2.75558E-004	-3.23316E-002	-2.83076E-002	1.36844E-003	1.94146E-003	-3.74430E-002	2.31492E-003
	38	38	4.99748E-002	-5.29534E-002	0.00000E+000	-2.64633E-003	-5.25357E-001	3.87177E-002	3.20712E+001	11	...........	6.45911E-002	-5.22236E-003	6.09618E-001	5.33660E-001	-2.57757E-002	-3.66128E-002	7.05983E-001	-4.37219E-002	-3.42032E-003	2.76542E-004	-3.22814E-002	-2.82591E-002	1.36491E-003	1.93877E-003	-3.73842E-002	2.31523E-003
	39	39	4.99734E-002	-5.18146E-002	0.00000E+000	-2.58935E-003	-5.14039E-001	3.86448E-002	3.14785E+001	11	...........	6.44814E-002	-5.22347E-003	6.09653E-001	5.33636E-001	-2.57486E-002	-3.66274E-002	7.05952E-001	-4.38315E-002	-3.34108E-003	2.70652E-004	-3.15890E-002	-2.76502E-002	1.33415E-003	1.89783E-003	-3.65786E-002	2.27111E-003
	40	40	4.99934E-002	-5.13074E-002	0.00000E+000	-2.56503E-003	-5.09014E-001	3.87288E-002	3.18628E+001	11	...........	6.46169E-002	-5.23306E-003	6.09694E-001	5.33676E-001	-2.57617E-002	-3.66508E-002	7.05961E-001	-4.37293E-002	-3.31533E-003	2.68495E-004	-3.12818E-002	-2.73815E-002	1.32176E-003	1.88046E-003	-3.62210E-002	2.24364E-003
	41	41	4.99861E-002	-5.12637E-002	0.00000E+000	-2.56247E-003	-5.08592E-001	3.88233E-002	3.23514E+001	11	...........	6.47594E-002	-5.35069E-003	6.09620E-001	5.33739E-001	-2.57249E-002	-3.66551E-002	7.06057E-001	-4.37933E-002	-3.31981E-003	2.74296E-004	-3.12514E-002	-2.73614E-002	1.31875E-003	1.87908E-003	-3.61951E-002	2.24501E-003
	42	42	4.99831E-002	-5.06644E-002	0.00000E+000	-2.53237E-003	-5.02638E-001	3.88359E-002	3.24640E+001	11	...........	6.47989E-002	-5.32778E-003	6.09381E-001	5.33750E-001	-2.56693E-002	-3.66681E-002	7.05963E-001	-4.37737E-002	-3.28300E-003	2.69929E-004	-3.08739E-002	-2.70421E-002	1.30052E-003	1.85777E-003	-3.57672E-002	2.21777E-003
	43	43	4.99787E-002	-5.02404E-002	0.00000E+000	-2.51095E-003	-4.98407E-001	3.88464E-002	3.20053E+001	11	...........	6.48255E-002	-5.30264E-003	6.09313E-001	5.33727E-001	-2.56219E-002	-3.66837E-002	7.05985E-001	-4.37197E-002	-3.25686E-003	2.66407E-004	-3.06121E-002	-2.68147E-002	1.28726E-003	1.84301E-003	-3.54690E-002	2.19650E-003
	44	44	4.99842E-002	-4.91591E-002	0.00000E+000	-2.45718E-003	-4.87647E-001	3.87734E-002	3.21165E+001	11	...........	6.46867E-002	-5.37792E-003	6.09353E-001	5.33747E-001	-2.56425E-002	-3.67226E-002	7.05966E-001	-4.37178E-002	-3.17994E-003	2.64374E-004	-2.99553E-002	-2.62385E-002	1.26056E-003	1.80525E-003	-3.47046E-002	2.14913E-003
	45	45	4.99850E-002	-4.87780E-002	0.00000E+000	-2.43817E-003	-4.83871E-001	3.90612E-002	3.22066E+001	11	...........	6.51553E-002	-5.45639E-003	6.09504E-001	5.33826E-001	-2.56683E-002	-3.67419E-002	7.05992E-001	-4.37799E-002	-3.17815E-003	2.66152E-004	-2.97304E-002	-2.60390E-002	1.25205E-003	1.79220E-003	-3.44369E-002	2.13550E-003
	46	46	4.99754E-002	-4.79330E-002	0.00000E+000	-2.39547E-003	-4.75463E-001	3.88993E-002	3.20087E+001	11	...........	6.48821E-002	-5.29806E-003	6.09545E-001	5.33794E-001	-2.56053E-002	-3.67431E-002	7.05922E-001	-4.36854E-002	-3.10999E-003	2.53952E-004	-2.92173E-002	-2.55864E-002	1.22734E-003	1.76121E-003	-3.38370E-002	2.09397E-003
	47	47	4.99896E-002	-4.78896E-002	0.00000E+000	-2.39398E-003	-4.75047E-001	3.90471E-002	3.24256E+001	11	...........	6.51461E-002	-5.26708E-003	6.09688E-001	5.33556E-001	-2.55971E-002	-3.67417E-002	7.05889E-001	-4.36081E-002	-3.11982E-003	2.52239E-004	-2.91977E-002	-2.55518E-002	1.22584E-003	1.75955E-003	-3.38048E-002	2.08837E-003
	48	48	4.99816E-002	-4.77010E-002	0.00000E+000	-2.38418E-003	-4.73165E-001	3.90824E-002	3.23968E+001	11	...........	6.51899E-002	-5.29875E-003	6.09661E-001	5.33535E-001	-2.55808E-002	-3.67518E-002	7.06001E-001	-4.36792E-002	-3.10962E-003	2.52756E-004	-2.90815E-002	-2.54502E-002	1.22023E-003	1.75310E-003	-3.36770E-002	2.08354E-003
	49	49	4.99854E-002	-4.72861E-002	0.00000E+000	-2.36361E-003	-4.69013E-001	3.91036E-002	3.26539E+001	11	...........	6.52408E-002	-5.28403E-003	6.09553E-001	5.33538E-001	-2.56036E-002	-3.67589E-002	7.06159E-001	-4.36347E-002	-3.08498E-003	2.49861E-004	-2.88234E-002	-2.52289E-002	1.21069E-003	1.73818E-003	-3.33915E-002	2.06332E-003
	50	50	4.99835E-002	-4.66486E-002	0.00000E+000	-2.33166E-003	-4.62683E-001	3.91147E-002	3.27236E+001	11	...........	6.52690E-002	-5.32403E-003	6.09557E-001	5.33600E-001	-2.56312E-002	-3.67460E-002	7.06094E-001	-4.35925E-002	-3.04471E-003	2.48358E-004	-2.84350E-002	-2.48917E-002	1.19566E-003	1.71415E-003	-3.29383E-002	2.03353E-003
	51	51	4.99852E-002	-4.62871E-002	0.00000E+000	-2.31367E-003	-4.59091E-001	3.91874E-002	3.27828E+001	11	...........	6.53757E-002	-5.30222E-003	6.09460E-001	5.33439E-001	-2.56601E-002	-3.67686E-002	7.06011E-001	-4.37218E-002	-3.02605E-003	2.45425E-004	-2.82101E-002	-2.46914E-002	1.18773E-003	1.70191E-003	-3.26792E-002	2.02376E-003
	52	52	4.99826E-002	-4.56789E-002	0.00000E+000	-2.28315E-003	-4.53048E-001	3.92210E-002	3.27138E+001	11	...........	6.54178E-002	-5.30194E-003	6.09427E-001	5.33415E-001	-2.56650E-002	-3.67411E-002	7.05971E-001	-4.37813E-002	-2.98821E-003	2.42187E-004	-2.78379E-002	-2.43658E-002	1.17235E-003	1.67829E-003	-3.22480E-002	1.99988E-003
	53	53	4.99703E-002	-4.48938E-002	0.00000E+000	-2.24336E-003	-4.45236E-001	3.92816E-002	3.15893E+001	11	...........	6.55182E-002	-5.23347E-003	6.09436E-001	5.33441E-001	-2.56582E-002	-3.67428E-002	7.05866E-001	-4.38653E-002	-2.94136E-003	2.34951E-004	-2.73599E-002	-2.39482E-002	1.15190E-003	1.64952E-003	-3.16890E-002	1.96928E-003
	54	54	4.99945E-002	-4.40850E-002	0.00000E+000	-2.20401E-003	-4.37183E-001	3.92426E-002	3.24163E+001	11	...........	6.54815E-002	-5.18847E-003	6.09262E-001	5.33326E-001	-2.56749E-002	-3.67360E-002	7.05874E-001	-4.37667E-002	-2.88675E-003	2.28734E-004	-2.68593E-002	-2.35117E-002	1.13188E-003	1.61951E-003	-3.11184E-002	1.92945E-003
	55	55	4.99848E-002	-4.42669E-002	0.00000E+000	-2.21267E-003	-4.38983E-001	3.93142E-002	3.29985E+001	11	...........	6.55962E-002	-5.30250E-003	6.09365E-001	5.33322E-001	-2.56487E-002	-3.67229E-002	7.05929E-001	-4.38535E-002	-2.90374E-003	2.34725E-004	-2.69747E-002	-2.36085E-002	1.13539E-003	1.62561E-003	-3.12493E-002	1.94126E-003
	56	56	4.99837E-002	-4.38883E-002	0.00000E+000	-2.19370E-003	-4.35245E-001	3.93477E-002	3.26368E+001	11	...........	6.56554E-002	-5.39500E-003	6.09440E-001	5.33413E-001	-2.56612E-002	-3.67468E-002	7.05878E-001	-4.38856E-002	-2.88151E-003	2.36778E-004	-2.67473E-002	-2.34106E-002	1.12623E-003	1.61276E-003	-3.09798E-002	1.92606E-003
	57	57	4.99803E-002	-4.27862E-002	0.00000E+000	-2.13847E-003	-4.24281E-001	3.93312E-002	3.24351E+001	11	...........	6.56122E-002	-5.39444E-003	6.09311E-001	5.33496E-001	-2.56935E-002	-3.67371E-002	7.05939E-001	-4.38292E-002	-2.80730E-003	2.30808E-004	-2.60701E-002	-2.28263E-002	1.09933E-003	1.57184E-003	-3.02045E-002	1.87528E-003
	58	58	4.99758E-002	-4.24290E-002	0.00000E+000	-2.12042E-003	-4.20720E-001	3.93614E-002	3.23310E+001	11	...........	6.56597E-002	-5.34708E-003	6.09349E-001	5.33606E-001	-2.57296E-002	-3.67246E-002	7.05986E-001	-4.38678E-002	-2.78588E-003	2.26872E-004	-2.58541E-002	-2.26404E-002	1.09168E-003	1.55819E-003	-2.99543E-002	1.86127E-003
	59	59	4.99975E-002	-4.25038E-002	0.00000E+000	-2.12508E-003	-4.21468E-001	3.94718E-002	3.30044E+001	11	...........	6.58417E-002	-5.41375E-003	6.09443E-001	5.33702E-001	-2.57476E-002	-3.67107E-002	7.05869E-001	-4.38574E-002	-2.79852E-003	2.30105E-004	-2.59036E-002	-2.26843E-002	1.09437E-003	1.56034E-003	-3.00021E-002	1.86410E-003
	60	60	4.99830E-002	-4.21988E-002	0.00000E+000	-2.10922E-003	-4.18419E-001	3.94395E-002	3.32231E+001	11	...........	6.58161E-002	-5.41181E-003	6.09328E-001	5.33793E-001	-2.57621E-002	-3.67353E-002	7.05981E-001	-4.38239E-002	-2.77736E-003	2.28372E-004	-2.57129E-002	-2.25254E-002	1.08713E-003	1.55018E-003	-2.97915E-002	1.84931E-003
	61	61	4.99805E-002	-4.17257E-002	0.00000E+000	-2.08547E-003	-4.13719E-001	3.95008E-002	3.28068E+001	11	...........	6.58953E-002	-5.30986E-003	6.09291E-001	5.33733E-001	-2.57633E-002	-3.67618E-002	7.05921E-001	-4.38371E-002	-2.74953E-003	2.21558E-004	-2.54231E-002	-2.22704E-002	1.07499E-003	1.53391E-003	-2.94550E-002	1.82913E-003
	62	62	4.99852E-002	-4.10832E-002	0.00000E+000	-2.05355E-003	-4.07371E-001	3.94909E-002	3.29760E+001	11	...........	6.58964E-002	-5.24806E-003	6.09411E-001	5.33682E-001	-2.57576E-002	-3.67357E-002	7.05817E-001	-4.38750E-002	-2.70724E-003	2.15607E-004	-2.50366E-002	-2.19254E-002	1.05821E-003	1.50922E-003	-2.89972E-002	1.80253E-003
	63	63	4.99827E-002	-4.04143E-002	0.00000E+000	-2.02001E-003	-4.00714E-001	3.94826E-002	3.28250E+001	11	...........	6.58817E-002	-5.33583E-003	6.09478E-001	5.33726E-001	-2.57375E-002	-3.67274E-002	7.05773E-001	-4.39392E-002	-2.66256E-003	2.15644E-004	-2.46316E-002	-2.15701E-002	1.04016E-003	1.48431E-003	-2.85233E-002	1.77577E-003
	64	64	4.99817E-002	-4.01710E-002	0.00000E+000	-2.00782E-003	-3.98306E-001	3.96055E-002	3.26633E+001	11	...........	6.60853E-002	-5.40681E-003	6.09596E-001	5.33840E-001	-2.57750E-002	-3.67269E-002	7.05834E-001	-4.39518E-002	-2.65471E-003	2.17197E-004	-2.44881E-002	-2.14449E-002	1.03541E-003	1.47536E-003	-2.83541E-002	1.76559E-003
	65	65	4.99846E-002	-3.94531E-002	0.00000E+000	-1.97205E-003	-3.91143E-001	3.94643E-002	3.29587E+001	11	...........	6.58517E-002	-5.34639E-003	6.09436E-001	5.33989E-001	-2.58067E-002	-3.67625E-002	7.05939E-001	-4.39488E-002	-2.59805E-003	2.10932E-004	-2.40441E-002	-2.10675E-002	1.01815E-003	1.45039E-003	-2.78515E-002	1.73391E-003
	66	66	4.99886E-002	-3.94280E-002	0.00000E+000	-1.97095E-003	-3.90891E-001	3.96145E-002	3.33447E+001	11	...........	6.60835E-002	-5.36944E-003	6.09392E-001	5.33991E-001	-2.58067E-002	-3.67744E-002	7.06042E-001	-4.38821E-002	-2.60554E-003	2.11707E-004	-2.40271E-002	-2.10542E-002	1.01751E-003	1.44994E-003	-2.78378E-002	1.73018E-003
	67	67	4.99805E-002	-3.90114E-002	0.00000E+000	-1.94981E-003	-3.86757E-001	3.95416E-002	3.30149E+001	11	...........	6.61136E-002	-5.45417E-003	6.09417E-001	5.33833E-001	-2.57515E-002	-3.68044E-002	7.05950E-001	-4.38242E-002	-2.57919E-003	2.12775E-004	-2.37742E-002	-2.08256E-002	1.00460E-003	1.43579E-003	-2.75402E-002	1.70964E-003
	68	68	4.99828E-002	-3.84427E-002	0.00000E+000	-1.92147E-003	-3.81125E-001	3.96462E-002	3.33790E+001	11	...........	6.61501E-002	-5.38931E-003	6.09290E-001	5.33947E-001	-2.56810E-002	-3.67867E-002	7.05842E-001	-4.39172E-002	-2.54299E-003	2.07179E-004	-2.34227E-002	-2.05264E-002	9.87246E-004	1.41418E-003	-2.71345E-002	1.68830E-003
	69	69	4.99827E-002	-3.77122E-002	0.00000E+000	-1.88496E-003	-3.73851E-001	3.95792E-002	3.26779E+001	11	...........	6.60093E-002	-5.42097E-003	6.09289E-001	5.34077E-001	-2.56686E-002	-3.68085E-002	7.05835E-001	-4.38831E-002	-2.48936E-003	2.04437E-004	-2.29776E-002	-2.01412E-002	9.68020E-004	1.38813E-003	-2.66186E-002	1.65493E-003
	70	70	4.99875E-002	-3.76240E-002	0.00000E+000	-1.88073E-003	-3.72985E-001	3.97580E-002	3.32590E+001	11	...........	6.63468E-002	-5.41875E-003	6.09381E-001	5.34129E-001	-2.56819E-002	-3.68167E-002	7.05861E-001	-4.39737E-002	-2.49623E-003	2.03875E-004	-2.29273E-002	-2.00961E-002	9.66258E-004	1.38519E-003	-2.65573E-002	1.65447E-003
	71	71	4.99857E-002	-3.73737E-002	0.00000E+000	-1.86815E-003	-3.70479E-001	3.97193E-002	3.36072E+001	11	...........	6.62647E-002	-5.40681E-003	6.09567E-001	5.34166E-001	-2.57047E-002	-3.68439E-002	7.06007E-001	-4.39401E-002	-2.47656E-003	2.02072E-004	-2.27818E-002	-1.99637E-002	9.60680E-004	1.37699E-003	-2.63861E-002	1.64220E-003
	72	72	4.99853E-002	-3.69591E-002	0.00000E+000	-1.84741E-003	-3.66333E-001	3.97620E-002	3.36073E+001	11	...........	6.63414E-002	-5.39542E-003	6.09562E-001	5.34176E-001	-2.57010E-002	-3.68454E-002	7.05992E-001	-4.38874E-002	-2.45192E-003	1.99410E-004	-2.25289E-002	-1.97427E-002	9.49885E-004	1.36177E-003	-2.60929E-002	1.62204E-003
	73	73	4.99821E-002	-3.65099E-002	0.00000E+000	-1.82484E-003	-3.61864E-001	3.97747E-002	3.35842E+001	11	...........	6.63500E-002	-5.41750E-003	6.09713E-001	5.34251E-001	-2.56929E-002	-3.68510E-002	7.05912E-001	-4.37987E-002	-2.42243E-003	1.97793E-004	-2.22606E-002	-1.95055E-002	9.38047E-004	1.34543E-003	-2.57728E-002	1.59909E-003
	74	74	4.99846E-002	-3.59700E-002	0.00000E+000	-1.79795E-003	-3.56508E-001	3.98663E-002	3.29291E+001	11	...........	6.65108E-002	-5.44347E-003	6.09630E-001	5.34108E-001	-2.56699E-002	-3.68533E-002	7.06031E-001	-4.37668E-002	-2.39240E-003	1.95802E-004	-2.19284E-002	-1.92119E-002	9.23346E-004	1.32562E-003	-2.53960E-002	1.57429E-003
	75	75	4.99816E-002	-3.48894E-002	0.00000E+000	-1.74383E-003	-3.45765E-001	3.96443E-002	3.26058E+001	11	...........	6.61367E-002	-5.37000E-003	6.09711E-001	5.33933E-001	-2.56701E-002	-3.68508E-002	7.05979E-001	-4.37835E-002	-2.30747E-003	1.87356E-004	-2.12725E-002	-1.86286E-002	8.95616E-004	1.28570E-003	-2.46312E-002	1.52758E-003
	76	76	4.99883E-002	-3.53048E-002	0.00000E+000	-1.76483E-003	-3.49901E-001	4.00484E-002	3.37423E+001	11	...........	6.68118E-002	-5.42792E-003	6.09743E-001	5.33941E-001	-2.56636E-002	-3.68471E-002	7.05933E-001	-4.37329E-002	-2.35878E-003	1.91631E-004	-2.15269E-002	-1.88507E-002	9.06048E-004	1.30088E-003	-2.49228E-002	1.54398E-003
	77	77	4.99838E-002	-3.50552E-002	0.00000E+000	-1.75219E-003	-3.47438E-001	3.99067E-002	3.36678E+001	11	...........	6.65881E-002	-5.29250E-003	6.09843E-001	5.33949E-001	-2.56926E-002	-3.68303E-002	7.05944E-001	-4.37775E-002	-2.33426E-003	1.85530E-004	-2.13782E-002	-1.87177E-002	9.00661E-004	1.29109E-003	-2.47470E-002	1.53463E-003
	78	78	4.99863E-002	-3.45525E-002	0.00000E+000	-1.72715E-003	-3.42404E-001	3.98942E-002	3.34693E+001	11	...........	6.65690E-002	-5.24069E-003	6.10032E-001	5.34070E-001	-2.56847E-002	-3.68336E-002	7.05962E-001	-4.37207E-002	-2.30013E-003	1.81079E-004	-2.10781E-002	-1.84535E-002	8.87471E-004	1.27269E-003	-2.43928E-002	1.51066E-003
	79	79	4.99800E-002	-3.38316E-002	0.00000E+000	-1.69090E-003	-3.35238E-001	3.99607E-002	3.35106E+001	11	...........	6.66690E-002	-5.42681E-003	6.09811E-001	5.33911E-001	-2.56599E-002	-3.68417E-002	7.06053E-001	-4.35933E-002	-2.25552E-003	1.83597E-004	-2.06309E-002	-1.80631E-002	8.68113E-004	1.24641E-003	-2.38869E-002	1.47483E-003
	80	80	4.99749E-002	-3.32940E-002	0.00000E+000	-1.66386E-003	-3.29896E-001	3.98259E-002	3.27741E+001	11	...........	6.64567E-002	-5.41139E-003	6.09736E-001	5.33736E-001	-2.56258E-002	-3.68358E-002	7.06046E-001	-4.35611E-002	-2.21261E-003	1.80167E-004	-2.03005E-002	-1.77702E-002	8.53186E-004	1.22641E-003	-2.35071E-002	1.45032E-003
	81	81	4.99991E-002	-3.32613E-002	0.00000E+000	-1.66304E-003	-3.29586E-001	4.00864E-002	3.37449E+001	11	...........	6.68846E-002	-5.40028E-003	6.09744E-001	5.33635E-001	-2.56303E-002	-3.68456E-002	7.05981E-001	-4.38431E-002	-2.22467E-003	1.79620E-004	-2.02809E-002	-1.77494E-002	8.52497E-004	1.22553E-003	-2.34819E-002	1.45828E-003
	82	82	4.99839E-002	-3.31512E-002	0.00000E+000	-1.65702E-003	-3.28487E-001	3.99867E-002	3.40787E+001	11	...........	6.67164E-002	-5.45097E-003	6.09663E-001	5.33660E-001	-2.56685E-002	-3.68404E-002	7.06033E-001	-4.38031E-002	-2.21173E-003	1.80706E-004	-2.02111E-002	-1.76915E-002	8.50941E-004	1.22130E-003	-2.34058E-002	1.45212E-003
	83	83	4.99834E-002	-3.26325E-002	0.00000E+000	-1.63108E-003	-3.23347E-001	3.99861E-002	3.39923E+001	11	...........	6.67218E-002	-5.37028E-003	6.09707E-001	5.33907E-001	-2.56814E-002	-3.68367E-002	7.05917E-001	-4.37758E-002	-2.17730E-003	1.75246E-004	-1.98963E-002	-1.74227E-002	8.38049E-004	1.20207E-003	-2.30359E-002	1.42852E-003
	84	84	4.99875E-002	-3.23402E-002	0.00000E+000	-1.61660E-003	-3.20443E-001	4.00475E-002	3.38890E+001	11	...........	6.68079E-002	-5.45167E-003	6.09621E-001	5.34017E-001	-2.56392E-002	-3.68119E-002	7.05948E-001	-4.38697E-002	-2.16058E-003	1.76308E-004	-1.97152E-002	-1.72702E-002	8.29175E-004	1.19051E-003	-2.28305E-002	1.41876E-003
	85	85	4.99824E-002	-3.19406E-002	0.00000E+000	-1.59647E-003	-3.16425E-001	4.00869E-002	3.38505E+001	11	...........	6.68690E-002	-5.43486E-003	6.09624E-001	5.34028E-001	-2.56158E-002	-3.67994E-002	7.05926E-001	-4.38589E-002	-2.13584E-003	1.73593E-004	-1.94718E-002	-1.70572E-002	8.18186E-004	1.17540E-003	-2.25477E-002	1.40088E-003
	86	86	4.99845E-002	-3.13662E-002	0.00000E+000	-1.56782E-003	-3.10716E-001	4.00269E-002	3.34309E+001	11	...........	6.67682E-002	-5.26472E-003	6.09745E-001	5.34019E-001	-2.56454E-002	-3.67999E-002	7.06050E-001	-4.38512E-002	-2.09426E-003	1.65134E-004	-1.91253E-002	-1.67501E-002	8.04398E-004	1.15427E-003	-2.21461E-002	1.37545E-003
	87	87	4.99872E-002	-3.10332E-002	0.00000E+000	-1.55126E-003	-3.07428E-001	4.00273E-002	3.36411E+001	11	...........	6.67856E-002	-5.29472E-003	6.09604E-001	5.33913E-001	-2.56369E-002	-3.67893E-002	7.06094E-001	-4.39251E-002	-2.07257E-003	1.64312E-004	-1.89180E-002	-1.65690E-002	7.95596E-004	1.14169E-003	-2.19123E-002	1.36314E-003
	88	88	4.99739E-002	-3.08925E-002	0.00000E+000	-1.54382E-003	-3.06025E-001	4.02167E-002	3.38157E+001	11	...........	6.71096E-002	-5.32111E-003	6.09516E-001	5.34048E-001	-2.56137E-002	-3.67997E-002	7.05997E-001	-4.38646E-002	-2.07318E-003	1.64382E-004	-1.88294E-002	-1.64981E-002	7.91272E-004	1.13683E-003	-2.18100E-002	1.35508E-003
	89	89	4.99919E-002	-3.03538E-002	0.00000E+000	-1.51745E-003	-3.00711E-001	4.01763E-002	3.42023E+001	11	...........	6.70439E-002	-5.27708E-003	6.09276E-001	5.34008E-001	-2.56326E-002	-3.67922E-002	7.05906E-001	-4.38149E-002	-2.03504E-003	1.60180E-004	-1.84939E-002	-1.62092E-002	7.78049E-004	1.11678E-003	-2.14269E-002	1.32995E-003
	90	90	4.99833E-002	-2.98200E-002	0.00000E+000	-1.49050E-003	-2.95393E-001	4.01402E-002	3.33532E+001	11	...........	6.69772E-002	-5.35931E-003	6.09090E-001	5.33836E-001	-2.56779E-002	-3.67882E-002	7.05902E-001	-4.38918E-002	-1.99726E-003	1.59815E-004	-1.81631E-002	-1.59190E-002	7.65717E-004	1.09703E-003	-2.10500E-002	1.30886E-003
	91	91	4.99905E-002	-2.94209E-002	0.00000E+000	-1.47076E-003	-2.91411E-001	4.00964E-002	3.36489E+001	11	...........	6.69097E-002	-5.39306E-003	6.09127E-001	5.33925E-001	-2.56701E-002	-3.68039E-002	7.05918E-001	-4.38940E-002	-1.96854E-003	1.58668E-004	-1.79210E-002	-1.57085E-002	7.55238E-004	1.08280E-003	-2.07687E-002	1.29140E-003
	92	92	4.99859E-002	-2.95276E-002	0.00000E+000	-1.47597E-003	-2.92470E-001	4.02604E-002	3.43469E+001	11	...........	6.71937E-002	-5.42972E-003	6.09047E-001	5.33909E-001	-2.56472E-002	-3.68253E-002	7.05914E-001	-4.38665E-002	-1.98407E-003	1.60327E-004	-1.79837E-002	-1.57651E-002	7.57301E-004	1.08736E-003	-2.08440E-002	1.29527E-003
	93	93	4.99863E-002	-2.92818E-002	0.00000E+000	-1.46369E-003	-2.90021E-001	4.02726E-002	3.38428E+001	11	...........	6.71762E-002	-5.47611E-003	6.08857E-001	5.34050E-001	-2.56750E-002	-3.68357E-002	7.06009E-001	-4.37703E-002	-1.96704E-003	1.60350E-004	-1.78284E-002	-1.56379E-002	7.51810E-004	1.07861E-003	-2.06732E-002	1.28167E-003
	94	94	4.99838E-002	-2.85609E-002	0.00000E+000	-1.42758E-003	-2.82862E-001	4.01422E-002	3.40343E+001	11	...........	6.69704E-002	-5.42903E-003	6.08839E-001	5.34119E-001	-2.56718E-002	-3.68256E-002	7.05951E-001	-4.38814E-002	-1.91273E-003	1.55058E-004	-1.73890E-002	-1.52549E-002	7.33209E-004	1.05177E-003	-2.01626E-002	1.25329E-003
	95	95	4.99842E-002	-2.85019E-002	0.00000E+000	-1.42464E-003	-2.82273E-001	4.03261E-002	3.42990E+001	11	...........	6.72756E-002	-5.49069E-003	6.08974E-001	5.34057E-001	-2.56419E-002	-3.68106E-002	7.05883E-001	-4.39526E-002	-1.91748E-003	1.56495E-004	-1.73569E-002	-1.52217E-002	7.30845E-004	1.04917E-003	-2.01190E-002	1.25273E-003
	96	96	4.99824E-002	-2.79151E-002	0.00000E+000	-1.39526E-003	-2.76456E-001	4.02432E-002	3.41022E+001	11	...........	6.71543E-002	-5.37375E-003	6.09296E-001	5.33997E-001	-2.56696E-002	-3.67997E-002	7.05913E-001	-4.39457E-002	-1.87462E-003	1.50009E-004	-1.70086E-002	-1.49066E-002	7.16570E-004	1.02727E-003	-1.97057E-002	1.22675E-003
	97	97	4.99797E-002	-2.74624E-002	0.00000E+000	-1.37256E-003	-2.71937E-001	4.02039E-002	3.33962E+001	11	...........	6.71033E-002	-5.44792E-003	6.09268E-001	5.34055E-001	-2.56493E-002	-3.68061E-002	7.05797E-001	-4.39635E-002	-1.84282E-003	1.49613E-004	-1.67320E-002	-1.46664E-002	7.04391E-004	1.01078E-003	-1.93829E-002	1.20734E-003
	98	98	4.99949E-002	-2.74102E-002	0.00000E+000	-1.37037E-003	-2.71435E-001	4.03604E-002	3.43870E+001	11	...........	6.73337E-002	-5.40611E-003	6.09303E-001	5.34155E-001	-2.56143E-002	-3.68061E-002	7.05919E-001	-4.38874E-002	-1.84563E-003	1.48183E-004	-1.67011E-002	-1.46413E-002	7.02094E-004	1.00886E-003	-1.93494E-002	1.20296E-003
	99	99	4.99840E-002	-2.72170E-002	0.00000E+000	-1.36041E-003	-2.69517E-001	4.03459E-002	3.43447E+001	11	...........	6.73218E-002	-5.46764E-003	6.09172E-001	5.34085E-001	-2.56225E-002	-3.67790E-002	7.05867E-001	-4.37821E-002	-1.83230E-003	1.48813E-004	-1.65798E-002	-1.45362E-002	6.97367E-004	1.00101E-003	-1.92116E-002	1.19162E-003
	100	100	4.99867E-002	-2.68029E-002	0.00000E+000	-1.33978E-003	-2.65363E-001	4.03300E-002	3.45626E+001	11	...........	6.72903E-002	-5.41667E-003	6.09017E-001	5.34099E-001	-2.56629E-002	-3.67682E-002	7.05983E-001	-4.37965E-002	-1.80357E-003	1.45182E-004	-1.63234E-002	-1.43154E-002	6.87839E-004	9.85492E-004	-1.89224E-002	1.17387E-003
	101	101	4.99851E-002	-2.65892E-002	0.00000E+000	-1.32907E-003	-2.63237E-001	4.03754E-002	3.45759E+001	11	...........	6.73639E-002	-5.37556E-003	6.08965E-001	5.34194E-001	-2.56253E-002	-3.67558E-002	7.05969E-001	-4.37854E-002	-1.79115E-003	1.42932E-004	-1.61919E-002	-1.42038E-002	6.81357E-004	9.77310E-004	-1.87712E-002	1.16422E-003
	102	102	4.99858E-002	-2.62943E-002	0.00000E+000	-1.31434E-003	-2.60306E-001	4.04175E-002	3.46185E+001	11	...........	6.74290E-002	-5.35639E-003	6.08950E-001	5.34177E-001	-2.56222E-002	-3.67693E-002	7.05912E-001	-4.38394E-002	-1.77300E-003	1.40842E-004	-1.60119E-002	-1.40458E-002	6.73718E-004	9.66823E-004	-1.85615E-002	1.15273E-003
	103	103	4.99816E-002	-2.59366E-002	0.00000E+000	-1.29635E-003	-2.56751E-001	4.04692E-002	3.44216E+001	11	...........	6.75149E-002	-5.34514E-003	6.08972E-001	5.34088E-001	-2.56649E-002	-3.67747E-002	7.05862E-001	-4.39142E-002	-1.75111E-003	1.38635E-004	-1.57947E-002	-1.38524E-002	6.65659E-004	9.53811E-004	-1.83077E-002	1.13898E-003
	104	104	4.99819E-002	-2.50308E-002	0.00000E+000	-1.25109E-003	-2.47755E-001	4.02723E-002	3.29370E+001	11	...........	6.72101E-002	-5.31375E-003	6.09049E-001	5.34096E-001	-2.56314E-002	-3.67840E-002	7.05875E-001	-4.38726E-002	-1.68233E-003	1.33008E-004	-1.52450E-002	-1.33689E-002	6.41575E-004	9.20735E-004	-1.76686E-002	1.09817E-003
	105	105	4.99940E-002	-2.51737E-002	0.00000E+000	-1.25853E-003	-2.49179E-001	4.05842E-002	3.45254E+001	11	...........	6.77082E-002	-5.27181E-003	6.09053E-001	5.33947E-001	-2.56099E-002	-3.68037E-002	7.05793E-001	-4.38578E-002	-1.70446E-003	1.32711E-004	-1.53321E-002	-1.34414E-002	6.44694E-004	9.26486E-004	-1.77674E-002	1.10406E-003
	106	106	4.99839E-002	-2.50605E-002	0.00000E+000	-1.25262E-003	-2.48056E-001	4.04522E-002	3.48869E+001	11	...........	6.74907E-002	-5.28708E-003	6.09049E-001	5.33965E-001	-2.56237E-002	-3.68039E-002	7.05892E-001	-4.38532E-002	-1.69135E-003	1.32497E-004	-1.52631E-002	-1.33814E-002	6.42144E-004	9.22324E-004	-1.76900E-002	1.09898E-003
	107	107	4.99842E-002	-2.47247E-002	0.00000E+000	-1.23584E-003	-2.44705E-001	4.04658E-002	3.43789E+001	11	...........	6.75154E-002	-5.34097E-003	6.09059E-001	5.34082E-001	-2.56675E-002	-3.68156E-002	7.05937E-001	-4.37768E-002	-1.66930E-003	1.32054E-004	-1.50588E-002	-1.32050E-002	6.34621E-004	9.10253E-004	-1.74541E-002	1.08237E-003
	108	108	4.99863E-002	-2.44624E-002	0.00000E+000	-1.22279E-003	-2.42103E-001	4.05152E-002	3.47027E+001	11	...........	6.76054E-002	-5.34694E-003	6.08993E-001	5.34085E-001	-2.56929E-002	-3.67975E-002	7.05958E-001	-4.38264E-002	-1.65379E-003	1.30799E-004	-1.48975E-002	-1.30650E-002	6.28511E-004	9.00156E-004	-1.72694E-002	1.07210E-003
	109	109	4.99867E-002	-2.40079E-002	0.00000E+000	-1.20008E-003	-2.37565E-001	4.05313E-002	3.42088E+001	11	...........	6.76136E-002	-5.32625E-003	6.08929E-001	5.34200E-001	-2.56703E-002	-3.68151E-002	7.05975E-001	-4.38522E-002	-1.62326E-003	1.27872E-004	-1.46191E-002	-1.28250E-002	6.16290E-004	8.83855E-004	-1.69490E-002	1.05280E-003
	110	110	4.99792E-002	-2.34299E-002	0.00000E+000	-1.17101E-003	-2.31832E-001	4.04152E-002	3.37344E+001	11	...........	6.74185E-002	-5.30819E-003	6.08946E-001	5.34289E-001	-2.56257E-002	-3.68157E-002	7.05916E-001	-4.38390E-002	-1.57961E-003	1.24371E-004	-1.42675E-002	-1.25184E-002	6.00408E-004	8.62589E-004	-1.65396E-002	1.02714E-003
	111	111	4.99938E-002	-2.35134E-002	0.00000E+000	-1.17552E-003	-2.32650E-001	4.06242E-002	3.48964E+001	11	...........	6.77485E-002	-5.32444E-003	6.08943E-001	5.34297E-001	-2.56197E-002	-3.67869E-002	7.05824E-001	-4.38108E-002	-1.59299E-003	1.25196E-004	-1.43183E-002	-1.25631E-002	6.02406E-004	8.64985E-004	-1.65963E-002	1.03014E-003
	112	112	4.99863E-002	-2.33394E-002	0.00000E+000	-1.16665E-003	-2.30933E-001	4.05357E-002	3.50929E+001	11	...........	6.76364E-002	-5.36375E-003	6.08722E-001	5.34121E-001	-2.56368E-002	-3.67921E-002	7.05864E-001	-4.38265E-002	-1.57860E-003	1.25187E-004	-1.42072E-002	-1.24661E-002	5.98349E-004	8.58706E-004	-1.64745E-002	1.02289E-003
	113	113	4.99847E-002	-2.30224E-002	0.00000E+000	-1.15077E-003	-2.27799E-001	4.05293E-002	3.47430E+001	11	...........	6.76369E-002	-5.32389E-003	6.08609E-001	5.34091E-001	-2.56503E-002	-3.67814E-002	7.05954E-001	-4.38147E-002	-1.55717E-003	1.22569E-004	-1.40116E-002	-1.22961E-002	5.90531E-004	8.46796E-004	-1.62528E-002	1.00872E-003
	114	114	4.99868E-002	-2.26991E-002	0.00000E+000	-1.13466E-003	-2.24581E-001	4.05423E-002	3.49767E+001	11	...........	6.76539E-002	-5.34319E-003	6.08603E-001	5.34180E-001	-2.56204E-002	-3.67704E-002	7.05864E-001	-4.38401E-002	-1.53568E-003	1.21286E-004	-1.38148E-002	-1.21254E-002	5.81561E-004	8.34656E-004	-1.60225E-002	9.95133E-004
	115	115	4.99834E-002	-2.23557E-002	0.00000E+000	-1.11741E-003	-2.21168E-001	4.05961E-002	3.44280E+001	11	...........	6.77433E-002	-5.37208E-003	6.08691E-001	5.34290E-001	-2.55954E-002	-3.67842E-002	7.05883E-001	-4.37964E-002	-1.51445E-003	1.20097E-004	-1.36077E-002	-1.19444E-002	5.72203E-004	8.22335E-004	-1.57805E-002	9.79098E-004
	116	116	4.99829E-002	-2.18240E-002	0.00000E+000	-1.09083E-003	-2.15859E-001	4.04735E-002	3.40039E+001	11	...........	6.75329E-002	-5.40069E-003	6.08583E-001	5.34264E-001	-2.55783E-002	-3.67896E-002	7.06030E-001	-4.37860E-002	-1.47384E-003	1.17865E-004	-1.32817E-002	-1.16598E-002	5.58221E-004	8.02896E-004	-1.54084E-002	9.55585E-004
	117	117	4.99906E-002	-2.18115E-002	0.00000E+000	-1.09037E-003	-2.15735E-001	4.06569E-002	3.47728E+001	11	...........	6.78379E-002	-5.40986E-003	6.08595E-001	5.34134E-001	-2.56071E-002	-3.67778E-002	7.05980E-001	-4.38496E-002	-1.47965E-003	1.17997E-004	-1.32744E-002	-1.16503E-002	5.58529E-004	8.02178E-004	-1.53985E-002	9.56425E-004
	118	118	4.99843E-002	-2.16768E-002	0.00000E+000	-1.08350E-003	-2.14392E-001	4.06322E-002	3.50343E+001	11	...........	6.77951E-002	-5.26819E-003	6.08637E-001	5.34099E-001	-2.56214E-002	-3.67582E-002	7.05968E-001	-4.39087E-002	-1.46958E-003	1.14198E-004	-1.31933E-002	-1.15776E-002	5.55390E-004	7.96800E-004	-1.53031E-002	9.51801E-004
	119	119	4.99884E-002	-2.13222E-002	0.00000E+000	-1.06586E-003	-2.10859E-001	4.06361E-002	3.51415E+001	11	...........	6.77894E-002	-5.25486E-003	6.08716E-001	5.34163E-001	-2.56447E-002	-3.67696E-002	7.05974E-001	-4.37122E-002	-1.44542E-003	1.12045E-004	-1.29792E-002	-1.13895E-002	5.46801E-004	7.84008E-004	-1.50529E-002	9.32040E-004
	120	120	4.99851E-002	-2.10639E-002	0.00000E+000	-1.05288E-003	-2.08292E-001	4.06667E-002	3.51432E+001	11	...........	6.78471E-002	-5.38028E-003	6.08770E-001	5.34182E-001	-2.56546E-002	-3.67794E-002	7.05979E-001	-4.38246E-002	-1.42912E-003	1.13330E-004	-1.28231E-002	-1.12520E-002	5.40386E-004	7.74719E-004	-1.48707E-002	9.23117E-004
	121	121	4.99856E-002	-2.08318E-002	0.00000E+000	-1.04129E-003	-2.05994E-001	4.06755E-002	3.46683E+001	11	...........	6.78624E-002	-5.35861E-003	6.09026E-001	5.33929E-001	-2.56607E-002	-3.67768E-002	7.06082E-001	-4.38281E-002	-1.41369E-003	1.11629E-004	-1.26871E-002	-1.11227E-002	5.34558E-004	7.66126E-004	-1.47089E-002	9.13016E-004
	122	122	4.99854E-002	-2.02191E-002	0.00000E+000	-1.01066E-003	-1.99926E-001	4.05872E-002	3.37613E+001	11	...........	6.77317E-002	-5.37944E-003	6.09122E-001	5.33887E-001	-2.56499E-002	-3.67837E-002	7.06183E-001	-4.37853E-002	-1.36947E-003	1.08767E-004	-1.23159E-002	-1.07947E-002	5.18616E-004	7.43732E-004	-1.42784E-002	8.85297E-004
	123	123	4.99878E-002	-1.99730E-002	0.00000E+000	-9.98407E-004	-1.97483E-001	4.06591E-002	3.44343E+001	11	...........	6.78231E-002	-5.28681E-003	6.09193E-001	5.34021E-001	-2.56136E-002	-3.67772E-002	7.05998E-001	-4.36654E-002	-1.35463E-003	1.05593E-004	-1.21674E-002	-1.06660E-002	5.11581E-004	7.34552E-004	-1.41009E-002	8.72129E-004
	124	124	4.99856E-002	-2.00966E-002	0.00000E+000	-1.00454E-003	-1.98705E-001	4.07768E-002	3.53401E+001	11	...........	6.80218E-002	-5.23167E-003	6.09174E-001	5.34032E-001	-2.55919E-002	-3.67283E-002	7.05952E-001	-4.35796E-002	-1.36701E-003	1.05139E-004	-1.22423E-002	-1.07322E-002	5.14312E-004	7.38115E-004	-1.41872E-002	8.75802E-004
	125	125	4.99888E-002	-1.98459E-002	0.00000E+000	-9.92073E-004	-1.96210E-001	4.07288E-002	3.50470E+001	11	...........	6.79590E-002	-5.24986E-003	6.09223E-001	5.33977E-001	-2.56051E-002	-3.67462E-002	7.06063E-001	-4.36757E-002	-1.34871E-003	1.04188E-004	-1.20906E-002	-1.05972E-002	5.08157E-004	7.29262E-004	-1.40124E-002	8.66783E-004
	126	126	4.99863E-002	-1.96573E-002	0.00000E+000	-9.82598E-004	-1.94347E-001	4.07107E-002	3.52114E+001	11	...........	6.79224E-002	-5.25556E-003	6.09276E-001	5.33990E-001	-2.56074E-002	-3.67468E-002	7.06212E-001	-4.38228E-002	-1.33517E-003	1.03310E-004	-1.19767E-002	-1.04968E-002	5.03372E-004	7.22344E-004	-1.38822E-002	8.61439E-004
	127	127	4.99845E-002	-1.93624E-002	0.00000E+000	-9.67822E-004	-1.91417E-001	4.07659E-002	3.50950E+001	11	...........	6.79950E-002	-5.28722E-003	6.09283E-001	5.33921E-001	-2.56310E-002	-3.67274E-002	7.06195E-001	-4.38340E-002	-1.31655E-003	1.02373E-004	-1.17972E-002	-1.03380E-002	4.96278E-004	7.11130E-004	-1.36736E-002	8.48733E-004
	128	128	4.99808E-002	-1.87760E-002	0.00000E+000	-9.38437E-004	-1.85551E-001	4.05040E-002	3.34884E+001	11	...........	6.75794E-002	-5.28042E-003	6.09246E-001	5.33944E-001	-2.56425E-002	-3.67418E-002	7.06049E-001	-4.38276E-002	-1.26887E-003	9.91449E-005	-1.14392E-002	-1.00253E-002	4.81463E-004	6.89863E-004	-1.32568E-002	8.22906E-004
	129	129	4.99932E-002	-1.88693E-002	0.00000E+000	-9.43334E-004	-1.86475E-001	4.09147E-002	3.51132E+001	11	...........	6.82731E-002	-5.31819E-003	6.09061E-001	5.33948E-001	-2.56457E-002	-3.67374E-002	7.06084E-001	-4.38103E-002	-1.28826E-003	1.00350E-004	-1.14925E-002	-1.00752E-002	4.83915E-004	6.93207E-004	-1.33233E-002	8.26667E-004
	130	130	4.99877E-002	-1.87543E-002	0.00000E+000	-9.37485E-004	-1.85327E-001	4.07583E-002	3.55181E+001	11	...........	6.79968E-002	-5.35819E-003	6.09001E-001	5.33907E-001	-2.56700E-002	-3.67225E-002	7.06114E-001	-4.38317E-002	-1.27523E-003	1.00489E-004	-1.14214E-002	-1.00131E-002	4.81424E-004	6.88706E-004	-1.32427E-002	8.22034E-004
	131	131	4.99858E-002	-1.84885E-002	0.00000E+000	-9.24161E-004	-1.82690E-001	4.07709E-002	3.50914E+001	11	...........	6.80150E-002	-5.28833E-003	6.09010E-001	5.33819E-001	-2.56781E-002	-3.67058E-002	7.05991E-001	-4.37718E-002	-1.25749E-003	9.77732E-005	-1.12597E-002	-9.86950E-003	4.74748E-004	6.78635E-004	-1.30527E-002	8.09274E-004
	132	132	4.99864E-002	-1.82606E-002	0.00000E+000	-9.12784E-004	-1.80427E-001	4.07827E-002	3.52767E+001	11	...........	6.80424E-002	-5.30264E-003	6.08876E-001	5.33811E-001	-2.57061E-002	-3.66850E-002	7.05996E-001	-4.37521E-002	-1.24250E-003	9.68296E-005	-1.11185E-002	-9.74773E-003	4.69410E-004	6.69891E-004	-1.28919E-002	7.98941E-004
	133	133	4.99778E-002	-1.78743E-002	0.00000E+000	-8.93320E-004	-1.76595E-001	4.07977E-002	3.40656E+001	11	...........	6.80764E-002	-5.23333E-003	6.08794E-001	5.33876E-001	-2.56749E-002	-3.66867E-002	7.06045E-001	-4.38371E-002	-1.21682E-003	9.35424E-005	-1.08818E-002	-9.54268E-003	4.58921E-004	6.55750E-004	-1.26201E-002	7.83559E-004
	134	134	4.99940E-002	-1.74518E-002	0.00000E+000	-8.72483E-004	-1.72393E-001	4.06282E-002	3.42365E+001	11	...........	6.77792E-002	-5.17167E-003	6.08720E-001	5.34048E-001	-2.56569E-002	-3.66807E-002	7.06149E-001	-4.38638E-002	-1.18287E-003	9.02547E-005	-1.06232E-002	-9.32008E-003	4.47759E-004	6.40143E-004	-1.23235E-002	7.65500E-004
	135	135	4.99876E-002	-1.76436E-002	0.00000E+000	-8.81962E-004	-1.74308E-001	4.09538E-002	3.54796E+001	11	...........	6.83240E-002	-5.22875E-003	6.08626E-001	5.34001E-001	-2.56537E-002	-3.66911E-002	7.06133E-001	-4.39331E-002	-1.20548E-003	9.22539E-005	-1.07383E-002	-9.42170E-003	4.52624E-004	6.47363E-004	-1.24587E-002	7.75137E-004
	136	136	4.99877E-002	-1.74404E-002	0.00000E+000	-8.71808E-004	-1.72277E-001	4.08665E-002	3.54965E+001	11	...........	6.81683E-002	-5.34389E-003	6.08721E-001	5.34077E-001	-2.56432E-002	-3.67400E-002	7.06101E-001	-4.38628E-002	-1.18889E-003	9.31998E-005	-1.06164E-002	-9.31453E-003	4.47229E-004	6.40762E-004	-1.23147E-002	7.64986E-004
	137	137	4.99864E-002	-1.71893E-002	0.00000E+000	-8.59229E-004	-1.69806E-001	4.08290E-002	3.50323E+001	11	...........	6.81107E-002	-5.45278E-003	6.08702E-001	5.34166E-001	-2.56290E-002	-3.67262E-002	7.06114E-001	-4.39207E-002	-1.17077E-003	9.37292E-005	-1.04631E-002	-9.18191E-003	4.40544E-004	6.31297E-004	-1.21376E-002	7.54964E-004
	138	138	4.99862E-002	-1.68686E-002	0.00000E+000	-8.43197E-004	-1.66607E-001	4.07751E-002	3.47377E+001	11	...........	6.80176E-002	-5.49417E-003	6.08654E-001	5.34058E-001	-2.56492E-002	-3.67285E-002	7.06152E-001	-4.38240E-002	-1.14736E-003	9.26789E-005	-1.02671E-002	-9.00881E-003	4.32666E-004	6.19558E-004	-1.19118E-002	7.39250E-004
	139	139	4.99878E-002	-1.67735E-002	0.00000E+000	-8.38468E-004	-1.65639E-001	4.09632E-002	3.50270E+001	11	...........	6.83535E-002	-5.58542E-003	6.08767E-001	5.34179E-001	-2.56707E-002	-3.67358E-002	7.06107E-001	-4.38518E-002	-1.14652E-003	9.36867E-005	-1.02111E-002	-8.96002E-003	4.30586E-004	6.16187E-004	-1.18439E-002	7.35546E-004
	140	140	4.99864E-002	-1.64471E-002	0.00000E+000	-8.22131E-004	-1.62384E-001	4.07052E-002	3.47171E+001	11	...........	6.79224E-002	-5.51306E-003	6.08631E-001	5.34347E-001	-2.56917E-002	-3.67101E-002	7.06086E-001	-4.38764E-002	-1.11713E-003	9.06738E-005	-1.00102E-002	-8.78846E-003	4.22553E-004	6.03775E-004	-1.16131E-002	7.21639E-004
	141	141	4.99847E-002	-1.63931E-002	0.00000E+000	-8.19405E-004	-1.61845E-001	4.09087E-002	3.50860E+001	11	...........	6.82479E-002	-5.31528E-003	6.08647E-001	5.34338E-001	-2.56654E-002	-3.67032E-002	7.06094E-001	-4.38117E-002	-1.11880E-003	8.71340E-005	-9.97763E-003	-8.75946E-003	4.20736E-004	6.01680E-004	-1.15751E-002	7.18210E-004
	142	142	4.99891E-002	-1.62091E-002	0.00000E+000	-8.10280E-004	-1.60016E-001	4.08952E-002	3.54330E+001	11	...........	6.82250E-002	-5.40681E-003	6.08575E-001	5.34281E-001	-2.56594E-002	-3.66944E-002	7.06142E-001	-4.38113E-002	-1.10587E-003	8.76396E-005	-9.86447E-003	-8.66023E-003	4.15917E-004	5.94785E-004	-1.14459E-002	7.10142E-004
	143	143	4.99879E-002	-1.60393E-002	0.00000E+000	-8.01772E-004	-1.58335E-001	4.08351E-002	3.55202E+001	11	...........	6.81221E-002	-5.49097E-003	6.08597E-001	5.34438E-001	-2.56512E-002	-3.66790E-002	7.06138E-001	-4.38679E-002	-1.09263E-003	8.80714E-005	-9.76148E-003	-8.57202E-003	4.11428E-004	5.88306E-004	-1.13260E-002	7.03611E-004
	144	144	4.99847E-002	-1.58099E-002	0.00000E+000	-7.90255E-004	-1.56050E-001	4.09091E-002	3.46292E+001	11	...........	6.82517E-002	-5.40500E-003	6.08593E-001	5.34485E-001	-2.56347E-002	-3.66946E-002	7.06069E-001	-4.38861E-002	-1.07905E-003	8.54527E-005	-9.62183E-003	-8.45018E-003	4.05283E-004	5.80139E-004	-1.11629E-002	6.93837E-004
	145	145	4.99884E-002	-1.54235E-002	0.00000E+000	-7.70995E-004	-1.52225E-001	4.07392E-002	3.47892E+001	11	...........	6.79493E-002	-5.44194E-003	6.08710E-001	5.34330E-001	-2.56682E-002	-3.66793E-002	7.05937E-001	-4.38607E-002	-1.04801E-003	8.39337E-005	-9.38842E-003	-8.24123E-003	3.95893E-004	5.65722E-004	-1.08880E-002	6.76484E-004
	146	146	4.99874E-002	-1.54522E-002	0.00000E+000	-7.72418E-004	-1.52505E-001	4.09997E-002	3.54709E+001	11	...........	6.83978E-002	-5.53917E-003	6.08748E-001	5.34305E-001	-2.56699E-002	-3.66649E-002	7.05889E-001	-4.39242E-002	-1.05690E-003	8.55925E-005	-9.40652E-003	-8.25621E-003	3.96657E-004	5.66554E-004	-1.09076E-002	6.78727E-004
	147	147	4.99872E-002	-1.52705E-002	0.00000E+000	-7.63333E-004	-1.50687E-001	4.08966E-002	3.55592E+001	11	...........	6.82371E-002	-5.41681E-003	6.08682E-001	5.34347E-001	-2.56965E-002	-3.66851E-002	7.05911E-001	-4.39147E-002	-1.04202E-003	8.27176E-005	-9.29491E-003	-8.15977E-003	3.92400E-004	5.60202E-004	-1.07796E-002	6.70602E-004
	148	148	4.99860E-002	-1.50829E-002	0.00000E+000	-7.53936E-004	-1.48825E-001	4.09138E-002	3.55455E+001	11	...........	6.82558E-002	-5.22444E-003	6.08548E-001	5.34373E-001	-2.57164E-002	-3.67037E-002	7.05858E-001	-4.39149E-002	-1.02950E-003	7.88000E-005	-9.17870E-003	-8.05992E-003	3.87879E-004	5.53600E-004	-1.06464E-002	6.62365E-004
	149	149	4.99869E-002	-1.48868E-002	0.00000E+000	-7.44144E-004	-1.46887E-001	4.09503E-002	3.49545E+001	11	...........	6.83214E-002	-5.31028E-003	6.08711E-001	5.34441E-001	-2.57143E-002	-3.67089E-002	7.05803E-001	-4.38372E-002	-1.01709E-003	7.90529E-005	-9.06175E-003	-7.95610E-003	3.82803E-004	5.46477E-004	-1.05071E-002	6.52595E-004
	150	150	4.99851E-002	-1.44825E-002	0.00000E+000	-7.23909E-004	-1.42860E-001	4.08143E-002	3.41140E+001	11	...........	6.80831E-002	-5.26903E-003	6.08776E-001	5.34456E-001	-2.57029E-002	-3.66892E-002	7.05829E-001	-4.37614E-002	-9.86012E-004	7.63086E-005	-8.81659E-003	-7.74026E-003	3.72242E-004	5.31350E-004	-1.02222E-002	6.33774E-004
	151	151	4.99905E-002	-1.44875E-002	0.00000E+000	-7.24235E-004	-1.42911E-001	4.09959E-002	3.54239E+001	11	...........	6.83904E-002	-5.27278E-003	6.08822E-001	5.34474E-001	-2.56994E-002	-3.67081E-002	7.05809E-001	-4.36999E-002	-9.90803E-004	7.63891E-005	-8.82027E-003	-7.74316E-003	3.72320E-004	5.31806E-004	-1.02254E-002	6.33100E-004
	152	152	4.99877E-002	-1.44002E-002	0.00000E+000	-7.19831E-004	-1.42043E-001	4.09524E-002	3.57144E+001	11	...........	6.83099E-002	-5.35389E-003	6.08744E-001	5.34551E-001	-2.56962E-002	-3.67115E-002	7.05843E-001	-4.37840E-002	-9.83673E-004	7.70968E-005	-8.76601E-003	-7.69761E-003	3.70030E-004	5.28652E-004	-1.01642E-002	6.30497E-004
	153	153	4.99865E-002	-1.41830E-002	0.00000E+000	-7.08957E-004	-1.39878E-001	4.09515E-002	3.51492E+001	11	...........	6.83151E-002	-5.41431E-003	6.09005E-001	5.34678E-001	-2.57065E-002	-3.67172E-002	7.05929E-001	-4.38293E-002	-9.68912E-004	7.67910E-005	-8.63750E-003	-7.58332E-003	3.64595E-004	5.20759E-004	-1.00122E-002	6.21630E-004
	154	154	4.99854E-002	-1.40304E-002	0.00000E+000	-7.01318E-004	-1.38352E-001	4.09887E-002	3.55290E+001	11	...........	6.83910E-002	-5.37417E-003	6.09104E-001	5.34668E-001	-2.56862E-002	-3.67181E-002	7.06002E-001	-4.38489E-002	-9.59556E-004	7.54019E-005	-8.54600E-003	-7.50163E-003	3.60389E-004	5.15171E-004	-9.90552E-003	6.15219E-004
	155	155	4.99895E-002	-1.37794E-002	0.00000E+000	-6.88825E-004	-1.35851E-001	4.09634E-002	3.45387E+001	11	...........	6.83356E-002	-5.40597E-003	6.09285E-001	5.34564E-001	-2.56883E-002	-3.67249E-002	7.06079E-001	-4.38524E-002	-9.41622E-004	7.44909E-005	-8.39557E-003	-7.36597E-003	3.53969E-004	5.06046E-004	-9.72934E-003	6.04258E-004
	156	156	4.99857E-002	-1.34170E-002	0.00000E+000	-6.70660E-004	-1.32243E-001	4.08403E-002	3.46022E+001	11	...........	6.81231E-002	-5.38319E-003	6.09197E-001	5.34510E-001	-2.56992E-002	-3.67125E-002	7.05904E-001	-4.39008E-002	-9.14009E-004	7.22265E-005	-8.17362E-003	-7.17154E-003	3.44807E-004	4.92573E-004	-9.47113E-003	5.89019E-004
	157	157	4.99881E-002	-1.35053E-002	0.00000E+000	-6.75102E-004	-1.33117E-001	4.11098E-002	3.56095E+001	11	...........	6.85999E-002	-5.45736E-003	6.09139E-001	5.34426E-001	-2.57087E-002	-3.66881E-002	7.05961E-001	-4.38876E-002	-9.26459E-004	7.37031E-005	-8.22659E-003	-7.21756E-003	3.47203E-004	4.95482E-004	-9.53418E-003	5.92714E-004
	158	158	4.99875E-002	-1.33593E-002	0.00000E+000	-6.67798E-004	-1.31675E-001	4.10237E-002	3.57364E+001	11	...........	6.84489E-002	-5.54278E-003	6.09047E-001	5.34534E-001	-2.57017E-002	-3.66937E-002	7.05962E-001	-4.39526E-002	-9.14430E-004	7.40477E-005	-8.13644E-003	-7.14101E-003	3.43357E-004	4.90203E-004	-9.43117E-003	5.87177E-004
	159	159	4.99883E-002	-1.31842E-002	0.00000E+000	-6.59057E-004	-1.29941E-001	4.09653E-002	3.54711E+001	11	...........	6.83557E-002	-5.57097E-003	6.08912E-001	5.34436E-001	-2.56987E-002	-3.67128E-002	7.05989E-001	-4.39667E-002	-9.01216E-004	7.34489E-005	-8.02803E-003	-7.04612E-003	3.38818E-004	4.84029E-004	-9.30791E-003	5.79666E-004
	160	160	4.99862E-002	-1.30136E-002	0.00000E+000	-6.50501E-004	-1.28253E-001	4.10092E-002	3.55510E+001	11	...........	6.84636E-002	-5.53111E-003	6.08790E-001	5.34364E-001	-2.56653E-002	-3.67150E-002	7.06043E-001	-4.39075E-002	-8.90958E-004	7.19797E-005	-7.92256E-003	-6.95400E-003	3.33998E-004	4.77794E-004	-9.18816E-003	5.71395E-004
	161	161	4.99842E-002	-1.26955E-002	0.00000E+000	-6.34572E-004	-1.25098E-001	4.09093E-002	3.40456E+001	11	...........	6.82517E-002	-5.35611E-003	6.08749E-001	5.34260E-001	-2.56617E-002	-3.66949E-002	7.05942E-001	-4.37531E-002	-8.66486E-004	6.79983E-005	-7.72834E-003	-6.78268E-003	3.25787E-004	4.65858E-004	-8.96226E-003	5.55465E-004
	162	162	4.99924E-002	-1.26046E-002	0.00000E+000	-6.30135E-004	-1.24181E-001	4.09901E-002	3.48937E+001	11	...........	6.83849E-002	-5.35347E-003	6.08718E-001	5.34224E-001	-2.56768E-002	-3.66858E-002	7.05899E-001	-4.36322E-002	-8.61965E-004	6.74785E-005	-7.67266E-003	-6.73369E-003	3.23646E-004	4.62411E-004	-8.89759E-003	5.49968E-004
	163	163	4.99861E-002	-1.26251E-002	0.00000E+000	-6.31078E-004	-1.24389E-001	4.11322E-002	3.58414E+001	11	...........	6.86258E-002	-5.29625E-003	6.08759E-001	5.34324E-001	-2.56467E-002	-3.66640E-002	7.05992E-001	-4.36425E-002	-8.66406E-004	6.68656E-005	-7.68562E-003	-6.74588E-003	3.23791E-004	4.62886E-004	-8.91320E-003	5.50990E-004
	164	164	4.99883E-002	-1.24486E-002	0.00000E+000	-6.22283E-004	-1.22628E-001	4.10322E-002	3.55332E+001	11	...........	6.84575E-002	-5.44958E-003	6.08718E-001	5.34295E-001	-2.56593E-002	-3.66732E-002	7.05942E-001	-4.35154E-002	-8.52198E-004	6.78396E-005	-7.57767E-003	-6.65121E-003	3.19422E-004	4.56529E-004	-8.78798E-003	5.41705E-004
	165	165	4.99879E-002	-1.23032E-002	0.00000E+000	-6.15010E-004	-1.21178E-001	4.10031E-002	3.55850E+001	11	...........	6.84207E-002	-5.40986E-003	6.08796E-001	5.34349E-001	-2.56665E-002	-3.66964E-002	7.06021E-001	-4.37104E-002	-8.41793E-004	6.65586E-005	-7.49014E-003	-6.57420E-003	3.15780E-004	4.51483E-004	-8.68631E-003	5.37778E-004
	166	166	4.99871E-002	-1.21457E-002	0.00000E+000	-6.07126E-004	-1.19611E-001	4.10388E-002	3.54141E+001	11	...........	6.84743E-002	-5.43472E-003	6.08784E-001	5.34425E-001	-2.56961E-002	-3.67037E-002	7.05992E-001	-4.37707E-002	-8.31665E-004	6.60083E-005	-7.39408E-003	-6.49094E-003	3.12096E-004	4.45791E-004	-8.57474E-003	5.31624E-004
	167	167	4.99879E-002	-1.19520E-002	0.00000E+000	-5.97456E-004	-1.17687E-001	4.09536E-002	3.53385E+001	11	...........	6.83438E-002	-5.34875E-003	6.08840E-001	5.34344E-001	-2.56932E-002	-3.67122E-002	7.05905E-001	-4.37108E-002	-8.16845E-004	6.39283E-005	-7.27686E-003	-6.38649E-003	3.07085E-004	4.38785E-004	-8.43698E-003	5.22432E-004
	168	168	4.99874E-002	-1.18841E-002	0.00000E+000	-5.94056E-004	-1.17024E-001	4.10884E-002	3.58913E+001	11	...........	6.85717E-002	-5.28667E-003	6.09055E-001	5.34190E-001	-2.57049E-002	-3.67292E-002	7.05920E-001	-4.37692E-002	-8.14915E-004	6.28274E-005	-7.23810E-003	-6.34838E-003	3.05480E-004	4.36494E-004	-8.38924E-003	5.20159E-004
	169	169	4.99880E-002	-1.17647E-002	0.00000E+000	-5.88095E-004	-1.15822E-001	4.10996E-002	3.59155E+001	11	...........	6.85951E-002	-5.35458E-003	6.08981E-001	5.34080E-001	-2.56931E-002	-3.67200E-002	7.05973E-001	-4.38421E-002	-8.07002E-004	6.29951E-005	-7.16449E-003	-6.28330E-003	3.02271E-004	4.32000E-004	-8.30558E-003	5.15790E-004
	170	170	4.99859E-002	-1.15911E-002	0.00000E+000	-5.79393E-004	-1.14090E-001	4.10927E-002	3.52830E+001	11	...........	6.85486E-002	-5.33417E-003	6.09076E-001	5.33939E-001	-2.56907E-002	-3.67050E-002	7.06023E-001	-4.37829E-002	-7.94556E-004	6.18290E-005	-7.05988E-003	-6.18895E-003	2.97784E-004	4.25452E-004	-8.18361E-003	5.07493E-004
	171	171	4.99873E-002	-1.14254E-002	0.00000E+000	-5.71126E-004	-1.12440E-001	4.11420E-002	3.56496E+001	11	...........	6.86515E-002	-5.34264E-003	6.09313E-001	5.33936E-001	-2.57015E-002	-3.67264E-002	7.06033E-001	-4.37981E-002	-7.84373E-004	6.10420E-005	-6.96167E-003	-6.10045E-003	2.93651E-004	4.19615E-004	-8.06673E-003	5.00412E-004
	172	172	4.99840E-002	-1.11906E-002	0.00000E+000	-5.59351E-004	-1.10102E-001	4.10391E-002	3.42662E+001	11	...........	6.84693E-002	-5.35792E-003	6.09377E-001	5.34075E-001	-2.57053E-002	-3.67081E-002	7.06019E-001	-4.37360E-002	-7.66212E-004	5.99582E-005	-6.81929E-003	-5.97662E-003	2.87657E-004	4.10785E-004	-7.90077E-003	4.89431E-004
	173	173	4.99931E-002	-1.10781E-002	0.00000E+000	-5.53827E-004	-1.08980E-001	4.11036E-002	3.54382E+001	11	...........	6.85780E-002	-5.35222E-003	6.09440E-001	5.34248E-001	-2.56906E-002	-3.67394E-002	7.05920E-001	-4.36907E-002	-7.59714E-004	5.92924E-005	-6.75143E-003	-5.91845E-003	2.84602E-004	4.07003E-004	-7.82025E-003	4.84009E-004
	174	174	4.99884E-002	-1.10833E-002	0.00000E+000	-5.54036E-004	-1.09035E-001	4.11240E-002	3.58344E+001	11	...........	6.86265E-002	-5.37458E-003	6.09544E-001	5.34251E-001	-2.56747E-002	-3.67579E-002	7.05923E-001	-4.36662E-002	-7.60608E-004	5.95681E-005	-6.75576E-003	-5.92126E-003	2.84560E-004	4.07399E-004	-7.82396E-003	4.83966E-004
	175	175	4.99873E-002	-1.09635E-002	0.00000E+000	-5.48034E-004	-1.07840E-001	4.11387E-002	3.57979E+001	11	...........	6.86437E-002	-5.29014E-003	6.09688E-001	5.34339E-001	-2.56512E-002	-3.67590E-002	7.05926E-001	-4.36921E-002	-7.52573E-004	5.79982E-005	-6.68429E-003	-5.85821E-003	2.81227E-004	4.03006E-004	-7.73940E-003	4.79017E-004
	176	176	4.99838E-002	-1.07062E-002	0.00000E+000	-5.35136E-004	-1.05280E-001	4.10194E-002	3.43775E+001	11	...........	6.84557E-002	-5.27944E-003	6.09622E-001	5.34100E-001	-2.56446E-002	-3.67597E-002	7.05934E-001	-4.37168E-002	-7.32899E-004	5.65227E-005	-6.52673E-003	-5.71817E-003	2.74556E-004	3.93556E-004	-7.55786E-003	4.68040E-004
	177	177	4.99905E-002	-1.05257E-002	0.00000E+000	-5.26185E-004	-1.03495E-001	4.12253E-002	3.57148E+001	11	...........	6.87805E-002	-5.26278E-003	6.09534E-001	5.34044E-001	-2.56453E-002	-3.67762E-002	7.05851E-001	-4.36606E-002	-7.23964E-004	5.53944E-005	-6.41577E-003	-5.62119E-003	2.69935E-004	3.87096E-004	-7.42958E-003	4.59558E-004
	178	178	4.99880E-002	-1.04730E-002	0.00000E+000	-5.23523E-004	-1.02990E-001	4.10469E-002	3.54890E+001	11	...........	6.84697E-002	-5.39903E-003	6.09565E-001	5.34010E-001	-2.56389E-002	-3.67986E-002	7.05810E-001	-4.37999E-002	-7.17081E-004	5.65438E-005	-6.38396E-003	-5.59267E-003	2.68515E-004	3.85390E-004	-7.39192E-003	4.58714E-004
	179	179	4.99889E-002	-1.04019E-002	0.00000E+000	-5.19980E-004	-1.02321E-001	4.10898E-002	3.54370E+001	11	...........	6.85678E-002	-5.48486E-003	6.09665E-001	5.34138E-001	-2.56682E-002	-3.68039E-002	7.05869E-001	-4.38493E-002	-7.13236E-004	5.70530E-005	-6.34168E-003	-5.55605E-003	2.66998E-004	3.82831E-004	-7.34238E-003	4.56117E-004
	180	180	4.99876E-002	-1.02384E-002	0.00000E+000	-5.11793E-004	-1.00697E-001	4.10553E-002	3.57920E+001	11	...........	6.85125E-002	-5.40583E-003	6.09771E-001	5.34205E-001	-2.56794E-002	-3.68231E-002	7.05957E-001	-4.38467E-002	-7.01459E-004	5.53471E-005	-6.24309E-003	-5.46941E-003	2.62917E-004	3.77009E-004	-7.22787E-003	4.48920E-004
	181	181	4.99889E-002	-1.02327E-002	0.00000E+000	-5.11519E-004	-1.00631E-001	4.12622E-002	3.59061E+001	11	...........	6.88461E-002	-5.36292E-003	6.09694E-001	5.34248E-001	-2.56660E-002	-3.68206E-002	7.05948E-001	-4.38349E-002	-7.04479E-004	5.48769E-005	-6.23879E-003	-5.46678E-003	2.62631E-004	3.76772E-004	-7.22373E-003	4.48547E-004
	182	182	4.99877E-002	-1.00912E-002	0.00000E+000	-5.04436E-004	-9.92253E-002	4.11371E-002	3.59990E+001	11	...........	6.86353E-002	-5.36167E-003	6.09755E-001	5.34164E-001	-2.56761E-002	-3.68182E-002	7.05937E-001	-4.38497E-002	-6.92611E-004	5.41056E-005	-6.15315E-003	-5.39035E-003	2.59102E-004	3.71539E-004	-7.12374E-003	4.42496E-004
	183	183	4.99871E-002	-9.89910E-003	0.00000E+000	-4.94827E-004	-9.72973E-002	4.10494E-002	3.54279E+001	11	...........	6.85058E-002	-5.28556E-003	6.09855E-001	5.34182E-001	-2.56994E-002	-3.68072E-002	7.06069E-001	-4.38747E-002	-6.78146E-004	5.23222E-005	-6.03701E-003	-5.28792E-003	2.54401E-004	3.64358E-004	-6.98945E-003	4.34320E-004
	184	184	4.99889E-002	-9.86867E-003	0.00000E+000	-4.93324E-004	-9.70187E-002	4.12591E-002	3.60951E+001	11	...........	6.88405E-002	-5.29486E-003	6.09837E-001	5.34402E-001	-2.57310E-002	-3.68164E-002	7.06008E-001	-4.38278E-002	-6.79365E-004	5.22532E-005	-6.01828E-003	-5.27384E-003	2.53931E-004	3.63329E-004	-6.96737E-003	4.32522E-004
	185	185	4.99869E-002	-9.71872E-003	0.00000E+000	-4.85809E-004	-9.55107E-002	4.11609E-002	3.57034E+001	11	...........	6.86878E-002	-5.39333E-003	6.09866E-001	5.34588E-001	-2.57372E-002	-3.67924E-002	7.05967E-001	-4.38975E-002	-6.67557E-004	5.24163E-005	-5.92712E-003	-5.19551E-003	2.50133E-004	3.57575E-004	-6.86110E-003	4.26628E-004
	186	186	4.99858E-002	-9.46143E-003	0.00000E+000	-4.72937E-004	-9.29607E-002	4.10133E-002	3.44358E+001	11	...........	6.84246E-002	-5.31944E-003	6.09985E-001	5.34522E-001	-2.57328E-002	-3.67889E-002	7.05992E-001	-4.39051E-002	-6.47395E-004	5.03296E-005	-5.77133E-003	-5.05734E-003	2.43469E-004	3.48076E-004	-6.67970E-003	4.15405E-004
	187	187	4.99913E-002	-9.43349E-003	0.00000E+000	-4.71592E-004	-9.26947E-002	4.12478E-002	3.57703E+001	11	...........	6.88183E-002	-5.30417E-003	6.09903E-001	5.34466E-001	-2.57210E-002	-3.67839E-002	7.05944E-001	-4.38374E-002	-6.49197E-004	5.00368E-005	-5.75352E-003	-5.04188E-003	2.42639E-004	3.47001E-004	-6.65952E-003	4.13539E-004
	188	188	4.99875E-002	-9.41865E-003	0.00000E+000	-4.70815E-004	-9.25387E-002	4.12053E-002	3.61340E+001	11	...........	6.87611E-002	-5.35361E-003	6.09845E-001	5.34290E-001	-2.57271E-002	-3.67826E-002	7.05901E-001	-4.39124E-002	-6.47637E-004	5.04238E-005	-5.74392E-003	-5.03229E-003	2.42314E-004	3.46443E-004	-6.64863E-003	4.13595E-004
	189	189	4.99881E-002	-9.26828E-003	0.00000E+000	-4.63304E-004	-9.10500E-002	4.11745E-002	3.54988E+001	11	...........	6.86968E-002	-5.43361E-003	6.09808E-001	5.34166E-001	-2.57092E-002	-3.67861E-002	7.05863E-001	-4.38410E-002	-6.36701E-004	5.03602E-005	-5.65187E-003	-4.95080E-003	2.38280E-004	3.40944E-004	-6.54214E-003	4.06330E-004
	190	190	4.99870E-002	-9.14600E-003	0.00000E+000	-4.57181E-004	-8.98127E-002	4.12477E-002	3.57972E+001	11	...........	6.88265E-002	-5.27361E-003	6.09847E-001	5.33991E-001	-2.57110E-002	-3.67790E-002	7.05938E-001	-4.38242E-002	-6.29487E-004	4.82324E-005	-5.57766E-003	-4.88388E-003	2.35153E-004	3.36381E-004	-6.45651E-003	4.00816E-004
	191	191	4.99883E-002	-8.97916E-003	0.00000E+000	-4.48853E-004	-8.81413E-002	4.11317E-002	3.47018E+001	11	...........	6.86132E-002	-5.23722E-003	6.09787E-001	5.33951E-001	-2.57082E-002	-3.67458E-002	7.06083E-001	-4.37447E-002	-6.16089E-004	4.70258E-005	-5.47537E-003	-4.79443E-003	2.30838E-004	3.29947E-004	-6.34003E-003	3.92791E-004
	192	192	4.99896E-002	-8.91234E-003	0.00000E+000	-4.45525E-004	-8.74800E-002	4.11818E-002	3.55602E+001	11	...........	6.87103E-002	-5.21514E-003	6.09770E-001	5.33862E-001	-2.57068E-002	-3.67043E-002	7.06024E-001	-4.37087E-002	-6.12369E-004	4.64791E-005	-5.43447E-003	-4.75796E-003	2.29108E-004	3.27121E-004	-6.29233E-003	3.89547E-004
	193	193	4.99879E-002	-8.94654E-003	0.00000E+000	-4.47219E-004	-8.78280E-002	4.12971E-002	3.60347E+001	11	...........	6.89017E-002	-5.22250E-003	6.09708E-001	5.33697E-001	-2.56954E-002	-3.67067E-002	7.06112E-001	-4.35110E-002	-6.16432E-004	4.67233E-005	-5.45478E-003	-4.77474E-003	2.29885E-004	3.28398E-004	-6.31726E-003	3.89273E-004
	194	194	4.99885E-002	-8.82503E-003	0.00000E+000	-4.41151E-004	-8.66087E-002	4.12120E-002	3.61022E+001	11	...........	6.87535E-002	-5.29903E-003	6.09701E-001	5.33557E-001	-2.56981E-002	-3.67457E-002	7.06197E-001	-4.36422E-002	-6.06752E-004	4.67641E-005	-5.38063E-003	-4.70866E-003	2.26786E-004	3.24282E-004	-6.23221E-003	3.85144E-004
	195	195	4.99863E-002	-8.69329E-003	0.00000E+000	-4.34545E-004	-8.52947E-002	4.12095E-002	3.58854E+001	11	...........	6.87597E-002	-5.41667E-003	6.09792E-001	5.33527E-001	-2.57043E-002	-3.67475E-002	7.06185E-001	-4.36268E-002	-5.97748E-004	4.70887E-005	-5.30110E-003	-4.63810E-003	2.23455E-004	3.19457E-004	-6.13907E-003	3.79261E-004
	196	196	4.99898E-002	-8.60589E-003	0.00000E+000	-4.30207E-004	-8.44380E-002	4.12525E-002	3.61034E+001	11	...........	6.88289E-002	-5.38708E-003	6.09767E-001	5.33670E-001	-2.56847E-002	-3.67621E-002	7.06137E-001	-4.37804E-002	-5.92334E-004	4.63606E-005	-5.24758E-003	-4.59271E-003	2.21040E-004	3.16370E-004	-6.07694E-003	3.76769E-004
	197	197	4.99882E-002	-8.54190E-003	0.00000E+000	-4.26994E-004	-8.37820E-002	4.12066E-002	3.61973E+001	11	...........	6.87585E-002	-5.32278E-003	6.09659E-001	5.33595E-001	-2.56911E-002	-3.67836E-002	7.05957E-001	-4.38042E-002	-5.87328E-004	4.54666E-005	-5.20765E-003	-4.55792E-003	2.19451E-004	3.14202E-004	-6.03022E-003	3.74171E-004
	198	198	4.99870E-002	-8.36814E-003	0.00000E+000	-4.18299E-004	-8.20633E-002	4.11492E-002	3.51826E+001	11	...........	6.86553E-002	-5.32278E-003	6.09535E-001	5.33323E-001	-2.56753E-002	-3.67749E-002	7.05947E-001	-4.37224E-002	-5.74517E-004	4.45418E-005	-5.10068E-003	-4.46292E-003	2.14854E-004	3.07737E-004	-5.90747E-003	3.65875E-004
	199	199	4.99875E-002	-8.31685E-003	0.00000E+000	-4.15738E-004	-8.15513E-002	4.13574E-002	3.55997E+001	11	...........	6.90190E-002	-5.33889E-003	6.09601E-001	5.33269E-001	-2.57099E-002	-3.67587E-002	7.05958E-001	-4.37035E-002	-5.74021E-004	4.44028E-005	-5.06996E-003	-4.43512E-003	2.13825E-004	3.05717E-004	-5.87135E-003	3.63475E-004
	200	200	4.99883E-002	-8.10261E-003	0.00000E+000	-4.05036E-004	-7.94307E-002	4.10581E-002	3.50346E+001	11	...........	6.85069E-002	-5.36125E-003	6.09675E-001	5.33302E-001	-2.57292E-002	-3.67637E-002	7.05976E-001	-4.36792E-002	-5.55085E-004	4.34401E-005	-4.93996E-003	-4.32114E-003	2.08473E-004	2.97882E-004	-5.72025E-003	3.53915E-004
	201	201	4.99899E-002	-8.13340E-003	0.00000E+000	-4.06588E-004	-7.97360E-002	4.12978E-002	3.61512E+001	11	...........	6.89192E-002	-5.32486E-003	6.09690E-001	5.33413E-001	-2.57499E-002	-3.67575E-002	7.06004E-001	-4.36801E-002	-5.60547E-004	4.33092E-005	-4.95885E-003	-4.33846E-003	2.09434E-004	2.98963E-004	-5.74221E-003	3.55268E-004
	202	202	4.99881E-002	-8.09077E-003	0.00000E+000	-4.04442E-004	-7.93000E-002	4.12466E-002	3.60455E+001	11	...........	6.88217E-002	-5.43597E-003	6.09628E-001	5.33428E-001	-2.57601E-002	-3.67783E-002	7.06009E-001	-4.35751E-002	-5.56820E-004	4.39812E-005	-4.93235E-003	-4.31584E-003	2.08419E-004	2.97565E-004	-5.71215E-003	3.52556E-004
	203	203	4.99866E-002	-7.89807E-003	0.00000E+000	-3.94798E-004	-7.74040E-002	4.11322E-002	3.50727E+001	11	...........	6.86196E-002	-5.33236E-003	6.09548E-001	5.33447E-001	-2.57400E-002	-3.67562E-002	7.06006E-001	-4.36810E-002	-5.41962E-004	4.21153E-005	-4.81425E-003	-4.21320E-003	2.03296E-004	2.90303E-004	-5.57608E-003	3.44995E-004
	204	204	4.99901E-002	-7.86842E-003	0.00000E+000	-3.93344E-004	-7.71013E-002	4.13622E-002	3.61521E+001	11	...........	6.90122E-002	-5.25931E-003	6.09621E-001	5.33388E-001	-2.56971E-002	-3.67311E-002	7.06188E-001	-4.37881E-002	-5.43017E-004	4.13824E-005	-4.79676E-003	-4.19692E-003	2.02196E-004	2.89016E-004	-5.55659E-003	3.44543E-004
	205	205	4.99882E-002	-7.77391E-003	0.00000E+000	-3.88604E-004	-7.61813E-002	4.11721E-002	3.59404E+001	11	...........	6.86918E-002	-5.13431E-003	6.09589E-001	5.33372E-001	-2.56793E-002	-3.67304E-002	7.06153E-001	-4.38568E-002	-5.34004E-004	3.99136E-005	-4.73889E-003	-4.14639E-003	1.99629E-004	2.85539E-004	-5.48957E-003	3.40939E-004
	206	206	4.99886E-002	-7.71691E-003	0.00000E+000	-3.85758E-004	-7.56133E-002	4.12418E-002	3.61159E+001	11	...........	6.87925E-002	-5.10458E-003	6.09490E-001	5.33290E-001	-2.56540E-002	-3.67372E-002	7.06196E-001	-4.37869E-002	-5.30866E-004	3.93916E-005	-4.70338E-003	-4.11535E-003	1.97970E-004	2.83498E-004	-5.44966E-003	3.37900E-004
	207	207	4.99882E-002	-7.65346E-003	0.00000E+000	-3.82583E-004	-7.49967E-002	4.12691E-002	3.60981E+001	11	...........	6.88589E-002	-5.25500E-003	6.09527E-001	5.33329E-001	-2.56721E-002	-3.67500E-002	7.06149E-001	-4.36751E-002	-5.27009E-004	4.02189E-005	-4.66499E-003	-4.08182E-003	1.96480E-004	2.81265E-004	-5.40448E-003	3.34266E-004
	208	208	4.99874E-002	-7.55764E-003	0.00000E+000	-3.77786E-004	-7.40120E-002	4.12253E-002	3.62589E+001	11	...........	6.87871E-002	-5.42903E-003	6.09743E-001	5.33294E-001	-2.57124E-002	-3.67596E-002	7.06181E-001	-4.37594E-002	-5.19868E-004	4.10306E-005	-4.60822E-003	-4.03044E-003	1.94325E-004	2.77816E-004	-5.33706E-003	3.30718E-004
	209	209	4.99885E-002	-7.42801E-003	0.00000E+000	-3.71315E-004	-7.27133E-002	4.13129E-002	3.51589E+001	11	...........	6.89058E-002	-5.41083E-003	6.09688E-001	5.33428E-001	-2.57187E-002	-3.67671E-002	7.06123E-001	-4.37936E-002	-5.11833E-004	4.01917E-005	-4.52877E-003	-3.96231E-003	1.91039E-004	2.73106E-004	-5.24509E-003	3.25299E-004
	210	210	4.99890E-002	-7.27092E-003	0.00000E+000	-3.63466E-004	-7.11773E-002	4.10911E-002	3.54572E+001	11	...........	6.85712E-002	-5.30125E-003	6.09516E-001	5.33557E-001	-2.56835E-002	-3.67589E-002	7.06172E-001	-4.37926E-002	-4.98576E-004	3.85449E-005	-4.43174E-003	-3.87945E-003	1.86742E-004	2.67271E-004	-5.13452E-003	3.18413E-004
	211	211	4.99888E-002	-7.32761E-003	0.00000E+000	-3.66298E-004	-7.17587E-002	4.13847E-002	3.63638E+001	11	...........	6.90497E-002	-5.41292E-003	6.09649E-001	5.33715E-001	-2.56432E-002	-3.67483E-002	7.06085E-001	-4.37010E-002	-5.05969E-004	3.96637E-005	-4.46727E-003	-3.91086E-003	1.87903E-004	2.69277E-004	-5.17391E-003	3.20224E-004
	212	212	4.99885E-002	-7.25632E-003	0.00000E+000	-3.62733E-004	-7.10013E-002	4.12813E-002	3.64432E+001	11	...........	6.88704E-002	-5.36861E-003	6.09635E-001	5.33792E-001	-2.56281E-002	-3.67487E-002	7.06071E-001	-4.38429E-002	-4.99746E-004	3.89564E-005	-4.42371E-003	-3.87337E-003	1.85965E-004	2.66661E-004	-5.12348E-003	3.18138E-004
	213	213	4.99882E-002	-7.16018E-003	0.00000E+000	-3.57924E-004	-7.00760E-002	4.12586E-002	3.59030E+001	11	...........	6.88506E-002	-5.41792E-003	6.09532E-001	5.33875E-001	-2.56360E-002	-3.67587E-002	7.06081E-001	-4.38240E-002	-4.92982E-004	3.87932E-005	-4.36435E-003	-3.82264E-003	1.83558E-004	2.63199E-004	-5.05567E-003	3.13788E-004
	214	214	4.99884E-002	-7.10051E-003	0.00000E+000	-3.54943E-004	-6.94540E-002	4.12869E-002	3.60341E+001	11	...........	6.88580E-002	-5.37236E-003	6.09610E-001	5.34006E-001	-2.56615E-002	-3.67410E-002	7.06070E-001	-4.36837E-002	-4.88927E-004	3.81465E-005	-4.32854E-003	-3.79172E-003	1.82210E-004	2.60880E-004	-5.01346E-003	3.10177E-004
	215	215	4.99885E-002	-6.97069E-003	0.00000E+000	-3.48454E-004	-6.82107E-002	4.11767E-002	3.59721E+001	11	...........	6.87064E-002	-5.36222E-003	6.09518E-001	5.33936E-001	-2.56869E-002	-3.67374E-002	7.05981E-001	-4.37872E-002	-4.78931E-004	3.73784E-005	-4.24876E-003	-3.72190E-003	1.79056E-004	2.56085E-004	-4.92117E-003	3.05227E-004
	216	216	4.99883E-002	-6.95528E-003	0.00000E+000	-3.47682E-004	-6.80080E-002	4.13893E-002	3.64757E+001	11	...........	6.90686E-002	-5.27111E-003	6.09535E-001	5.33946E-001	-2.56806E-002	-3.67539E-002	7.05934E-001	-4.38617E-002	-4.80391E-004	3.66620E-005	-4.23949E-003	-3.71374E-003	1.78615E-004	2.55634E-004	-4.90997E-003	3.05070E-004
	217	217	4.99879E-002	-6.85431E-003	0.00000E+000	-3.42633E-004	-6.70560E-002	4.12772E-002	3.60626E+001	11	...........	6.88633E-002	-5.24944E-003	6.09344E-001	5.33932E-001	-2.56619E-002	-3.67203E-002	7.05989E-001	-4.37556E-002	-4.72011E-004	3.59813E-005	-4.17663E-003	-3.65974E-003	1.75895E-004	2.51692E-004	-4.83907E-003	2.99914E-004
	218	218	4.99881E-002	-6.68230E-003	0.00000E+000	-3.34036E-004	-6.53373E-002	4.11647E-002	3.50214E+001	11	...........	6.86655E-002	-5.30708E-003	6.09251E-001	5.33797E-001	-2.56322E-002	-3.67211E-002	7.05930E-001	-4.37883E-002	-4.58844E-004	3.54635E-005	-4.07120E-003	-3.56700E-003	1.71282E-004	2.45382E-004	-4.71724E-003	2.92607E-004
	219	219	4.99900E-002	-6.68620E-003	0.00000E+000	-3.34243E-004	-6.54067E-002	4.14012E-002	3.59217E+001	11	...........	6.90783E-002	-5.20972E-003	6.09039E-001	5.33853E-001	-2.56293E-002	-3.67289E-002	7.06148E-001	-4.38431E-002	-4.61871E-004	3.48332E-005	-4.07215E-003	-3.56945E-003	1.71363E-004	2.45577E-004	-4.72144E-003	2.93143E-004
	220	220	4.99870E-002	-6.64970E-003	0.00000E+000	-3.32398E-004	-6.50293E-002	4.12849E-002	3.58804E+001	11	...........	6.88703E-002	-5.37569E-003	6.09028E-001	5.33738E-001	-2.56047E-002	-3.67062E-002	7.06131E-001	-4.38922E-002	-4.57967E-004	3.57468E-005	-4.04986E-003	-3.54920E-003	1.70264E-004	2.44086E-004	-4.69556E-003	2.91870E-004
	221	221	4.99899E-002	-6.60326E-003	0.00000E+000	-3.30097E-004	-6.45300E-002	4.13603E-002	3.63757E+001	11	...........	6.89994E-002	-5.36528E-003	6.08925E-001	5.33664E-001	-2.56251E-002	-3.67376E-002	7.06101E-001	-4.38950E-002	-4.55622E-004	3.54283E-005	-4.02089E-003	-3.52392E-003	1.69210E-004	2.42588E-004	-4.66257E-003	2.89850E-004
	222	222	4.99885E-002	-6.53033E-003	0.00000E+000	-3.26442E-004	-6.38627E-002	4.13212E-002	3.65288E+001	11	...........	6.89272E-002	-5.38722E-003	6.08735E-001	5.33672E-001	-2.56467E-002	-3.67439E-002	7.06092E-001	-4.39433E-002	-4.50118E-004	3.51803E-005	-3.97524E-003	-3.48506E-003	1.67481E-004	2.39950E-004	-4.61101E-003	2.86965E-004
	223	223	4.99885E-002	-6.44187E-003	0.00000E+000	-3.22019E-004	-6.29093E-002	4.13386E-002	3.52129E+001	11	...........	6.89581E-002	-5.43611E-003	6.08841E-001	5.33641E-001	-2.56444E-002	-3.67535E-002	7.05956E-001	-4.38993E-002	-4.44219E-004	3.50187E-005	-3.92207E-003	-3.43764E-003	1.65198E-004	2.36761E-004	-4.54767E-003	2.82793E-004
	224	224	4.99884E-002	-6.31142E-003	0.00000E+000	-3.15498E-004	-6.16167E-002	4.11752E-002	3.58608E+001	11	...........	6.87121E-002	-5.49306E-003	6.08663E-001	5.33551E-001	-2.56178E-002	-3.67821E-002	7.05971E-001	-4.38175E-002	-4.33671E-004	3.46690E-005	-3.84153E-003	-3.36747E-003	1.61685E-004	2.32147E-004	-4.45568E-003	2.76551E-004
	225	225	4.99888E-002	-6.34992E-003	0.00000E+000	-3.17425E-004	-6.20060E-002	4.14107E-002	3.60516E+001	11	...........	6.91133E-002	-5.55056E-003	6.08832E-001	5.33492E-001	-2.55849E-002	-3.68047E-002	7.06013E-001	-4.37931E-002	-4.38864E-004	3.52456E-005	-3.86604E-003	-3.38763E-003	1.62462E-004	2.33707E-004	-4.48313E-003	2.78083E-004
	226	226	4.99889E-002	-6.28165E-003	0.00000E+000	-3.14012E-004	-6.13120E-002	4.13668E-002	3.63190E+001	11	...........	6.90196E-002	-5.55556E-003	6.08863E-001	5.33478E-001	-2.56019E-002	-3.67951E-002	7.06102E-001	-4.36719E-002	-4.33557E-004	3.48980E-005	-3.82466E-003	-3.35112E-003	1.60822E-004	2.31134E-004	-4.43548E-003	2.74332E-004
	227	227	4.99874E-002	-6.21518E-003	0.00000E+000	-3.10681E-004	-6.06593E-002	4.13416E-002	3.61261E+001	11	...........	6.89774E-002	-5.53444E-003	6.08809E-001	5.33414E-001	-2.56199E-002	-3.67835E-002	7.06109E-001	-4.35579E-002	-4.28707E-004	3.43976E-005	-3.78386E-003	-3.31526E-003	1.59232E-004	2.28616E-004	-4.38859E-003	2.70720E-004
	228	228	4.99897E-002	-6.13966E-003	0.00000E+000	-3.06920E-004	-5.98973E-002	4.13146E-002	3.61690E+001	11	...........	6.89299E-002	-5.45750E-003	6.08854E-001	5.33462E-001	-2.56444E-002	-3.67937E-002	7.06103E-001	-4.35882E-002	-4.23206E-004	3.35072E-005	-3.73815E-003	-3.27528E-003	1.57448E-004	2.25901E-004	-4.33523E-003	2.67616E-004
	229	229	4.99888E-002	-6.11197E-003	0.00000E+000	-3.05530E-004	-5.96167E-002	4.14110E-002	3.65671E+001	11	...........	6.90892E-002	-5.41333E-003	6.08976E-001	5.33435E-001	-2.56549E-002	-3.67653E-002	7.06062E-001	-4.35404E-002	-4.22271E-004	3.30862E-005	-3.72204E-003	-3.26034E-003	1.56802E-004	2.24708E-004	-4.31543E-003	2.66118E-004
	230	230	4.99876E-002	-6.01370E-003	0.00000E+000	-3.00611E-004	-5.86533E-002	4.12992E-002	3.56923E+001	11	...........	6.89000E-002	-5.39528E-003	6.09197E-001	5.33493E-001	-2.56735E-002	-3.67572E-002	7.06154E-001	-4.35782E-002	-4.14344E-004	3.24456E-005	-3.66353E-003	-3.20827E-003	1.54393E-004	2.21047E-004	-4.24660E-003	2.62066E-004
	231	231	4.99888E-002	-5.96569E-003	0.00000E+000	-2.98218E-004	-5.81620E-002	4.14243E-002	3.63671E+001	11	...........	6.91310E-002	-5.41625E-003	6.09092E-001	5.33541E-001	-2.56304E-002	-3.67610E-002	7.06202E-001	-4.37368E-002	-4.12414E-004	3.23117E-005	-3.63366E-003	-3.18294E-003	1.52903E-004	2.19305E-004	-4.21298E-003	2.60920E-004
	232	232	4.99869E-002	-5.83831E-003	0.00000E+000	-2.91839E-004	-5.69073E-002	4.13165E-002	3.49921E+001	11	...........	6.89236E-002	-5.38583E-003	6.08967E-001	5.33588E-001	-2.56029E-002	-3.67756E-002	7.06095E-001	-4.37704E-002	-4.02398E-004	3.14442E-005	-3.55534E-003	-3.11526E-003	1.49478E-004	2.14707E-004	-4.12241E-003	2.55545E-004
	233	233	4.99905E-002	-5.75698E-003	0.00000E+000	-2.87795E-004	-5.60907E-002	4.12246E-002	3.55211E+001	11	...........	6.87829E-002	-5.26694E-003	6.08999E-001	5.33586E-001	-2.56090E-002	-3.67925E-002	7.05931E-001	-4.38025E-002	-3.95982E-004	3.03217E-005	-3.50600E-003	-3.07184E-003	1.47431E-004	2.11814E-004	-4.06403E-003	2.52170E-004
	234	234	4.99888E-002	-5.78884E-003	0.00000E+000	-2.89377E-004	-5.64033E-002	4.14840E-002	3.64668E+001	11	...........	6.92112E-002	-5.35625E-003	6.09116E-001	5.33573E-001	-2.56222E-002	-3.68175E-002	7.05991E-001	-4.38433E-002	-4.00653E-004	3.10065E-005	-3.52607E-003	-3.08877E-003	1.48323E-004	2.13131E-004	-4.08687E-003	2.53802E-004
	235	235	4.99889E-002	-5.73715E-003	0.00000E+000	-2.86794E-004	-5.59087E-002	4.13958E-002	3.65495E+001	11	...........	6.90736E-002	-5.39986E-003	6.08993E-001	5.33545E-001	-2.56226E-002	-3.67956E-002	7.05970E-001	-4.37735E-002	-3.96286E-004	3.09798E-005	-3.49388E-003	-3.06103E-003	1.47001E-004	2.11102E-004	-4.05025E-003	2.51135E-004
	236	236	4.99886E-002	-5.68264E-003	0.00000E+000	-2.84067E-004	-5.53547E-002	4.13725E-002	3.62611E+001	11	...........	6.90253E-002	-5.38806E-003	6.08892E-001	5.33587E-001	-2.56104E-002	-3.67875E-002	7.05993E-001	-4.36915E-002	-3.92245E-004	3.06184E-005	-3.46011E-003	-3.03218E-003	1.45535E-004	2.09050E-004	-4.01190E-003	2.48283E-004
	237	237	4.99883E-002	-5.62804E-003	0.00000E+000	-2.81337E-004	-5.48047E-002	4.13898E-002	3.64247E+001	11	...........	6.90692E-002	-5.36847E-003	6.08859E-001	5.33514E-001	-2.56354E-002	-3.68169E-002	7.05883E-001	-4.37028E-002	-3.88724E-004	3.02140E-005	-3.42669E-003	-3.00264E-003	1.44277E-004	2.07207E-004	-3.97274E-003	2.45961E-004
	238	238	4.99878E-002	-5.49320E-003	0.00000E+000	-2.74593E-004	-5.34773E-002	4.13152E-002	3.45972E+001	11	...........	6.89404E-002	-5.51028E-003	6.09001E-001	5.33671E-001	-2.56342E-002	-3.68119E-002	7.05905E-001	-4.37882E-002	-3.78703E-004	3.02690E-005	-3.34536E-003	-2.93156E-003	1.40813E-004	2.02215E-004	-3.87768E-003	2.40537E-004
	239	239	4.99901E-002	-5.44272E-003	0.00000E+000	-2.72082E-004	-5.29653E-002	4.13352E-002	3.56850E+001	11	...........	6.89701E-002	-5.42306E-003	6.09083E-001	5.33660E-001	-2.56376E-002	-3.67885E-002	7.05896E-001	-4.37611E-002	-3.75385E-004	2.95162E-005	-3.31507E-003	-2.90456E-003	1.39539E-004	2.00229E-004	-3.84200E-003	2.38180E-004
	240	240	4.99886E-002	-5.46538E-003	0.00000E+000	-2.73207E-004	-5.31807E-002	4.14650E-002	3.64866E+001	11	...........	6.91815E-002	-5.33500E-003	6.09212E-001	5.33555E-001	-2.56347E-002	-3.67735E-002	7.06035E-001	-4.36836E-002	-3.78104E-004	2.91578E-005	-3.32957E-003	-2.91608E-003	1.40104E-004	2.00981E-004	-3.85875E-003	2.38748E-004
	241	241	4.99890E-002	-5.42425E-003	0.00000E+000	-2.71153E-004	-5.27993E-002	4.13990E-002	3.65535E+001	11	...........	6.90550E-002	-5.29694E-003	6.09440E-001	5.33592E-001	-2.56304E-002	-3.67894E-002	7.06138E-001	-4.37442E-002	-3.74572E-004	2.87320E-005	-3.30576E-003	-2.89433E-003	1.39026E-004	1.99555E-004	-3.83027E-003	2.37279E-004
	242	242	4.99886E-002	-5.36636E-003	0.00000E+000	-2.68257E-004	-5.22053E-002	4.13605E-002	3.60789E+001	11	...........	6.90137E-002	-5.26431E-003	6.09563E-001	5.33654E-001	-2.56292E-002	-3.67807E-002	7.06088E-001	-4.38372E-002	-3.70353E-004	2.82502E-005	-3.27114E-003	-2.86378E-003	1.37535E-004	1.97378E-004	-3.78912E-003	2.35246E-004
	243	243	4.99888E-002	-5.33158E-003	0.00000E+000	-2.66519E-004	-5.18447E-002	4.13913E-002	3.64890E+001	11	...........	6.90781E-002	-5.23722E-003	6.09416E-001	5.33706E-001	-2.56329E-002	-3.67504E-002	7.06171E-001	-4.37557E-002	-3.68295E-004	2.79227E-005	-3.24915E-003	-2.84550E-003	1.36664E-004	1.95938E-004	-3.76501E-003	2.33287E-004
	244	244	4.99891E-002	-5.26773E-003	0.00000E+000	-2.63329E-004	-5.12360E-002	4.13411E-002	3.60708E+001	11	...........	6.89643E-002	-5.32569E-003	6.09416E-001	5.33711E-001	-2.56189E-002	-3.67487E-002	7.06002E-001	-4.38358E-002	-3.63285E-004	2.80543E-005	-3.21024E-003	-2.81144E-003	1.34953E-004	1.93582E-004	-3.71903E-003	2.30915E-004
	245	245	4.99883E-002	-5.20561E-003	0.00000E+000	-2.60220E-004	-5.06293E-002	4.14980E-002	3.62974E+001	11	...........	6.92432E-002	-5.30472E-003	6.09456E-001	5.33788E-001	-2.56444E-002	-3.67562E-002	7.05902E-001	-4.38386E-002	-3.60453E-004	2.76143E-005	-3.17259E-003	-2.77869E-003	1.33495E-004	1.91339E-004	-3.67465E-003	2.28207E-004
	246	245.628	4.99860E-002	-5.15510E-003	0.00000E+000	-2.57683E-004	-5.01162E-002	4.13446E-002	3.41468E+001	11	...........	6.89766E-002	-5.27675E-003	6.09540E-001	5.33995E-001	-2.56461E-002	-3.67423E-002	7.05954E-001	-4.37748E-002	-3.55581E-004	2.72022E-005	-3.14224E-003	-2.75280E-003	1.32208E-004	1.89410E-004	-3.63927E-003	2.25663E-004
STARTTIMEOFFSET	QUANT	656975.8	Start Time Offset (s)
