EXPLAIN
TAG	PWR800_DISCHARGE
TITLE	LABEL	PWR Discharge	Test Identifier
DATE	LABEL	10/13/2022	Date
TIME	LABEL	0:01:19	Time
NOTES	NOTES	1	Notes...
	
PSTAT	PSTAT	REF3000-21114	Potentiostat
CAPACITY	QUANT	5.30000E-002	Capacity (A-hr)
CELLTYPE	SELECTOR	1	Cell Type
WORKINGCONNECTION	SELECTOR	0	Working Connection
MAXDISCHARGETIME	VARIABLEANDUNITS	7.20000E+003	s	2.00000E+000	hour(s)	Max Discharge Time
DISCHARGEMODE	MULTIPARAM	0	1.00000E-001	Discharge Mode	Constant Current	Amp(s)
VOLTAGEFINISH	TWOPARAM	T	5.00000E-003	7.20000E+003	Voltage Finish	I (A) <	Max Time(s)
SAMPLETIME	QUANT	1.00000E+000	Sample Period (s)
DISCHARGESTOPAT1	MULTIPARAM	1	5.00000E-002	Stop At 1	|Voltage| < Limit	V
DISCHARGESTOPAT2	MULTIPARAM	0	0.00000E+000	Stop At 2	None	N/A
AESELECTOR	AESELECTOR	0x1	T	Set Limits	AE Channels
AESBHCSELECTOR	TOGGLE	F	Save Both Half Cells
IRCOMP	TOGGLE	F	IR Measure
EOC	QUANT	0.5621113	Open Circuit (V)
SEQUENCER	TOGGLE	TRUE	Run as Sequence
PSTATMODEL	IQUANT	5	Pstat Model
PSTATSECTION	LABEL	REF3000-21114	Pstat Section
PSTATSERIALNO	LABEL	21114	Pstat Serial Number
CTRLMODE	IQUANT	0	Control Mode
ELECTROMETER	IQUANT	0	RE=0 or CS=1
IESTAB	IQUANT	0	I/E Stability
CASPEED	IQUANT	4	Control Amp Speed
CONVENTION	IQUANT	1	Current Convention
ICHRANGE	IQUANT	2	Ich Range
ICHRANGEMODE	TOGGLE	T	Ich Auto Range
ICHOFFSETENABLE	TOGGLE	F	Ich Offset Enable
ICHOFFSET	QUANT	0	Ich Offset (V)
ICHFILTER	IQUANT	1	Ich Filter
VCHRANGE	IQUANT	3	Vch Range
VCHRANGEMODE	TOGGLE	T	Vch Auto Range
VCHOFFSETENABLE	TOGGLE	F	Vch Offset Enable
VCHOFFSET	QUANT	0	Vch Offset (V)
VCHFILTER	IQUANT	1	Vch Filter
ACHRANGE	IQUANT	2	Ach Range
ACHOFFSETENABLE	TOGGLE	F	Ach Offset Enable
ACHOFFSET	QUANT	0	Ach Offset (V)
ACHFILTER	IQUANT	1	Ach Filter
IERANGELOWERLIMIT	IQUANT	9	I/E Range Lower Limit
IERANGEMODE	TOGGLE	F	I/E AutoRange
IERANGE	IQUANT	9	I/E Range
POSFEEDENABLE	TOGGLE	F	Positive Feedback IR Comp
POSFEEDRESISTANCE	QUANT	0	Positive Feedback Resistance (ohm)
ACHSELECT	IQUANT	1	Ach Select
SENSECABLEID	IQUANT	13	Sense Cable ID
PWRCABLEID	IQUANT	13	Power Cable ID
DCCALDATE	LABEL		DC Calibration Date
ACCALDATE	LABEL		AC Calibration Date
THERMOSELECT	IQUANT	1	Thermo Select
FRAMEWORKVERSION	LABEL	7.8.6	Framework Version
INSTRUMENTVERSION	LABEL	4.50	Instrument Version
COMPLIANCEVOLTAGE	IQUANT	0	Compliance Voltage
CURVE	TABLE	160
	Pt	T	Vf	Im	Vu	Pwr	Sig	Ach	Temp	IERange	Over	Vf1	Vf2	Vf3	Vf4	Vf5	Vf6	Vf7	Vf8	Pwr1	Pwr2	Pwr3	Pwr4	Pwr5	Pwr6	Pwr7	Pwr8
	#	s	V	A	V	W	V	V	deg C	#	bits	V	V	V	V	V	V	V	V	W	W	W	W	W	W	W	W
	0	1	3.35433E-001	-1.00091E-001	0.00000E+000	-3.35737E-002	-9.94000E-001	3.82085E-002	3.08418E+001	11	...........	6.32969E-002	-4.75556E-003	5.82698E-001	5.83094E-001	-2.88328E-002	-3.95078E-002	6.70386E-001	-4.38908E-002	-6.33543E-003	4.75986E-004	-5.83226E-002	-5.83622E-002	2.88589E-003	3.95436E-003	-6.70993E-002	4.39306E-003
	1	2	2.46661E-001	-1.00091E-001	0.00000E+000	-2.46886E-002	-9.94000E-001	3.82391E-002	3.01091E+001	11	...........	6.33314E-002	-4.72319E-003	5.82492E-001	5.83081E-001	-2.88232E-002	-3.94921E-002	6.70412E-001	-4.37628E-002	-6.33892E-003	4.72750E-004	-5.83023E-002	-5.83613E-002	2.88495E-003	3.95281E-003	-6.71024E-002	4.38027E-003
	2	3	1.73044E-001	-1.00091E-001	0.00000E+000	-1.73202E-002	-9.94000E-001	3.81681E-002	2.93928E+001	11	...........	6.32271E-002	-4.62500E-003	5.82394E-001	5.83139E-001	-2.88268E-002	-3.95110E-002	6.70488E-001	-4.38614E-002	-6.32849E-003	4.62923E-004	-5.82927E-002	-5.83672E-002	2.88532E-003	3.95471E-003	-6.71101E-002	4.39015E-003
	3	4	1.08115E-001	-1.00091E-001	0.00000E+000	-1.08214E-002	-9.94000E-001	3.81181E-002	2.87599E+001	11	...........	6.31722E-002	-4.60528E-003	5.82443E-001	5.83329E-001	-2.88196E-002	-3.95097E-002	6.70541E-001	-4.39328E-002	-6.32299E-003	4.60948E-004	-5.82974E-002	-5.83861E-002	2.88459E-003	3.95458E-003	-6.71153E-002	4.39729E-003
	4	4.53667	6.41114E-002	-1.00092E-001	0.00000E+000	-6.41705E-003	-9.94000E-001	3.81374E-002	2.83642E+001	11	...........	6.32086E-002	-4.75647E-003	5.82497E-001	5.83301E-001	-2.88217E-002	-3.94933E-002	6.70515E-001	-4.38784E-002	-6.32669E-003	4.76086E-004	-5.83035E-002	-5.83839E-002	2.88483E-003	3.95297E-003	-6.71134E-002	4.39188E-003
	5	5	4.94878E-002	-9.06372E-002	0.00000E+000	-4.48543E-003	-8.99965E-001	3.81694E-002	2.87149E+001	11	...........	6.32626E-002	-4.81475E-003	5.82535E-001	5.83266E-001	-2.87578E-002	-3.95099E-002	6.70536E-001	-4.37746E-002	-5.73395E-003	4.36395E-004	-5.27994E-002	-5.28656E-002	2.60653E-003	3.58107E-003	-6.07755E-002	3.96761E-003
	6	6	4.97047E-002	-7.20277E-002	0.00000E+000	-3.58011E-003	-7.14962E-001	3.82922E-002	2.96142E+001	11	...........	6.34386E-002	-4.76722E-003	5.82505E-001	5.83230E-001	-2.88094E-002	-3.95151E-002	6.70591E-001	-4.39415E-002	-4.56934E-003	3.43372E-004	-4.19565E-002	-4.20087E-002	2.07508E-003	2.84619E-003	-4.83012E-002	3.16501E-003
	7	7	4.98158E-002	-5.82273E-002	0.00000E+000	-2.90064E-003	-5.77769E-001	3.83675E-002	3.03653E+001	11	...........	6.35864E-002	-4.76514E-003	5.82489E-001	5.83323E-001	-2.88186E-002	-3.95267E-002	6.70605E-001	-4.39108E-002	-3.70246E-003	2.77461E-004	-3.39168E-002	-3.39653E-002	1.67803E-003	2.30153E-003	-3.90475E-002	2.55681E-003
	8	8	4.98639E-002	-5.04624E-002	0.00000E+000	-2.51625E-003	-5.00581E-001	3.84715E-002	3.08494E+001	11	...........	6.37762E-002	-4.79722E-003	5.82335E-001	5.83198E-001	-2.88043E-002	-3.95299E-002	6.70604E-001	-4.38567E-002	-3.21830E-003	2.42079E-004	-2.93860E-002	-2.94296E-002	1.45353E-003	1.99477E-003	-3.38403E-002	2.21311E-003
	9	9	4.98892E-002	-4.55487E-002	0.00000E+000	-2.27239E-003	-4.51727E-001	3.85584E-002	3.12053E+001	11	...........	6.39533E-002	-4.83542E-003	5.82232E-001	5.83096E-001	-2.88226E-002	-3.95522E-002	6.70390E-001	-4.39046E-002	-2.91299E-003	2.20247E-004	-2.65199E-002	-2.65593E-002	1.31283E-003	1.80155E-003	-3.05354E-002	1.99980E-003
	10	10	4.99024E-002	-4.22224E-002	0.00000E+000	-2.10700E-003	-4.18658E-001	3.86418E-002	3.14820E+001	11	...........	6.41003E-002	-4.72389E-003	5.82325E-001	5.82993E-001	-2.88154E-002	-3.95583E-002	6.70393E-001	-4.38961E-002	-2.70647E-003	1.99454E-004	-2.45872E-002	-2.46153E-002	1.21666E-003	1.67025E-003	-2.83056E-002	1.85340E-003
	11	11	4.99116E-002	-3.98248E-002	0.00000E+000	-1.98772E-003	-3.94831E-001	3.86963E-002	3.16635E+001	11	...........	6.42147E-002	-4.65389E-003	5.82334E-001	5.83018E-001	-2.88053E-002	-3.95485E-002	6.70555E-001	-4.39376E-002	-2.55734E-003	1.85340E-004	-2.31913E-002	-2.32186E-002	1.14716E-003	1.57501E-003	-2.67047E-002	1.74981E-003
	12	12	4.99171E-002	-3.79980E-002	0.00000E+000	-1.89675E-003	-3.76675E-001	3.88003E-002	3.17896E+001	11	...........	6.44100E-002	-4.65347E-003	5.82511E-001	5.82909E-001	-2.88132E-002	-3.95408E-002	6.70558E-001	-4.39032E-002	-2.44745E-003	1.76822E-004	-2.21342E-002	-2.21494E-002	1.09484E-003	1.50247E-003	-2.54798E-002	1.66823E-003
	13	13	4.99205E-002	-3.65375E-002	0.00000E+000	-1.82397E-003	-3.62128E-001	3.87644E-002	3.19350E+001	11	...........	6.43461E-002	-4.71264E-003	5.82553E-001	5.82807E-001	-2.88165E-002	-3.95229E-002	6.70469E-001	-4.38035E-002	-2.35105E-003	1.72188E-004	-2.12851E-002	-2.12943E-002	1.05288E-003	1.44407E-003	-2.44973E-002	1.60047E-003
	14	14	4.99254E-002	-3.53592E-002	0.00000E+000	-1.76532E-003	-3.50433E-001	3.88547E-002	3.20395E+001	11	...........	6.45040E-002	-4.74639E-003	5.82548E-001	5.82861E-001	-2.87925E-002	-3.95146E-002	6.70444E-001	-4.39486E-002	-2.28081E-003	1.67829E-004	-2.05984E-002	-2.06095E-002	1.01808E-003	1.39721E-003	-2.37064E-002	1.55399E-003
	15	15	4.99270E-002	-3.44972E-002	0.00000E+000	-1.72234E-003	-3.41833E-001	3.89040E-002	3.21528E+001	11	...........	6.46005E-002	-4.72514E-003	5.82620E-001	5.82961E-001	-2.88212E-002	-3.95221E-002	6.70510E-001	-4.39690E-002	-2.22854E-003	1.63004E-004	-2.00988E-002	-2.01106E-002	9.94254E-004	1.36340E-003	-2.31307E-002	1.51681E-003
	16	16	4.99268E-002	-3.36704E-002	0.00000E+000	-1.68106E-003	-3.33631E-001	3.89298E-002	3.22640E+001	11	...........	6.46601E-002	-4.69667E-003	5.82678E-001	5.82987E-001	-2.88096E-002	-3.95164E-002	6.70499E-001	-4.38329E-002	-2.17714E-003	1.58139E-004	-1.96190E-002	-1.96294E-002	9.70031E-004	1.33053E-003	-2.25760E-002	1.47587E-003
	17	17	4.99277E-002	-3.28673E-002	0.00000E+000	-1.64099E-003	-3.25659E-001	3.89852E-002	3.23566E+001	11	...........	6.47217E-002	-4.72250E-003	5.82704E-001	5.83185E-001	-2.87882E-002	-3.95022E-002	6.70440E-001	-4.38831E-002	-2.12722E-003	1.55216E-004	-1.91519E-002	-1.91677E-002	9.46189E-004	1.29833E-003	-2.20355E-002	1.44232E-003
	18	18	4.99303E-002	-3.21850E-002	0.00000E+000	-1.60701E-003	-3.18853E-001	3.90268E-002	3.24147E+001	11	...........	6.47826E-002	-4.64819E-003	5.82778E-001	5.83271E-001	-2.88143E-002	-3.94951E-002	6.70551E-001	-4.38896E-002	-2.08503E-003	1.49602E-004	-1.87567E-002	-1.87726E-002	9.27388E-004	1.27115E-003	-2.15817E-002	1.41259E-003
	19	19	4.99284E-002	-3.16057E-002	0.00000E+000	-1.57802E-003	-3.13079E-001	3.90550E-002	3.24895E+001	11	...........	6.48551E-002	-4.66125E-003	5.82786E-001	5.83223E-001	-2.87993E-002	-3.94821E-002	6.70524E-001	-4.38492E-002	-2.04979E-003	1.47322E-004	-1.84194E-002	-1.84332E-002	9.10223E-004	1.24786E-003	-2.11924E-002	1.38588E-003
	20	20	4.99300E-002	-3.09957E-002	0.00000E+000	-1.54761E-003	-3.07047E-001	3.90077E-002	3.25499E+001	11	...........	6.49222E-002	-4.67125E-003	5.82783E-001	5.83093E-001	-2.87868E-002	-3.95019E-002	6.70453E-001	-4.38065E-002	-2.01231E-003	1.44788E-004	-1.80637E-002	-1.80734E-002	8.92266E-004	1.22439E-003	-2.07811E-002	1.35781E-003
	21	21	4.99308E-002	-3.04659E-002	0.00000E+000	-1.52118E-003	-3.01798E-001	3.90332E-002	3.25044E+001	11	...........	6.50996E-002	-4.64889E-003	5.82803E-001	5.83097E-001	-2.88083E-002	-3.94911E-002	6.70540E-001	-4.38007E-002	-1.98332E-003	1.41632E-004	-1.77556E-002	-1.77645E-002	8.77671E-004	1.20313E-003	-2.04286E-002	1.33443E-003
	22	22	4.99300E-002	-2.98915E-002	0.00000E+000	-1.49248E-003	-2.96080E-001	3.90416E-002	3.25920E+001	11	...........	6.51035E-002	-4.71000E-003	5.82731E-001	5.83077E-001	-2.88211E-002	-3.94825E-002	6.70787E-001	-4.37518E-002	-1.94604E-003	1.40789E-004	-1.74187E-002	-1.74290E-002	8.61505E-004	1.18019E-003	-2.00508E-002	1.30781E-003
	23	23	4.99313E-002	-2.93770E-002	0.00000E+000	-1.46683E-003	-2.90938E-001	3.90121E-002	3.26898E+001	11	...........	6.50615E-002	-4.80083E-003	5.82743E-001	5.83022E-001	-2.88207E-002	-3.94822E-002	6.70823E-001	-4.38158E-002	-1.91131E-003	1.41034E-004	-1.71192E-002	-1.71274E-002	8.46665E-004	1.15987E-003	-1.97068E-002	1.28718E-003
	24	24	4.99325E-002	-2.90147E-002	0.00000E+000	-1.44878E-003	-2.87334E-001	3.90695E-002	3.27514E+001	11	...........	6.51686E-002	-4.80583E-003	5.82725E-001	5.82969E-001	-2.88217E-002	-3.94857E-002	6.70830E-001	-4.38533E-002	-1.89085E-003	1.39440E-004	-1.69076E-002	-1.69147E-002	8.36252E-004	1.14567E-003	-1.94639E-002	1.27239E-003
	25	25	4.99307E-002	-2.85305E-002	0.00000E+000	-1.42455E-003	-2.82546E-001	3.91053E-002	3.28388E+001	11	...........	6.52397E-002	-4.72639E-003	5.82662E-001	5.82935E-001	-2.88306E-002	-3.94818E-002	6.70842E-001	-4.37794E-002	-1.86132E-003	1.34846E-004	-1.66237E-002	-1.66314E-002	8.22551E-004	1.12644E-003	-1.91395E-002	1.24905E-003
	26	26	4.99305E-002	-2.80486E-002	0.00000E+000	-1.40048E-003	-2.77758E-001	3.91441E-002	3.28983E+001	11	...........	6.52843E-002	-4.74708E-003	5.82693E-001	5.82895E-001	-2.88418E-002	-3.94610E-002	6.70745E-001	-4.36639E-002	-1.83113E-003	1.33149E-004	-1.63437E-002	-1.63494E-002	8.08972E-004	1.10683E-003	-1.88135E-002	1.22471E-003
	27	27	4.99308E-002	-2.75282E-002	0.00000E+000	-1.37451E-003	-2.72589E-001	3.91772E-002	3.29388E+001	11	...........	6.53394E-002	-4.75389E-003	5.82663E-001	5.82947E-001	-2.88194E-002	-3.94665E-002	6.70770E-001	-4.37201E-002	-1.79868E-003	1.30866E-004	-1.60397E-002	-1.60475E-002	7.93348E-004	1.08644E-003	-1.84651E-002	1.20354E-003
	28	28	4.99192E-002	-2.67598E-002	0.00000E+000	-1.33583E-003	-2.64927E-001	3.91473E-002	3.21621E+001	11	...........	6.52997E-002	-4.70528E-003	5.82819E-001	5.83022E-001	-2.88019E-002	-3.94557E-002	6.70940E-001	-4.37096E-002	-1.74740E-003	1.25912E-004	-1.55961E-002	-1.56015E-002	7.70733E-004	1.05582E-003	-1.79542E-002	1.16966E-003
	29	29	4.99466E-002	-2.63430E-002	0.00000E+000	-1.31575E-003	-2.60767E-001	3.92061E-002	3.28289E+001	11	...........	6.53990E-002	-4.75889E-003	5.82816E-001	5.83154E-001	-2.88065E-002	-3.94446E-002	6.70944E-001	-4.37818E-002	-1.72281E-003	1.25364E-004	-1.53531E-002	-1.53621E-002	7.58852E-004	1.03909E-003	-1.76747E-002	1.15335E-003
	30	30	4.99332E-002	-2.64957E-002	0.00000E+000	-1.32302E-003	-2.62285E-001	3.92411E-002	3.30372E+001	11	...........	6.54625E-002	-4.77792E-003	5.82754E-001	5.83149E-001	-2.88381E-002	-3.94279E-002	6.70936E-001	-4.37757E-002	-1.73448E-003	1.26594E-004	-1.54405E-002	-1.54510E-002	7.64085E-004	1.04467E-003	-1.77769E-002	1.15987E-003
	31	31	4.99328E-002	-2.61536E-002	0.00000E+000	-1.30592E-003	-2.58890E-001	3.92051E-002	3.30877E+001	11	...........	6.53979E-002	-4.74972E-003	5.82707E-001	5.82909E-001	-2.88372E-002	-3.94383E-002	6.70932E-001	-4.37547E-002	-1.71039E-003	1.24222E-004	-1.52399E-002	-1.52452E-002	7.54197E-004	1.03145E-003	-1.75473E-002	1.14434E-003
	32	32	4.99341E-002	-2.58001E-002	0.00000E+000	-1.28830E-003	-2.55398E-001	3.92487E-002	3.31249E+001	11	...........	6.54743E-002	-4.78347E-003	5.82646E-001	5.82812E-001	-2.88567E-002	-3.94715E-002	6.70993E-001	-4.37082E-002	-1.68924E-003	1.23414E-004	-1.50323E-002	-1.50366E-002	7.44505E-004	1.01837E-003	-1.73117E-002	1.12768E-003
	33	33	4.99321E-002	-2.55355E-002	0.00000E+000	-1.27504E-003	-2.52769E-001	3.92849E-002	3.31635E+001	11	...........	6.55322E-002	-4.81139E-003	5.82724E-001	5.82654E-001	-2.88531E-002	-3.94850E-002	6.70887E-001	-4.37210E-002	-1.67340E-003	1.22861E-004	-1.48801E-002	-1.48783E-002	7.36777E-004	1.00827E-003	-1.71314E-002	1.11644E-003
	34	34	4.99318E-002	-2.51376E-002	0.00000E+000	-1.25517E-003	-2.48813E-001	3.93532E-002	3.31547E+001	11	...........	6.56206E-002	-4.86875E-003	5.82591E-001	5.82667E-001	-2.88339E-002	-3.94958E-002	6.70961E-001	-4.36983E-002	-1.64955E-003	1.22389E-004	-1.46450E-002	-1.46469E-002	7.24816E-004	9.92832E-004	-1.68664E-002	1.09847E-003
	35	35	4.99322E-002	-2.47333E-002	0.00000E+000	-1.23499E-003	-2.44784E-001	3.93449E-002	3.32469E+001	11	...........	6.56154E-002	-4.81778E-003	5.82445E-001	5.82681E-001	-2.88471E-002	-3.95008E-002	6.70981E-001	-4.36647E-002	-1.62289E-003	1.19160E-004	-1.44058E-002	-1.44116E-002	7.13484E-004	9.76986E-004	-1.65956E-002	1.07997E-003
	36	36	4.99329E-002	-2.43860E-002	0.00000E+000	-1.21766E-003	-2.41312E-001	3.93833E-002	3.32809E+001	11	...........	6.56746E-002	-4.84903E-003	5.82436E-001	5.82472E-001	-2.88689E-002	-3.94968E-002	6.70925E-001	-4.36753E-002	-1.60154E-003	1.18248E-004	-1.42032E-002	-1.42041E-002	7.03995E-004	9.63167E-004	-1.63612E-002	1.06506E-003
	37	37	4.99318E-002	-2.40396E-002	0.00000E+000	-1.20034E-003	-2.37859E-001	3.94231E-002	3.33348E+001	11	...........	6.57382E-002	-4.81750E-003	5.82371E-001	5.82393E-001	-2.88512E-002	-3.94819E-002	6.70911E-001	-4.38028E-002	-1.58032E-003	1.15811E-004	-1.40000E-002	-1.40005E-002	6.93573E-004	9.49131E-004	-1.61284E-002	1.05300E-003
	38	38	4.99332E-002	-2.36998E-002	0.00000E+000	-1.18341E-003	-2.34489E-001	3.95175E-002	3.32221E+001	11	...........	6.59040E-002	-4.93889E-003	5.82199E-001	5.82435E-001	-2.88550E-002	-3.94906E-002	6.70832E-001	-4.38508E-002	-1.56191E-003	1.17051E-004	-1.37980E-002	-1.38036E-002	6.83859E-004	9.35920E-004	-1.58986E-002	1.03926E-003
	39	39	4.99321E-002	-2.33236E-002	0.00000E+000	-1.16460E-003	-2.30765E-001	3.94562E-002	3.33882E+001	11	...........	6.58069E-002	-4.78750E-003	5.82143E-001	5.82340E-001	-2.88728E-002	-3.94746E-002	6.70802E-001	-4.39115E-002	-1.53485E-003	1.11662E-004	-1.35776E-002	-1.35822E-002	6.73416E-004	9.20688E-004	-1.56455E-002	1.02417E-003
	40	40	4.99330E-002	-2.29449E-002	0.00000E+000	-1.14571E-003	-2.27004E-001	3.94955E-002	3.34071E+001	11	...........	6.58856E-002	-4.74111E-003	5.82051E-001	5.82176E-001	-2.88851E-002	-3.94761E-002	6.70984E-001	-4.39479E-002	-1.51173E-003	1.08784E-004	-1.33551E-002	-1.33580E-002	6.62765E-004	9.05774E-004	-1.53956E-002	1.00838E-003
	41	41	4.99340E-002	-2.26565E-002	0.00000E+000	-1.13133E-003	-2.24135E-001	3.95166E-002	3.34656E+001	11	...........	6.59183E-002	-4.76542E-003	5.81963E-001	5.82155E-001	-2.89058E-002	-3.94851E-002	6.71044E-001	-4.38233E-002	-1.49348E-003	1.07968E-004	-1.31853E-002	-1.31896E-002	6.54906E-004	8.94597E-004	-1.52035E-002	9.92885E-004
	42	42	4.99322E-002	-2.23694E-002	0.00000E+000	-1.11695E-003	-2.21289E-001	3.95494E-002	3.35124E+001	11	...........	6.59594E-002	-4.67889E-003	5.81974E-001	5.82060E-001	-2.89011E-002	-3.94713E-002	6.71046E-001	-4.38364E-002	-1.47547E-003	1.04664E-004	-1.30184E-002	-1.30203E-002	6.46500E-004	8.82947E-004	-1.50109E-002	9.80593E-004
	43	43	4.99313E-002	-2.19810E-002	0.00000E+000	-1.09754E-003	-2.17418E-001	3.97005E-002	3.32397E+001	11	...........	6.62126E-002	-4.72889E-003	5.82116E-001	5.82074E-001	-2.89183E-002	-3.94617E-002	6.70989E-001	-4.38250E-002	-1.45542E-003	1.03946E-004	-1.27955E-002	-1.27945E-002	6.35653E-004	8.67405E-004	-1.47490E-002	9.63316E-004
	44	44	4.99341E-002	-2.15763E-002	0.00000E+000	-1.07739E-003	-2.13361E-001	3.95859E-002	3.32610E+001	11	...........	6.60033E-002	-4.71181E-003	5.81919E-001	5.82038E-001	-2.88922E-002	-3.94682E-002	6.70924E-001	-4.39390E-002	-1.42411E-003	1.01663E-004	-1.25556E-002	-1.25582E-002	6.23386E-004	8.51576E-004	-1.44760E-002	9.48040E-004
	45	45	4.99291E-002	-2.11540E-002	0.00000E+000	-1.05620E-003	-2.09168E-001	3.95613E-002	3.29631E+001	11	...........	6.59549E-002	-4.57319E-003	5.81915E-001	5.82023E-001	-2.88774E-002	-3.94614E-002	6.70882E-001	-4.37794E-002	-1.39521E-003	9.67414E-005	-1.23098E-002	-1.23121E-002	6.10872E-004	8.34767E-004	-1.41918E-002	9.26111E-004
	46	46	4.99398E-002	-2.11029E-002	0.00000E+000	-1.05387E-003	-2.08666E-001	3.96708E-002	3.34659E+001	11	...........	6.61426E-002	-4.69667E-003	5.82016E-001	5.82121E-001	-2.88883E-002	-3.94736E-002	6.71072E-001	-4.38425E-002	-1.39580E-003	9.91132E-005	-1.22822E-002	-1.22844E-002	6.09627E-004	8.33007E-004	-1.41616E-002	9.25203E-004
	47	47	4.99333E-002	-2.09203E-002	0.00000E+000	-1.04462E-003	-2.06852E-001	3.96505E-002	3.36138E+001	11	...........	6.61289E-002	-4.68986E-003	5.82144E-001	5.82081E-001	-2.89162E-002	-3.95032E-002	6.71181E-001	-4.39289E-002	-1.38344E-003	9.81134E-005	-1.21786E-002	-1.21773E-002	6.04937E-004	8.26419E-004	-1.40413E-002	9.19006E-004
	48	48	4.99339E-002	-2.06452E-002	0.00000E+000	-1.03090E-003	-2.04138E-001	3.96718E-002	3.36461E+001	11	...........	6.61554E-002	-4.67556E-003	5.82125E-001	5.82017E-001	-2.88665E-002	-3.94846E-002	6.71113E-001	-4.38211E-002	-1.36579E-003	9.65278E-005	-1.20181E-002	-1.20159E-002	5.95956E-004	8.15168E-004	-1.38553E-002	9.04696E-004
	49	49	4.99332E-002	-2.03943E-002	0.00000E+000	-1.01835E-003	-2.01657E-001	3.96938E-002	3.37045E+001	11	...........	6.62021E-002	-4.63042E-003	5.82257E-001	5.82069E-001	-2.88599E-002	-3.95018E-002	6.70966E-001	-4.38908E-002	-1.35014E-003	9.44340E-005	-1.18747E-002	-1.18709E-002	5.88576E-004	8.05611E-004	-1.36839E-002	8.95122E-004
	50	50	4.99330E-002	-2.00894E-002	0.00000E+000	-1.00313E-003	-1.98620E-001	3.97004E-002	3.37416E+001	11	...........	6.62103E-002	-4.73944E-003	5.82222E-001	5.82011E-001	-2.88479E-002	-3.94882E-002	6.70983E-001	-4.38629E-002	-1.33013E-003	9.52128E-005	-1.16965E-002	-1.16923E-002	5.79539E-004	7.93296E-004	-1.34797E-002	8.81182E-004
	51	51	4.99327E-002	-1.97747E-002	0.00000E+000	-9.87403E-004	-1.95491E-001	3.97231E-002	3.37820E+001	11	...........	6.62474E-002	-4.67819E-003	5.82293E-001	5.81931E-001	-2.88417E-002	-3.94846E-002	6.70975E-001	-4.38017E-002	-1.31002E-003	9.25097E-005	-1.15147E-002	-1.15075E-002	5.70334E-004	7.80794E-004	-1.32683E-002	8.66163E-004
	52	52	4.99334E-002	-1.94494E-002	0.00000E+000	-9.71173E-004	-1.92243E-001	3.97419E-002	3.38232E+001	11	...........	6.62762E-002	-4.71917E-003	5.82320E-001	5.81904E-001	-2.88507E-002	-3.94837E-002	6.70869E-001	-4.38596E-002	-1.28903E-003	9.17848E-005	-1.13258E-002	-1.13177E-002	5.61128E-004	7.67934E-004	-1.30480E-002	8.53041E-004
	53	53	4.99333E-002	-1.91488E-002	0.00000E+000	-9.56164E-004	-1.89230E-001	3.97703E-002	3.38748E+001	11	...........	6.63117E-002	-4.75750E-003	5.82233E-001	5.81943E-001	-2.88717E-002	-3.94703E-002	6.70765E-001	-4.39658E-002	-1.26979E-003	9.11004E-005	-1.11491E-002	-1.11435E-002	5.52858E-004	7.55808E-004	-1.28443E-002	8.41893E-004
	54	54	4.99342E-002	-1.88921E-002	0.00000E+000	-9.43363E-004	-1.86676E-001	3.97882E-002	3.39039E+001	11	...........	6.63546E-002	-4.76625E-003	5.82393E-001	5.81925E-001	-2.88600E-002	-3.94789E-002	6.70828E-001	-4.39375E-002	-1.25358E-003	9.00445E-005	-1.10026E-002	-1.09938E-002	5.45226E-004	7.45839E-004	-1.26734E-002	8.30072E-004
	55	55	4.99327E-002	-1.85421E-002	0.00000E+000	-9.25860E-004	-1.83203E-001	3.98652E-002	3.32015E+001	11	...........	6.64833E-002	-4.89833E-003	5.82467E-001	5.82091E-001	-2.88997E-002	-3.94901E-002	6.70874E-001	-4.38808E-002	-1.23274E-003	9.08256E-005	-1.08002E-002	-1.07932E-002	5.35863E-004	7.32232E-004	-1.24394E-002	8.13644E-004
	56	56	4.99332E-002	-1.80504E-002	0.00000E+000	-9.01314E-004	-1.78335E-001	3.97522E-002	3.32349E+001	11	...........	6.62955E-002	-4.79875E-003	5.82391E-001	5.82069E-001	-2.88926E-002	-3.94937E-002	6.70943E-001	-4.38988E-002	-1.19666E-003	8.66194E-005	-1.05124E-002	-1.05066E-002	5.21524E-004	7.12878E-004	-1.21108E-002	7.92390E-004
	57	57	4.99359E-002	-1.80986E-002	0.00000E+000	-9.03768E-004	-1.78820E-001	3.99062E-002	3.38343E+001	11	...........	6.65711E-002	-4.82306E-003	5.82382E-001	5.82135E-001	-2.89139E-002	-3.95151E-002	6.70930E-001	-4.38494E-002	-1.20484E-003	8.72904E-005	-1.05403E-002	-1.05358E-002	5.23300E-004	7.15167E-004	-1.21429E-002	7.93612E-004
	58	58	4.99338E-002	-1.79089E-002	0.00000E+000	-8.94258E-004	-1.76937E-001	3.98828E-002	3.39282E+001	11	...........	6.65305E-002	-4.82028E-003	5.82547E-001	5.82295E-001	-2.89182E-002	-3.95162E-002	6.70956E-001	-4.38147E-002	-1.19149E-003	8.63258E-005	-1.04328E-002	-1.04283E-002	5.17892E-004	7.07692E-004	-1.20161E-002	7.84673E-004
	59	59	4.99339E-002	-1.76811E-002	0.00000E+000	-8.82886E-004	-1.74667E-001	3.98987E-002	3.40325E+001	11	...........	6.65524E-002	-4.87153E-003	5.82527E-001	5.82452E-001	-2.89114E-002	-3.94840E-002	6.70756E-001	-4.37551E-002	-1.17672E-003	8.61340E-005	-1.02997E-002	-1.02984E-002	5.11186E-004	6.98122E-004	-1.18597E-002	7.73640E-004
	60	60	4.99339E-002	-1.74267E-002	0.00000E+000	-8.70184E-004	-1.72143E-001	3.99006E-002	3.41005E+001	11	...........	6.65968E-002	-4.70972E-003	5.82582E-001	5.82627E-001	-2.89303E-002	-3.94778E-002	6.70840E-001	-4.37594E-002	-1.16056E-003	8.20750E-005	-1.01525E-002	-1.01533E-002	5.04160E-004	6.87968E-004	-1.16905E-002	7.62584E-004
	61	61	4.99335E-002	-1.71567E-002	0.00000E+000	-8.56693E-004	-1.69460E-001	3.99382E-002	3.41428E+001	11	...........	6.66237E-002	-4.78375E-003	5.82697E-001	5.82500E-001	-2.89321E-002	-3.94221E-002	6.70917E-001	-4.37919E-002	-1.14304E-003	8.20732E-005	-9.99715E-003	-9.99375E-003	4.96378E-004	6.76352E-004	-1.15107E-002	7.51324E-004
	62	62	4.99339E-002	-1.68923E-002	0.00000E+000	-8.43498E-004	-1.66806E-001	3.99618E-002	3.41745E+001	11	...........	6.66717E-002	-4.73736E-003	5.82625E-001	5.82496E-001	-2.89257E-002	-3.94251E-002	6.70985E-001	-4.38181E-002	-1.12624E-003	8.00249E-005	-9.84188E-003	-9.83969E-003	4.88621E-004	6.65981E-004	-1.13345E-002	7.40188E-004
	63	63	4.99340E-002	-1.66470E-002	0.00000E+000	-8.31249E-004	-1.64353E-001	3.99842E-002	3.41717E+001	11	...........	6.67053E-002	-4.60903E-003	5.82648E-001	5.82393E-001	-2.89472E-002	-3.93965E-002	6.71054E-001	-4.37644E-002	-1.11044E-003	7.67263E-005	-9.69932E-003	-9.69507E-003	4.81883E-004	6.55832E-004	-1.11710E-002	7.28545E-004
	64	64	4.99339E-002	-1.64201E-002	0.00000E+000	-8.19919E-004	-1.62090E-001	4.00634E-002	3.41258E+001	11	...........	6.68269E-002	-4.68944E-003	5.82840E-001	5.82456E-001	-2.89129E-002	-3.93864E-002	6.71097E-001	-4.37186E-002	-1.09730E-003	7.70011E-005	-9.57028E-003	-9.56398E-003	4.74753E-004	6.46728E-004	-1.10195E-002	7.17864E-004
	65	65	4.99333E-002	-1.61424E-002	0.00000E+000	-8.06042E-004	-1.59327E-001	3.99907E-002	3.42122E+001	11	...........	6.67199E-002	-4.75986E-003	5.82922E-001	5.82570E-001	-2.88894E-002	-3.93707E-002	6.71027E-001	-4.37889E-002	-1.07702E-003	7.68355E-005	-9.40975E-003	-9.40407E-003	4.66344E-004	6.35536E-004	-1.08320E-002	7.06857E-004
	66	66	4.99344E-002	-1.59099E-002	0.00000E+000	-7.94451E-004	-1.57024E-001	4.00390E-002	3.42228E+001	11	...........	6.67860E-002	-4.85403E-003	5.82850E-001	5.82578E-001	-2.88893E-002	-3.93932E-002	6.71066E-001	-4.37751E-002	-1.06256E-003	7.72270E-005	-9.27307E-003	-9.26875E-003	4.59626E-004	6.26741E-004	-1.06766E-002	6.96458E-004
	67	67	4.99340E-002	-1.56705E-002	0.00000E+000	-7.82494E-004	-1.54650E-001	4.00418E-002	3.42561E+001	11	...........	6.68036E-002	-4.89611E-003	5.82725E-001	5.82370E-001	-2.88721E-002	-3.93931E-002	6.71176E-001	-4.37644E-002	-1.04685E-003	7.67247E-005	-9.13162E-003	-9.12606E-003	4.52441E-004	6.17311E-004	-1.05177E-002	6.85813E-004
	68	68	4.99338E-002	-1.54522E-002	0.00000E+000	-7.71589E-004	-1.52491E-001	4.00777E-002	3.42916E+001	11	...........	6.68476E-002	-4.93417E-003	5.82863E-001	5.82307E-001	-2.88829E-002	-3.93893E-002	6.71169E-001	-4.38522E-002	-1.03295E-003	7.62439E-005	-9.00654E-003	-8.99796E-003	4.46306E-004	6.08653E-004	-1.03711E-002	6.77615E-004
	69	69	4.99348E-002	-1.52244E-002	0.00000E+000	-7.60225E-004	-1.50223E-001	4.00942E-002	3.43011E+001	11	...........	6.68597E-002	-4.91792E-003	5.82792E-001	5.82383E-001	-2.89203E-002	-3.94172E-002	6.71165E-001	-4.38371E-002	-1.01790E-003	7.48722E-005	-8.87265E-003	-8.86641E-003	4.40293E-004	6.00102E-004	-1.02181E-002	6.67392E-004
	70	70	4.99343E-002	-1.49991E-002	0.00000E+000	-7.48969E-004	-1.47989E-001	4.01029E-002	3.43127E+001	11	...........	6.68862E-002	-4.85681E-003	5.82646E-001	5.82307E-001	-2.88824E-002	-3.93947E-002	6.71145E-001	-4.38260E-002	-1.00323E-003	7.28476E-005	-8.73915E-003	-8.73408E-003	4.33209E-004	5.90885E-004	-1.00666E-002	6.57349E-004
	71	71	4.99336E-002	-1.47872E-002	0.00000E+000	-7.38377E-004	-1.45879E-001	4.01220E-002	3.43264E+001	11	...........	6.69129E-002	-4.80889E-003	5.82515E-001	5.82398E-001	-2.88887E-002	-3.93781E-002	6.71189E-001	-4.38072E-002	-9.89452E-004	7.11098E-005	-8.61375E-003	-8.61201E-003	4.27183E-004	5.82290E-004	-9.92499E-003	6.47785E-004
	72	72	4.99343E-002	-1.45325E-002	0.00000E+000	-7.25672E-004	-1.43343E-001	4.02008E-002	3.42267E+001	11	...........	6.70404E-002	-4.74444E-003	5.82419E-001	5.82502E-001	-2.88924E-002	-3.93862E-002	6.71137E-001	-4.37558E-002	-9.74268E-004	6.89489E-005	-8.46403E-003	-8.46524E-003	4.19880E-004	5.72382E-004	-9.75333E-003	6.35884E-004
	73	73	4.99339E-002	-1.43252E-002	0.00000E+000	-7.15315E-004	-1.41269E-001	4.01496E-002	3.43415E+001	11	...........	6.69650E-002	-4.74750E-003	5.82519E-001	5.82596E-001	-2.88746E-002	-3.93819E-002	6.71037E-001	-4.37351E-002	-9.59290E-004	6.80091E-005	-8.34473E-003	-8.34583E-003	4.13635E-004	5.64156E-004	-9.61276E-003	6.26516E-004
	74	74	4.99346E-002	-1.41326E-002	0.00000E+000	-7.05703E-004	-1.39351E-001	4.04395E-002	3.41244E+001	11	...........	6.74551E-002	-4.75194E-003	5.82509E-001	5.82689E-001	-2.89035E-002	-3.94125E-002	6.71076E-001	-4.38664E-002	-9.53314E-004	6.71571E-005	-8.23234E-003	-8.23489E-003	4.08480E-004	5.56999E-004	-9.48402E-003	6.19944E-004
	75	75	4.99342E-002	-1.38954E-002	0.00000E+000	-6.93856E-004	-1.36979E-001	4.00968E-002	3.39520E+001	11	...........	6.68744E-002	-4.67458E-003	5.82430E-001	5.82662E-001	-2.89190E-002	-3.94286E-002	6.70961E-001	-4.38214E-002	-9.29248E-004	6.49552E-005	-8.09310E-003	-8.09633E-003	4.01842E-004	5.47877E-004	-9.32328E-003	6.08916E-004
	76	76	4.99341E-002	-1.36663E-002	0.00000E+000	-6.82413E-004	-1.34701E-001	4.01515E-002	3.37292E+001	11	...........	6.69751E-002	-4.78750E-003	5.82232E-001	5.82669E-001	-2.88844E-002	-3.93965E-002	6.71012E-001	-4.37768E-002	-9.15300E-004	6.54272E-005	-7.95694E-003	-7.96290E-003	3.94742E-004	5.38403E-004	-9.17023E-003	5.98265E-004
	77	77	4.99357E-002	-1.35097E-002	0.00000E+000	-6.74616E-004	-1.33151E-001	4.02004E-002	3.38947E+001	11	...........	6.70580E-002	-4.81806E-003	5.82123E-001	5.82564E-001	-2.88736E-002	-3.94158E-002	6.71042E-001	-4.38165E-002	-9.05935E-004	6.50905E-005	-7.86431E-003	-7.87027E-003	3.90074E-004	5.32496E-004	-9.06558E-003	5.91949E-004
	78	78	4.99346E-002	-1.33856E-002	0.00000E+000	-6.68403E-004	-1.31915E-001	4.02776E-002	3.40520E+001	11	...........	6.71736E-002	-4.83986E-003	5.82153E-001	5.82557E-001	-2.88597E-002	-3.94275E-002	6.71178E-001	-4.39612E-002	-8.99157E-004	6.47843E-005	-7.79246E-003	-7.79786E-003	3.86304E-004	5.27760E-004	-8.98410E-003	5.88447E-004
	79	79	4.99350E-002	-1.32145E-002	0.00000E+000	-6.59863E-004	-1.30217E-001	4.02896E-002	3.42476E+001	11	...........	6.71742E-002	-4.83625E-003	5.82195E-001	5.82741E-001	-2.88347E-002	-3.94296E-002	6.71183E-001	-4.38831E-002	-8.87670E-004	6.39084E-005	-7.69339E-003	-7.70060E-003	3.81035E-004	5.21040E-004	-8.86932E-003	5.79891E-004
	80	80	4.99349E-002	-1.30339E-002	0.00000E+000	-6.50847E-004	-1.28432E-001	4.02950E-002	3.42588E+001	11	...........	6.72157E-002	-4.81486E-003	5.82168E-001	5.82788E-001	-2.88312E-002	-3.94365E-002	6.71242E-001	-4.38474E-002	-8.76083E-004	6.27565E-005	-7.58792E-003	-7.59601E-003	3.75784E-004	5.14012E-004	-8.74891E-003	5.71502E-004
	81	81	4.99347E-002	-1.28809E-002	0.00000E+000	-6.43204E-004	-1.26932E-001	4.02714E-002	3.43148E+001	11	...........	6.71685E-002	-4.80792E-003	5.82200E-001	5.82785E-001	-2.88361E-002	-3.94344E-002	6.71054E-001	-4.38381E-002	-8.65189E-004	6.19302E-005	-7.49926E-003	-7.50679E-003	3.71435E-004	5.07950E-004	-8.64377E-003	5.64673E-004
	82	82	4.99348E-002	-1.26948E-002	0.00000E+000	-6.33913E-004	-1.25073E-001	4.02812E-002	3.43455E+001	11	...........	6.71961E-002	-4.85139E-003	5.82274E-001	5.82697E-001	-2.88522E-002	-3.94406E-002	6.71069E-001	-4.38354E-002	-8.53042E-004	6.15875E-005	-7.39186E-003	-7.39724E-003	3.66274E-004	5.00691E-004	-8.51910E-003	5.56483E-004
	83	83	4.99351E-002	-1.25454E-002	0.00000E+000	-6.26457E-004	-1.23587E-001	4.03014E-002	3.44031E+001	11	...........	6.72207E-002	-4.75097E-003	5.82442E-001	5.82617E-001	-2.88325E-002	-3.94328E-002	6.70963E-001	-4.38483E-002	-8.43312E-004	5.96029E-005	-7.30698E-003	-7.30917E-003	3.61716E-004	4.94701E-004	-8.41752E-003	5.50096E-004
	84	84	4.99345E-002	-1.23628E-002	0.00000E+000	-6.17330E-004	-1.21775E-001	4.03212E-002	3.44173E+001	11	...........	6.72533E-002	-4.82625E-003	5.82470E-001	5.82780E-001	-2.88490E-002	-3.94254E-002	6.70803E-001	-4.38082E-002	-8.31438E-004	5.96659E-005	-7.20095E-003	-7.20479E-003	3.56654E-004	4.87408E-004	-8.29299E-003	5.41591E-004
	85	85	4.99342E-002	-1.21419E-002	0.00000E+000	-6.06299E-004	-1.19582E-001	4.03321E-002	3.44231E+001	11	...........	6.72629E-002	-4.83375E-003	5.82445E-001	5.82735E-001	-2.88951E-002	-3.94265E-002	6.70813E-001	-4.37863E-002	-8.16703E-004	5.86911E-005	-7.07202E-003	-7.07554E-003	3.50843E-004	4.78715E-004	-8.14498E-003	5.31650E-004
	86	86	4.99350E-002	-1.19756E-002	0.00000E+000	-5.98000E-004	-1.17928E-001	4.03451E-002	3.44606E+001	11	...........	6.72892E-002	-4.76514E-003	5.82208E-001	5.82688E-001	-2.88764E-002	-3.94240E-002	6.70802E-001	-4.38803E-002	-8.05826E-004	5.70652E-005	-6.97227E-003	-6.97802E-003	3.45811E-004	4.72125E-004	-8.03323E-003	5.25491E-004
	87	87	4.99352E-002	-1.18216E-002	0.00000E+000	-5.90313E-004	-1.16397E-001	4.03535E-002	3.44719E+001	11	...........	6.73035E-002	-4.76806E-003	5.82191E-001	5.82650E-001	-2.88619E-002	-3.94042E-002	6.70839E-001	-4.38740E-002	-7.95632E-004	5.63659E-005	-6.88241E-003	-6.88784E-003	3.41193E-004	4.65819E-004	-7.93036E-003	5.18660E-004
	88	88	4.99346E-002	-1.16648E-002	0.00000E+000	-5.82476E-004	-1.14818E-001	4.03674E-002	3.44724E+001	11	...........	6.73185E-002	-4.70708E-003	5.82394E-001	5.82600E-001	-2.88590E-002	-3.94179E-002	6.70776E-001	-4.37731E-002	-7.85255E-004	5.49071E-005	-6.79349E-003	-6.79590E-003	3.36634E-004	4.59801E-004	-7.82445E-003	5.10603E-004
	89	89	4.99348E-002	-1.14919E-002	0.00000E+000	-5.73844E-004	-1.13079E-001	4.04105E-002	3.44132E+001	11	...........	6.73824E-002	-4.67403E-003	5.82569E-001	5.82461E-001	-2.88682E-002	-3.94024E-002	6.70754E-001	-4.38572E-002	-7.74350E-004	5.37134E-005	-6.69482E-003	-6.69357E-003	3.31750E-004	4.52807E-004	-7.70823E-003	5.04002E-004
	90	90	4.99355E-002	-1.13468E-002	0.00000E+000	-5.66608E-004	-1.11629E-001	4.03758E-002	3.44793E+001	11	...........	6.73460E-002	-4.85792E-003	5.82691E-001	5.82466E-001	-2.88565E-002	-3.93829E-002	6.70771E-001	-4.38556E-002	-7.64161E-004	5.51218E-005	-6.61168E-003	-6.60913E-003	3.27429E-004	4.46870E-004	-7.61111E-003	4.97620E-004
	91	91	4.99349E-002	-1.11917E-002	0.00000E+000	-5.58857E-004	-1.10092E-001	4.04595E-002	3.44456E+001	11	...........	6.74778E-002	-4.92819E-003	5.82710E-001	5.82376E-001	-2.88336E-002	-3.93942E-002	6.70876E-001	-4.39587E-002	-7.55191E-004	5.51549E-005	-6.52152E-003	-6.51779E-003	3.22697E-004	4.40888E-004	-7.50825E-003	4.91973E-004
	92	92	4.99351E-002	-1.10499E-002	0.00000E+000	-5.51777E-004	-1.08680E-001	4.04013E-002	3.44023E+001	11	...........	6.73985E-002	-4.84986E-003	5.82716E-001	5.82246E-001	-2.88293E-002	-3.94036E-002	6.70837E-001	-4.39879E-002	-7.44746E-004	5.35904E-005	-6.43895E-003	-6.43375E-003	3.18561E-004	4.35406E-004	-7.41268E-003	4.86062E-004
	93	93	4.99358E-002	-1.09242E-002	0.00000E+000	-5.45508E-004	-1.07432E-001	4.04232E-002	3.44347E+001	11	...........	6.74122E-002	-4.80625E-003	5.82592E-001	5.82197E-001	-2.88110E-002	-3.93864E-002	6.70891E-001	-4.37885E-002	-7.36424E-004	5.25044E-005	-6.36434E-003	-6.36003E-003	3.14737E-004	4.30264E-004	-7.32894E-003	4.78354E-004
	94	94	4.99353E-002	-1.08084E-002	0.00000E+000	-5.39723E-004	-1.06291E-001	4.04252E-002	3.35321E+001	11	...........	6.74190E-002	-4.76347E-003	5.82594E-001	5.82206E-001	-2.88093E-002	-3.93903E-002	6.70864E-001	-4.38232E-002	-7.28695E-004	5.14857E-005	-6.29694E-003	-6.29274E-003	3.11384E-004	4.25748E-004	-7.25099E-003	4.73661E-004
	95	95	4.99351E-002	-1.04948E-002	0.00000E+000	-5.24061E-004	-1.03186E-001	4.03086E-002	3.40558E+001	11	...........	6.72322E-002	-4.82375E-003	5.82605E-001	5.82300E-001	-2.88169E-002	-3.94204E-002	6.70881E-001	-4.39208E-002	-7.05592E-004	5.06245E-005	-6.11435E-003	-6.11114E-003	3.02429E-004	4.13711E-004	-7.04079E-003	4.60942E-004
	96	96	4.99380E-002	-1.06956E-002	0.00000E+000	-5.34119E-004	-1.05163E-001	4.04751E-002	3.44118E+001	11	...........	6.75179E-002	-4.84000E-003	5.82511E-001	5.82255E-001	-2.88335E-002	-3.94554E-002	6.70797E-001	-4.39028E-002	-7.22148E-004	5.17669E-005	-6.23034E-003	-6.22760E-003	3.08393E-004	4.22001E-004	-7.17461E-003	4.69569E-004
	97	97	4.99355E-002	-1.06517E-002	0.00000E+000	-5.31898E-004	-1.04736E-001	4.04242E-002	3.44574E+001	11	...........	6.74250E-002	-4.82486E-003	5.82528E-001	5.82218E-001	-2.88186E-002	-3.94485E-002	6.70751E-001	-4.38600E-002	-7.18191E-004	5.13930E-005	-6.20491E-003	-6.20161E-003	3.06967E-004	4.20193E-004	-7.14463E-003	4.67183E-004
	98	98	4.99349E-002	-1.05529E-002	0.00000E+000	-5.26958E-004	-1.03749E-001	4.04132E-002	3.45015E+001	11	...........	6.74014E-002	-4.86653E-003	5.82493E-001	5.82203E-001	-2.88449E-002	-3.94425E-002	6.70848E-001	-4.38722E-002	-7.11280E-004	5.13560E-005	-6.14699E-003	-6.14393E-003	3.04397E-004	4.16233E-004	-7.07939E-003	4.62979E-004
	99	99	4.99355E-002	-1.03324E-002	0.00000E+000	-5.15952E-004	-1.01620E-001	4.04452E-002	3.42318E+001	11	...........	6.74329E-002	-4.82472E-003	5.82442E-001	5.82285E-001	-2.88503E-002	-3.94156E-002	6.70961E-001	-4.37392E-002	-6.96742E-004	4.98508E-005	-6.01801E-003	-6.01639E-003	2.98092E-004	4.07256E-004	-6.93262E-003	4.51929E-004
	100	100	4.99346E-002	-1.02032E-002	0.00000E+000	-5.09493E-004	-1.00332E-001	4.04065E-002	3.43365E+001	11	...........	6.73840E-002	-4.79722E-003	5.82475E-001	5.82273E-001	-2.88485E-002	-3.94190E-002	6.71044E-001	-4.36701E-002	-6.87534E-004	4.89471E-005	-5.94312E-003	-5.94105E-003	2.94347E-004	4.02201E-004	-6.84680E-003	4.45576E-004
	101	101	4.99341E-002	-1.00086E-002	0.00000E+000	-4.99771E-004	-9.83873E-002	4.04752E-002	3.45441E+001	11	...........	6.74943E-002	-4.77667E-003	5.82674E-001	5.82276E-001	-2.88411E-002	-3.94187E-002	6.71014E-001	-4.37383E-002	-6.75524E-004	4.78078E-005	-5.83176E-003	-5.82778E-003	2.88659E-004	3.94527E-004	-6.71591E-003	4.37760E-004
	102	102	4.99346E-002	-9.79229E-003	0.00000E+000	-4.88974E-004	-9.62420E-002	4.05180E-002	3.45963E+001	11	...........	6.75732E-002	-4.75194E-003	5.82650E-001	5.82252E-001	-2.88425E-002	-3.94174E-002	6.70923E-001	-4.37401E-002	-6.61696E-004	4.65324E-005	-5.70548E-003	-5.70158E-003	2.82434E-004	3.85986E-004	-6.56987E-003	4.28316E-004
	103	103	4.99347E-002	-9.60743E-003	0.00000E+000	-4.79744E-004	-9.44053E-002	4.05297E-002	3.46204E+001	11	...........	6.75905E-002	-4.72347E-003	5.82626E-001	5.82259E-001	-2.88369E-002	-3.94135E-002	6.70929E-001	-4.37985E-002	-6.49371E-004	4.53804E-005	-5.59753E-003	-5.59402E-003	2.77049E-004	3.78662E-004	-6.44590E-003	4.20791E-004
	104	104	4.99353E-002	-9.46391E-003	0.00000E+000	-4.72583E-004	-9.29613E-002	4.05365E-002	3.43915E+001	11	...........	6.76018E-002	-4.86139E-003	5.82614E-001	5.82302E-001	-2.87847E-002	-3.94049E-002	6.70883E-001	-4.37215E-002	-6.39777E-004	4.60077E-005	-5.51381E-003	-5.51086E-003	2.72416E-004	3.72924E-004	-6.34917E-003	4.13776E-004
	105	105	4.99341E-002	-9.27463E-003	0.00000E+000	-4.63121E-004	-9.10753E-002	4.04861E-002	3.38853E+001	11	...........	6.75126E-002	-4.85208E-003	5.82591E-001	5.82397E-001	-2.87572E-002	-3.93978E-002	6.70950E-001	-4.37804E-002	-6.26155E-004	4.50013E-005	-5.40331E-003	-5.40152E-003	2.66713E-004	3.65400E-004	-6.22281E-003	4.06047E-004
	106	106	4.99393E-002	-9.36142E-003	0.00000E+000	-4.67503E-004	-9.19560E-002	4.05714E-002	3.45138E+001	11	...........	6.76621E-002	-4.81583E-003	5.82539E-001	5.82469E-001	-2.87611E-002	-3.94203E-002	6.71072E-001	-4.37775E-002	-6.33413E-004	4.50830E-005	-5.45339E-003	-5.45273E-003	2.69245E-004	3.69030E-004	-6.28218E-003	4.09819E-004
	107	107	4.99356E-002	-9.33920E-003	0.00000E+000	-4.66359E-004	-9.17353E-002	4.05423E-002	3.46728E+001	11	...........	6.76432E-002	-4.73417E-003	5.82622E-001	5.82392E-001	-2.87457E-002	-3.94342E-002	6.70999E-001	-4.37981E-002	-6.31734E-004	4.42133E-005	-5.44123E-003	-5.43908E-003	2.68462E-004	3.68284E-004	-6.26660E-003	4.09039E-004
	108	108	4.99357E-002	-9.20399E-003	0.00000E+000	-4.59607E-004	-9.03820E-002	4.05497E-002	3.46872E+001	11	...........	6.76272E-002	-4.74736E-003	5.82579E-001	5.82369E-001	-2.87724E-002	-3.94483E-002	6.70971E-001	-4.37615E-002	-6.22440E-004	4.36947E-005	-5.36205E-003	-5.36011E-003	2.64820E-004	3.63082E-004	-6.17561E-003	4.02781E-004
	109	109	4.99352E-002	-9.09991E-003	0.00000E+000	-4.54406E-004	-8.93280E-002	4.05683E-002	3.47134E+001	11	...........	6.76582E-002	-4.74306E-003	5.82595E-001	5.82398E-001	-2.88008E-002	-3.94208E-002	6.70930E-001	-4.37660E-002	-6.15684E-004	4.31614E-005	-5.30156E-003	-5.29977E-003	2.62085E-004	3.58726E-004	-6.10540E-003	3.98266E-004
	110	110	4.99354E-002	-8.97821E-003	0.00000E+000	-4.48331E-004	-8.81113E-002	4.05795E-002	3.47754E+001	11	...........	6.76690E-002	-4.77611E-003	5.82662E-001	5.82272E-001	-2.88374E-002	-3.94226E-002	6.70949E-001	-4.37037E-002	-6.07547E-004	4.28809E-005	-5.23126E-003	-5.22776E-003	2.58908E-004	3.53945E-004	-6.02392E-003	3.92381E-004
	111	111	4.99352E-002	-8.87463E-003	0.00000E+000	-4.43156E-004	-8.70800E-002	4.05814E-002	3.47932E+001	11	...........	6.76847E-002	-4.82889E-003	5.82633E-001	5.82171E-001	-2.88181E-002	-3.94040E-002	6.70868E-001	-4.37236E-002	-6.00677E-004	4.28546E-005	-5.17065E-003	-5.16656E-003	2.55750E-004	3.49696E-004	-5.95371E-003	3.88031E-004
	112	112	4.99363E-002	-8.79936E-003	0.00000E+000	-4.39407E-004	-8.63293E-002	4.05858E-002	3.48110E+001	11	...........	6.77031E-002	-4.89986E-003	5.82696E-001	5.82175E-001	-2.88219E-002	-3.93924E-002	6.70825E-001	-4.37826E-002	-5.95744E-004	4.31157E-005	-5.12735E-003	-5.12277E-003	2.53615E-004	3.46628E-004	-5.90284E-003	3.85259E-004
	113	113	4.99354E-002	-8.68533E-003	0.00000E+000	-4.33705E-004	-8.51967E-002	4.05991E-002	3.48564E+001	11	...........	6.77094E-002	-4.85694E-003	5.82645E-001	5.82153E-001	-2.88154E-002	-3.93585E-002	6.70854E-001	-4.37749E-002	-5.88079E-004	4.21841E-005	-5.06046E-003	-5.05619E-003	2.50271E-004	3.41841E-004	-5.82659E-003	3.80199E-004
	114	114	4.99356E-002	-8.57025E-003	0.00000E+000	-4.27961E-004	-8.40567E-002	4.06039E-002	3.48829E+001	11	...........	6.77146E-002	-4.83361E-003	5.82653E-001	5.82298E-001	-2.88111E-002	-3.93351E-002	6.70876E-001	-4.38426E-002	-5.80331E-004	4.14253E-005	-4.99348E-003	-4.99044E-003	2.46918E-004	3.37112E-004	-5.74958E-003	3.75742E-004
	115	115	4.99358E-002	-8.45954E-003	0.00000E+000	-4.22434E-004	-8.29480E-002	4.06097E-002	3.49041E+001	11	...........	6.77475E-002	-4.78792E-003	5.82601E-001	5.82262E-001	-2.90700E-002	-3.93143E-002	6.70855E-001	-4.37494E-002	-5.73113E-004	4.05036E-005	-4.92854E-003	-4.92567E-003	2.45919E-004	3.32581E-004	-5.67512E-003	3.70100E-004
	116	116	4.99353E-002	-8.34904E-003	0.00000E+000	-4.16912E-004	-8.18560E-002	4.06332E-002	3.49291E+001	11	...........	6.77696E-002	-4.75319E-003	5.82603E-001	5.82157E-001	-3.64546E-002	-4.01344E-002	6.71107E-001	-4.37869E-002	-5.65811E-004	3.96846E-005	-4.86418E-003	-4.86045E-003	3.04361E-004	3.35084E-004	-5.60310E-003	3.65579E-004
	117	117	4.99357E-002	-8.25138E-003	0.00000E+000	-4.12039E-004	-8.08867E-002	4.06432E-002	3.49345E+001	11	...........	6.77633E-002	-4.88875E-003	5.82891E-001	5.80942E-001	-1.13773E-001	-4.77878E-002	6.72307E-001	-4.42644E-002	-5.59141E-004	4.03389E-005	-4.80966E-003	-4.79358E-003	9.38783E-004	3.94315E-004	-5.54746E-003	3.65243E-004
	118	118	4.99355E-002	-8.15155E-003	0.00000E+000	-4.07052E-004	-7.98887E-002	4.06810E-002	3.48707E+001	11	...........	6.78600E-002	-4.72833E-003	5.82526E-001	5.82222E-001	-2.22629E-002	-4.57019E-002	6.70229E-001	-4.36378E-002	-5.53164E-004	3.85432E-005	-4.74849E-003	-4.74601E-003	1.81477E-004	3.72542E-004	-5.46340E-003	3.55715E-004
	119	119	4.99356E-002	-8.05629E-003	0.00000E+000	-4.02296E-004	-7.89500E-002	4.06351E-002	3.48940E+001	11	...........	6.78004E-002	-4.76055E-003	5.82392E-001	5.82634E-001	-4.06514E-003	-4.60079E-002	6.70205E-001	-4.35693E-002	-5.46220E-004	3.83524E-005	-4.69192E-003	-4.69387E-003	3.27499E-005	3.70653E-004	-5.39936E-003	3.51007E-004
	120	120	4.99358E-002	-7.94744E-003	0.00000E+000	-3.96861E-004	-7.78673E-002	4.06577E-002	3.48611E+001	11	...........	6.78279E-002	-4.77194E-003	5.82505E-001	5.82402E-001	-9.46014E-003	-4.37553E-002	6.70585E-001	-4.37256E-002	-5.39058E-004	3.79247E-005	-4.62942E-003	-4.62861E-003	7.51838E-005	3.47742E-004	-5.32943E-003	3.47506E-004
	121	121	4.99359E-002	-7.84682E-003	0.00000E+000	-3.91838E-004	-7.68773E-002	4.06667E-002	3.48841E+001	11	...........	6.78462E-002	-4.83736E-003	5.82399E-001	5.82286E-001	-1.39699E-002	-4.19522E-002	6.70809E-001	-4.38174E-002	-5.32378E-004	3.79579E-005	-4.56998E-003	-4.56910E-003	1.09619E-004	3.29192E-004	-5.26372E-003	3.43827E-004
	122	122	4.99357E-002	-7.76558E-003	0.00000E+000	-3.87780E-004	-7.60907E-002	4.06689E-002	3.48832E+001	11	...........	6.78411E-002	-4.83722E-003	5.82356E-001	5.82266E-001	-1.74081E-002	-4.07290E-002	6.70881E-001	-4.37758E-002	-5.26826E-004	3.75638E-005	-4.52233E-003	-4.52163E-003	1.35184E-004	3.16285E-004	-5.20978E-003	3.39945E-004
	123	123	4.99359E-002	-7.66889E-003	0.00000E+000	-3.82953E-004	-7.51187E-002	4.06839E-002	3.48412E+001	11	...........	6.78643E-002	-4.81639E-003	5.82511E-001	5.82114E-001	-2.00811E-002	-3.98150E-002	6.70876E-001	-4.38751E-002	-5.20444E-004	3.69364E-005	-4.46721E-003	-4.46417E-003	1.54000E-004	3.05337E-004	-5.14487E-003	3.36474E-004
	124	124	4.99357E-002	-7.57433E-003	0.00000E+000	-3.78229E-004	-7.41793E-002	4.07636E-002	3.47717E+001	11	...........	6.79846E-002	-4.75292E-003	5.82452E-001	5.82082E-001	-2.21347E-002	-3.91750E-002	6.70806E-001	-4.38517E-002	-5.14938E-004	3.60002E-005	-4.41168E-003	-4.40888E-003	1.67656E-004	2.96724E-004	-5.08091E-003	3.32147E-004
	125	125	4.99357E-002	-7.48553E-003	0.00000E+000	-3.73796E-004	-7.32920E-002	4.06469E-002	3.47724E+001	11	...........	6.78103E-002	-4.65625E-003	5.82480E-001	5.82147E-001	-2.37340E-002	-3.86594E-002	6.70706E-001	-4.39112E-002	-5.07596E-004	3.48545E-005	-4.36017E-003	-4.35768E-003	1.77662E-004	2.89387E-004	-5.02060E-003	3.28699E-004
	126	126	4.99360E-002	-7.40118E-003	0.00000E+000	-3.69585E-004	-7.24533E-002	4.06976E-002	3.47628E+001	11	...........	6.78962E-002	-4.66861E-003	5.82552E-001	5.82202E-001	-2.48626E-002	-3.83164E-002	6.70752E-001	-4.38146E-002	-5.02512E-004	3.45532E-005	-4.31157E-003	-4.30898E-003	1.84013E-004	2.83586E-004	-4.96435E-003	3.24280E-004
	127	127	4.99358E-002	-7.31629E-003	0.00000E+000	-3.65345E-004	-7.16120E-002	4.07140E-002	3.47609E+001	11	...........	6.79017E-002	-4.71486E-003	5.82638E-001	5.82259E-001	-2.58719E-002	-3.80767E-002	6.70660E-001	-4.38244E-002	-4.96788E-004	3.44953E-005	-4.26275E-003	-4.25998E-003	1.89287E-004	2.78580E-004	-4.90674E-003	3.20632E-004
	128	128	4.99356E-002	-7.22598E-003	0.00000E+000	-3.60834E-004	-7.07087E-002	4.07178E-002	3.47170E+001	11	...........	6.79139E-002	-4.61889E-003	5.82844E-001	5.82163E-001	-2.66268E-002	-3.79282E-002	6.70817E-001	-4.38506E-002	-4.90744E-004	3.33760E-005	-4.21162E-003	-4.20670E-003	1.92405E-004	2.74068E-004	-4.84731E-003	3.16863E-004
	129	129	4.99359E-002	-7.12522E-003	0.00000E+000	-3.55804E-004	-6.97080E-002	4.07204E-002	3.47148E+001	11	...........	6.79300E-002	-4.67819E-003	5.82834E-001	5.82135E-001	-2.74082E-002	-3.78569E-002	6.70938E-001	-4.39443E-002	-4.84016E-004	3.33331E-005	-4.15282E-003	-4.14784E-003	1.95289E-004	2.69739E-004	-4.78058E-003	3.13113E-004
	130	130	4.99359E-002	-7.03744E-003	0.00000E+000	-3.51421E-004	-6.88393E-002	4.07257E-002	3.47254E+001	11	...........	6.79475E-002	-4.89486E-003	5.82768E-001	5.82217E-001	-2.77368E-002	-3.77667E-002	6.70964E-001	-4.38344E-002	-4.78176E-004	3.44473E-005	-4.10120E-003	-4.09732E-003	1.95196E-004	2.65781E-004	-4.72187E-003	3.08482E-004
	131	131	4.99357E-002	-6.95508E-003	0.00000E+000	-3.47307E-004	-6.80320E-002	4.07349E-002	3.47384E+001	11	...........	6.79451E-002	-4.85764E-003	5.83019E-001	5.82204E-001	-2.80811E-002	-3.77569E-002	6.70764E-001	-4.39956E-002	-4.72564E-004	3.37852E-005	-4.05494E-003	-4.04928E-003	1.95306E-004	2.62602E-004	-4.66522E-003	3.05992E-004
	132	132	4.99360E-002	-6.86738E-003	0.00000E+000	-3.42930E-004	-6.71373E-002	4.07437E-002	3.47628E+001	11	...........	6.79593E-002	-4.81444E-003	5.83254E-001	5.82332E-001	-2.83892E-002	-3.77567E-002	6.70797E-001	-4.40364E-002	-4.66702E-004	3.30626E-005	-4.00543E-003	-3.99910E-003	1.94959E-004	2.59289E-004	-4.60662E-003	3.02415E-004
	133	133	4.99359E-002	-6.79409E-003	0.00000E+000	-3.39269E-004	-6.64227E-002	4.07463E-002	3.47925E+001	11	...........	6.79690E-002	-4.76653E-003	5.83333E-001	5.82323E-001	-2.86889E-002	-3.77618E-002	6.70746E-001	-4.39449E-002	-4.61788E-004	3.23842E-005	-3.96322E-003	-3.95636E-003	1.94915E-004	2.56557E-004	-4.55711E-003	2.98565E-004
	134	134	4.99356E-002	-6.71125E-003	0.00000E+000	-3.35130E-004	-6.55913E-002	4.07539E-002	3.48124E+001	11	...........	6.79811E-002	-4.75347E-003	5.83257E-001	5.82473E-001	-2.88785E-002	-3.77529E-002	6.70758E-001	-4.39896E-002	-4.56238E-004	3.19017E-005	-3.91438E-003	-3.90912E-003	1.93811E-004	2.53369E-004	-4.50162E-003	2.95225E-004
	135	135	4.99363E-002	-6.64175E-003	0.00000E+000	-3.31664E-004	-6.49127E-002	4.07623E-002	3.48363E+001	11	...........	6.80007E-002	-4.70264E-003	5.83336E-001	5.82585E-001	-2.89885E-002	-3.77962E-002	6.70659E-001	-4.39121E-002	-4.51644E-004	3.12337E-005	-3.87437E-003	-3.86939E-003	1.92534E-004	2.51033E-004	-4.45435E-003	2.91653E-004
	136	136	4.99360E-002	-6.57104E-003	0.00000E+000	-3.28132E-004	-6.41840E-002	4.07643E-002	3.48474E+001	11	...........	6.80071E-002	-4.80361E-003	5.83308E-001	5.82628E-001	-2.90417E-002	-3.78494E-002	6.70723E-001	-4.37828E-002	-4.46877E-004	3.15647E-005	-3.83294E-003	-3.82847E-003	1.90834E-004	2.48710E-004	-4.40735E-003	2.87698E-004
	137	137	4.99358E-002	-6.49078E-003	0.00000E+000	-3.24123E-004	-6.33980E-002	4.07677E-002	3.48584E+001	11	...........	6.80076E-002	-4.85167E-003	5.83307E-001	5.82540E-001	-2.91464E-002	-3.79279E-002	6.70809E-001	-4.38901E-002	-4.41423E-004	3.14911E-005	-3.78612E-003	-3.78114E-003	1.89183E-004	2.46182E-004	-4.35407E-003	2.84881E-004
	138	138	4.99360E-002	-6.42744E-003	0.00000E+000	-3.20960E-004	-6.27540E-002	4.07728E-002	3.48688E+001	11	...........	6.80219E-002	-4.83806E-003	5.83455E-001	5.82472E-001	-2.92010E-002	-3.79612E-002	6.70807E-001	-4.39526E-002	-4.37207E-004	3.10963E-005	-3.75012E-003	-3.74380E-003	1.87687E-004	2.43994E-004	-4.31157E-003	2.82503E-004
	139	139	4.99361E-002	-6.35039E-003	0.00000E+000	-3.17114E-004	-6.19753E-002	4.07831E-002	3.48849E+001	11	...........	6.80324E-002	-4.82264E-003	5.83398E-001	5.82404E-001	-2.92364E-002	-3.80099E-002	6.70730E-001	-4.38943E-002	-4.32032E-004	3.06256E-005	-3.70480E-003	-3.69850E-003	1.85662E-004	2.41377E-004	-4.25940E-003	2.78746E-004
	140	140	4.99359E-002	-6.27652E-003	0.00000E+000	-3.13424E-004	-6.12407E-002	4.07928E-002	3.48973E+001	11	...........	6.80478E-002	-4.75625E-003	5.83183E-001	5.82463E-001	-2.92808E-002	-3.80447E-002	6.70679E-001	-4.39094E-002	-4.27104E-004	2.98527E-005	-3.66036E-003	-3.65584E-003	1.83782E-004	2.38789E-004	-4.20954E-003	2.75599E-004
	141	141	4.99361E-002	-6.21172E-003	0.00000E+000	-3.10189E-004	-6.05907E-002	4.07934E-002	3.49184E+001	11	...........	6.80512E-002	-4.86361E-003	5.83138E-001	5.82395E-001	-2.92451E-002	-3.80789E-002	6.70697E-001	-4.39693E-002	-4.22715E-004	3.02114E-005	-3.62229E-003	-3.61767E-003	1.81663E-004	2.36535E-004	-4.16618E-003	2.73125E-004
	142	142	4.99360E-002	-6.13734E-003	0.00000E+000	-3.06474E-004	-5.98560E-002	4.08019E-002	3.49346E+001	11	...........	6.80603E-002	-4.84264E-003	5.83099E-001	5.82406E-001	-2.92947E-002	-3.81539E-002	6.70805E-001	-4.39731E-002	-4.17709E-004	2.97209E-005	-3.57868E-003	-3.57442E-003	1.79792E-004	2.34163E-004	-4.11696E-003	2.69878E-004
	143	143	4.99359E-002	-6.07042E-003	0.00000E+000	-3.03132E-004	-5.91860E-002	4.07976E-002	3.49420E+001	11	...........	6.80629E-002	-4.80736E-003	5.83096E-001	5.82407E-001	-2.93011E-002	-3.82675E-002	6.70844E-001	-4.39221E-002	-4.13170E-004	2.91827E-005	-3.53964E-003	-3.53546E-003	1.77870E-004	2.32300E-004	-4.07230E-003	2.66625E-004
	144	144	4.99362E-002	-6.00446E-003	0.00000E+000	-2.99840E-004	-5.85353E-002	4.10253E-002	3.48429E+001	11	...........	6.84417E-002	-4.69861E-003	5.83018E-001	5.82295E-001	-2.92962E-002	-3.83139E-002	6.70926E-001	-4.38643E-002	-4.10955E-004	2.82126E-005	-3.50071E-003	-3.49637E-003	1.75908E-004	2.30054E-004	-4.02855E-003	2.63382E-004
	145	145	4.99362E-002	-5.93777E-003	0.00000E+000	-2.96509E-004	-5.78667E-002	4.07270E-002	3.48454E+001	11	...........	6.79378E-002	-4.75278E-003	5.83042E-001	5.82229E-001	-2.92457E-002	-3.83554E-002	6.70976E-001	-4.38218E-002	-4.03399E-004	2.82209E-005	-3.46197E-003	-3.45714E-003	1.73654E-004	2.27746E-004	-3.98410E-003	2.60204E-004
	146	146	4.99362E-002	-5.88137E-003	0.00000E+000	-2.93693E-004	-5.73013E-002	4.08253E-002	3.49142E+001	11	...........	6.80986E-002	-4.71903E-003	5.83152E-001	5.82337E-001	-2.92515E-002	-3.83850E-002	6.70844E-001	-4.37385E-002	-4.00513E-004	2.77543E-005	-3.42973E-003	-3.42494E-003	1.72039E-004	2.25756E-004	-3.94548E-003	2.57242E-004
	147	147	4.99367E-002	-5.85742E-003	0.00000E+000	-2.92500E-004	-5.70693E-002	4.08229E-002	3.49336E+001	11	...........	6.80994E-002	-4.63097E-003	5.83206E-001	5.82277E-001	-2.92344E-002	-3.84290E-002	6.70907E-001	-4.37864E-002	-3.98887E-004	2.71255E-005	-3.41608E-003	-3.41064E-003	1.71238E-004	2.25095E-004	-3.92978E-003	2.56475E-004
	148	148	4.99360E-002	-5.79168E-003	0.00000E+000	-2.89213E-004	-5.64180E-002	4.06349E-002	3.49645E+001	11	...........	6.81129E-002	-4.63972E-003	5.83119E-001	5.82368E-001	-2.91940E-002	-3.84522E-002	6.70954E-001	-4.40406E-002	-3.94488E-004	2.68718E-005	-3.37724E-003	-3.37289E-003	1.69082E-004	2.22703E-004	-3.88595E-003	2.55069E-004
	149	149	4.99358E-002	-5.71440E-003	0.00000E+000	-2.85353E-004	-5.56540E-002	4.08559E-002	3.50113E+001	11	...........	6.81218E-002	-4.78042E-003	5.83306E-001	5.82090E-001	-2.91333E-002	-3.85050E-002	6.70989E-001	-4.41101E-002	-3.89275E-004	2.73172E-005	-3.33324E-003	-3.32629E-003	1.66479E-004	2.20033E-004	-3.83430E-003	2.52063E-004
	150	150	4.99362E-002	-5.65263E-003	0.00000E+000	-2.82270E-004	-5.50413E-002	4.08515E-002	3.50326E+001	11	...........	6.81292E-002	-4.78111E-003	5.83150E-001	5.82061E-001	-2.91461E-002	-3.85529E-002	6.70979E-001	-4.39565E-002	-3.85109E-004	2.70258E-005	-3.29633E-003	-3.29017E-003	1.64752E-004	2.17925E-004	-3.79280E-003	2.48470E-004
	151	151	4.99363E-002	-5.60257E-003	0.00000E+000	-2.79772E-004	-5.45413E-002	4.08509E-002	3.50786E+001	11	...........	6.81340E-002	-4.75194E-003	5.83059E-001	5.81907E-001	-2.91379E-002	-3.85965E-002	6.70984E-001	-4.38210E-002	-3.81726E-004	2.66231E-005	-3.26663E-003	-3.26018E-003	1.63247E-004	2.16240E-004	-3.75923E-003	2.45510E-004
	152	152	4.99360E-002	-5.53156E-003	0.00000E+000	-2.76224E-004	-5.38393E-002	4.09615E-002	3.50369E+001	11	...........	6.83394E-002	-4.65028E-003	5.83135E-001	5.81876E-001	-2.91183E-002	-3.86569E-002	6.70960E-001	-4.37515E-002	-3.78024E-004	2.57233E-005	-3.22565E-003	-3.21869E-003	1.61070E-004	2.13833E-004	-3.71146E-003	2.42014E-004
	153	153	4.99360E-002	-5.45956E-003	0.00000E+000	-2.72628E-004	-5.31200E-002	4.08936E-002	3.49382E+001	11	...........	6.81944E-002	-4.78458E-003	5.83191E-001	5.81854E-001	-2.90533E-002	-3.86631E-002	6.71014E-001	-4.37732E-002	-3.72312E-004	2.61217E-005	-3.18397E-003	-3.17667E-003	1.58618E-004	2.11083E-004	-3.66344E-003	2.38982E-004
	154	154	4.99364E-002	-5.39260E-003	0.00000E+000	-2.69287E-004	-5.24573E-002	4.08874E-002	3.50339E+001	11	...........	6.82007E-002	-4.76125E-003	5.83303E-001	5.81907E-001	-2.90753E-002	-3.86829E-002	6.71069E-001	-4.37708E-002	-3.67779E-004	2.56755E-005	-3.14552E-003	-3.13799E-003	1.56791E-004	2.08602E-004	-3.61881E-003	2.36039E-004
	155	155	4.99359E-002	-5.34047E-003	0.00000E+000	-2.66681E-004	-5.19427E-002	4.08900E-002	3.50878E+001	11	...........	6.81935E-002	-4.72069E-003	5.83414E-001	5.81945E-001	-2.90293E-002	-3.87271E-002	6.71026E-001	-4.37351E-002	-3.64185E-004	2.52107E-005	-3.11571E-003	-3.10786E-003	1.55030E-004	2.06821E-004	-3.58359E-003	2.33566E-004
	156	156	4.99362E-002	-5.27895E-003	0.00000E+000	-2.63611E-004	-5.13380E-002	4.08934E-002	3.51377E+001	11	...........	6.82128E-002	-4.75347E-003	5.83460E-001	5.81997E-001	-2.90144E-002	-3.87661E-002	6.70952E-001	-4.39278E-002	-3.60092E-004	2.50933E-005	-3.08006E-003	-3.07233E-003	1.53166E-004	2.04644E-004	-3.54192E-003	2.31893E-004
	157	157	4.99366E-002	-5.22430E-003	0.00000E+000	-2.60884E-004	-5.08067E-002	4.08987E-002	3.51771E+001	11	...........	6.82056E-002	-4.64611E-003	5.83346E-001	5.82188E-001	-2.90274E-002	-3.87799E-002	6.71003E-001	-4.38867E-002	-3.56326E-004	2.42727E-005	-3.04757E-003	-3.04152E-003	1.51648E-004	2.02598E-004	-3.50552E-003	2.29277E-004
	158	158	4.99360E-002	-5.18176E-003	0.00000E+000	-2.58756E-004	-5.03887E-002	4.09033E-002	3.51951E+001	11	...........	6.82254E-002	-4.69097E-003	5.83462E-001	5.82315E-001	-2.90232E-002	-3.88264E-002	6.71119E-001	-4.37947E-002	-3.53528E-004	2.43075E-005	-3.02336E-003	-3.01742E-003	1.50391E-004	2.01189E-004	-3.47758E-003	2.26934E-004
	159	158.745	4.99349E-002	-5.13243E-003	0.00000E+000	-2.56287E-004	-4.98922E-002	4.09092E-002	3.39987E+001	11	...........	6.82215E-002	-4.69668E-003	5.83475E-001	5.82097E-001	-2.90585E-002	-3.88702E-002	6.71078E-001	-4.37649E-002	-3.50142E-004	2.41054E-005	-2.99464E-003	-2.98757E-003	1.49141E-004	1.99499E-004	-3.44426E-003	2.24620E-004
STARTTIMEOFFSET	QUANT	532284.3	Start Time Offset (s)
