EXPLAIN
TAG	PWR800_DISCHARGE
TITLE	LABEL	PWR Discharge	Test Identifier
DATE	LABEL	10/12/2022	Date
TIME	LABEL	22:56:55	Time
NOTES	NOTES	1	Notes...
	
PSTAT	PSTAT	REF3000-21114	Potentiostat
CAPACITY	QUANT	5.30000E-002	Capacity (A-hr)
CELLTYPE	SELECTOR	1	Cell Type
WORKINGCONNECTION	SELECTOR	0	Working Connection
MAXDISCHARGETIME	VARIABLEANDUNITS	7.20000E+003	s	2.00000E+000	hour(s)	Max Discharge Time
DISCHARGEMODE	MULTIPARAM	0	1.00000E-001	Discharge Mode	Constant Current	Amp(s)
VOLTAGEFINISH	TWOPARAM	T	5.00000E-003	7.20000E+003	Voltage Finish	I (A) <	Max Time(s)
SAMPLETIME	QUANT	1.00000E+000	Sample Period (s)
DISCHARGESTOPAT1	MULTIPARAM	1	5.00000E-002	Stop At 1	|Voltage| < Limit	V
DISCHARGESTOPAT2	MULTIPARAM	0	0.00000E+000	Stop At 2	None	N/A
AESELECTOR	AESELECTOR	0x1	T	Set Limits	AE Channels
AESBHCSELECTOR	TOGGLE	F	Save Both Half Cells
IRCOMP	TOGGLE	F	IR Measure
EOC	QUANT	0.5586967	Open Circuit (V)
SEQUENCER	TOGGLE	TRUE	Run as Sequence
PSTATMODEL	IQUANT	5	Pstat Model
PSTATSECTION	LABEL	REF3000-21114	Pstat Section
PSTATSERIALNO	LABEL	21114	Pstat Serial Number
CTRLMODE	IQUANT	0	Control Mode
ELECTROMETER	IQUANT	0	RE=0 or CS=1
IESTAB	IQUANT	0	I/E Stability
CASPEED	IQUANT	4	Control Amp Speed
CONVENTION	IQUANT	1	Current Convention
ICHRANGE	IQUANT	2	Ich Range
ICHRANGEMODE	TOGGLE	T	Ich Auto Range
ICHOFFSETENABLE	TOGGLE	F	Ich Offset Enable
ICHOFFSET	QUANT	0	Ich Offset (V)
ICHFILTER	IQUANT	1	Ich Filter
VCHRANGE	IQUANT	3	Vch Range
VCHRANGEMODE	TOGGLE	T	Vch Auto Range
VCHOFFSETENABLE	TOGGLE	F	Vch Offset Enable
VCHOFFSET	QUANT	0	Vch Offset (V)
VCHFILTER	IQUANT	1	Vch Filter
ACHRANGE	IQUANT	2	Ach Range
ACHOFFSETENABLE	TOGGLE	F	Ach Offset Enable
ACHOFFSET	QUANT	0	Ach Offset (V)
ACHFILTER	IQUANT	1	Ach Filter
IERANGELOWERLIMIT	IQUANT	9	I/E Range Lower Limit
IERANGEMODE	TOGGLE	F	I/E AutoRange
IERANGE	IQUANT	9	I/E Range
POSFEEDENABLE	TOGGLE	F	Positive Feedback IR Comp
POSFEEDRESISTANCE	QUANT	0	Positive Feedback Resistance (ohm)
ACHSELECT	IQUANT	1	Ach Select
SENSECABLEID	IQUANT	13	Sense Cable ID
PWRCABLEID	IQUANT	13	Power Cable ID
DCCALDATE	LABEL		DC Calibration Date
ACCALDATE	LABEL		AC Calibration Date
THERMOSELECT	IQUANT	1	Thermo Select
FRAMEWORKVERSION	LABEL	7.8.6	Framework Version
INSTRUMENTVERSION	LABEL	4.50	Instrument Version
COMPLIANCEVOLTAGE	IQUANT	0	Compliance Voltage
CURVE	TABLE	154
	Pt	T	Vf	Im	Vu	Pwr	Sig	Ach	Temp	IERange	Over	Vf1	Vf2	Vf3	Vf4	Vf5	Vf6	Vf7	Vf8	Pwr1	Pwr2	Pwr3	Pwr4	Pwr5	Pwr6	Pwr7	Pwr8
	#	s	V	A	V	W	V	V	deg C	#	bits	V	V	V	V	V	V	V	V	W	W	W	W	W	W	W	W
	0	1	3.30953E-001	-1.00082E-001	0.00000E+000	-3.31226E-002	-9.94000E-001	3.82257E-002	3.00888E+001	11	...........	6.35203E-002	-4.29417E-003	5.73391E-001	6.10678E-001	-2.85582E-002	-3.39318E-002	6.63852E-001	-4.35847E-002	-6.35727E-003	4.29771E-004	-5.73864E-002	-6.11182E-002	2.85817E-003	3.39598E-003	-6.64399E-002	4.36207E-003
	1	2	2.41029E-001	-1.00083E-001	0.00000E+000	-2.41228E-002	-9.94000E-001	3.82634E-002	2.93593E+001	11	...........	6.35824E-002	-4.29847E-003	5.73410E-001	6.10780E-001	-2.91487E-002	-3.41431E-002	6.63892E-001	-4.34887E-002	-6.36349E-003	4.30202E-004	-5.73884E-002	-6.11285E-002	2.91728E-003	3.41712E-003	-6.64440E-002	4.35247E-003
	2	3	1.65635E-001	-1.00083E-001	0.00000E+000	-1.65772E-002	-9.94000E-001	3.81948E-002	2.86568E+001	11	...........	6.34932E-002	-4.32111E-003	5.73559E-001	6.10767E-001	-2.95679E-002	-3.43700E-002	6.63932E-001	-4.35925E-002	-6.35459E-003	4.32470E-004	-5.74035E-002	-6.11274E-002	2.95925E-003	3.43985E-003	-6.64483E-002	4.36287E-003
	3	4	9.88935E-002	-1.00083E-001	0.00000E+000	-9.89754E-003	-9.94000E-001	3.81584E-002	2.80629E+001	11	...........	6.34317E-002	-4.34736E-003	5.73657E-001	6.10602E-001	-2.99242E-002	-3.45994E-002	6.63876E-001	-4.36912E-002	-6.34842E-003	4.35096E-004	-5.74132E-002	-6.11107E-002	2.99489E-003	3.46281E-003	-6.64426E-002	4.37274E-003
	4	4.32667	5.90679E-002	-1.00083E-001	0.00000E+000	-5.91171E-003	-9.94000E-001	3.81390E-002	2.77506E+001	11	...........	6.34043E-002	-4.37713E-003	5.73642E-001	6.10480E-001	-3.00778E-002	-3.47602E-002	6.63838E-001	-4.37436E-002	-6.34572E-003	4.38077E-004	-5.74120E-002	-6.10988E-002	3.01029E-003	3.47892E-003	-6.64392E-002	4.37801E-003
	5	5	4.94911E-002	-8.63656E-002	0.00000E+000	-4.27432E-003	-8.57605E-001	3.82812E-002	2.83029E+001	11	...........	6.36002E-002	-4.36242E-003	5.73578E-001	6.10433E-001	-3.02754E-002	-3.48649E-002	6.63917E-001	-4.37321E-002	-5.49287E-003	3.76763E-004	-4.95374E-002	-5.27204E-002	2.61475E-003	3.01113E-003	-5.73396E-002	3.77694E-003
	6	6	4.97148E-002	-6.60036E-002	0.00000E+000	-3.28135E-003	-6.55165E-001	3.83600E-002	2.92773E+001	11	...........	6.37367E-002	-4.35667E-003	5.73899E-001	6.10404E-001	-3.03974E-002	-3.50733E-002	6.63981E-001	-4.35500E-002	-4.20685E-003	2.87556E-004	-3.78794E-002	-4.02889E-002	2.00633E-003	2.31497E-003	-4.38251E-002	2.87446E-003
	7	7	4.98149E-002	-5.31045E-002	0.00000E+000	-2.64539E-003	-5.26915E-001	3.84367E-002	2.99968E+001	11	...........	6.38594E-002	-4.40250E-003	5.74028E-001	6.10375E-001	-3.05190E-002	-3.53197E-002	6.63921E-001	-4.34107E-002	-3.39122E-003	2.33792E-004	-3.04835E-002	-3.24136E-002	1.62070E-003	1.87564E-003	-3.52572E-002	2.30530E-003
	8	8	4.98604E-002	-4.56627E-002	0.00000E+000	-2.27676E-003	-4.52929E-001	3.85346E-002	3.04112E+001	11	...........	6.40054E-002	-4.48833E-003	5.73930E-001	6.10451E-001	-3.06336E-002	-3.55650E-002	6.63867E-001	-4.34042E-002	-2.92266E-003	2.04949E-004	-2.62072E-002	-2.78748E-002	1.39881E-003	1.62399E-003	-3.03140E-002	1.98195E-003
	9	9	4.98839E-002	-4.08892E-002	0.00000E+000	-2.03971E-003	-4.05473E-001	3.85584E-002	3.07675E+001	11	...........	6.40640E-002	-4.40611E-003	5.74051E-001	6.10421E-001	-3.06789E-002	-3.57987E-002	6.63821E-001	-4.34324E-002	-2.61952E-003	1.80162E-004	-2.34725E-002	-2.49596E-002	1.25443E-003	1.46378E-003	-2.71431E-002	1.77591E-003
	10	10	4.98996E-002	-3.76678E-002	0.00000E+000	-1.87961E-003	-3.73445E-001	3.86135E-002	3.10138E+001	11	...........	6.41636E-002	-4.43667E-003	5.74213E-001	6.10469E-001	-3.06849E-002	-3.60526E-002	6.63768E-001	-4.34681E-002	-2.41690E-003	1.67120E-004	-2.16294E-002	-2.29950E-002	1.15583E-003	1.35802E-003	-2.50027E-002	1.63735E-003
	11	11	4.99086E-002	-3.53568E-002	0.00000E+000	-1.76461E-003	-3.50455E-001	3.86623E-002	3.12122E+001	11	...........	6.42449E-002	-4.45750E-003	5.74311E-001	6.10374E-001	-3.06764E-002	-3.62768E-002	6.63841E-001	-4.35932E-002	-2.27149E-003	1.57603E-004	-2.03058E-002	-2.15809E-002	1.08462E-003	1.28263E-003	-2.34713E-002	1.54132E-003
	12	12	4.99128E-002	-3.36057E-002	0.00000E+000	-1.67735E-003	-3.33048E-001	3.87034E-002	3.13749E+001	11	...........	6.43139E-002	-4.35264E-003	5.74260E-001	6.10305E-001	-3.06464E-002	-3.64818E-002	6.63864E-001	-4.35414E-002	-2.16131E-003	1.46273E-004	-1.92984E-002	-2.05097E-002	1.02989E-003	1.22600E-003	-2.23096E-002	1.46324E-003
	13	13	4.99174E-002	-3.22208E-002	0.00000E+000	-1.60838E-003	-3.19271E-001	3.87628E-002	3.15180E+001	11	...........	6.43887E-002	-4.42042E-003	5.74252E-001	6.10210E-001	-3.05768E-002	-3.66664E-002	6.63847E-001	-4.34817E-002	-2.07466E-003	1.42430E-004	-1.85029E-002	-1.96615E-002	9.85210E-004	1.18142E-003	-2.13897E-002	1.40102E-003
	14	14	4.99199E-002	-3.11067E-002	0.00000E+000	-1.55284E-003	-3.08209E-001	3.87965E-002	3.16389E+001	11	...........	6.44828E-002	-4.38806E-003	5.74225E-001	6.10142E-001	-3.05321E-002	-3.68674E-002	6.63827E-001	-4.34344E-002	-2.00584E-003	1.36498E-004	-1.78622E-002	-1.89795E-002	9.49752E-004	1.14682E-003	-2.06495E-002	1.35110E-003
	15	15	4.99209E-002	-3.01333E-002	0.00000E+000	-1.50428E-003	-2.98543E-001	3.88369E-002	3.17420E+001	11	...........	6.45493E-002	-4.54347E-003	5.74353E-001	6.10055E-001	-3.04957E-002	-3.70565E-002	6.63787E-001	-4.34757E-002	-1.94509E-003	1.36910E-004	-1.73072E-002	-1.83830E-002	9.18937E-004	1.11664E-003	-2.00021E-002	1.31007E-003
	16	16	4.99230E-002	-2.93105E-002	0.00000E+000	-1.46327E-003	-2.90367E-001	3.88767E-002	3.18412E+001	11	...........	6.46029E-002	-4.54083E-003	5.74693E-001	6.10042E-001	-3.03837E-002	-3.72307E-002	6.63795E-001	-4.34668E-002	-1.89354E-003	1.33094E-004	-1.68445E-002	-1.78807E-002	8.90563E-004	1.09125E-003	-1.94562E-002	1.27403E-003
	17	17	4.99251E-002	-2.86186E-002	0.00000E+000	-1.42879E-003	-2.83484E-001	3.89166E-002	3.19195E+001	11	...........	6.46565E-002	-4.53889E-003	5.74841E-001	6.10237E-001	-3.03493E-002	-3.73418E-002	6.63879E-001	-4.34821E-002	-1.85038E-003	1.29897E-004	-1.64511E-002	-1.74641E-002	8.68554E-004	1.06867E-003	-1.89993E-002	1.24440E-003
	18	18	4.99242E-002	-2.79998E-002	0.00000E+000	-1.39787E-003	-2.77337E-001	3.89597E-002	3.19929E+001	11	...........	6.47249E-002	-4.49208E-003	5.74834E-001	6.10105E-001	-3.03104E-002	-3.74936E-002	6.63913E-001	-4.35029E-002	-1.81229E-003	1.25778E-004	-1.60953E-002	-1.70829E-002	8.48687E-004	1.04982E-003	-1.85895E-002	1.21807E-003
	19	19	4.99257E-002	-2.73781E-002	0.00000E+000	-1.36687E-003	-2.71140E-001	3.89901E-002	3.20696E+001	11	...........	6.47786E-002	-4.38875E-003	5.74857E-001	6.09900E-001	-3.02494E-002	-3.76282E-002	6.63864E-001	-4.36118E-002	-1.77352E-003	1.20156E-004	-1.57385E-002	-1.66979E-002	8.28172E-004	1.03019E-003	-1.81753E-002	1.19401E-003
	20	20	4.99270E-002	-2.68473E-002	0.00000E+000	-1.34041E-003	-2.65869E-001	3.89237E-002	3.21417E+001	11	...........	6.48390E-002	-4.31847E-003	5.75029E-001	6.09753E-001	-3.02075E-002	-3.77531E-002	6.63899E-001	-4.35164E-002	-1.74075E-003	1.15939E-004	-1.54380E-002	-1.63702E-002	8.10990E-004	1.01357E-003	-1.78239E-002	1.16830E-003
	21	21	4.99254E-002	-2.63461E-002	0.00000E+000	-1.31534E-003	-2.60875E-001	3.88977E-002	3.22067E+001	11	...........	6.48890E-002	-4.28111E-003	5.75082E-001	6.09849E-001	-3.01560E-002	-3.78437E-002	6.63880E-001	-4.36292E-002	-1.70958E-003	1.12791E-004	-1.51512E-002	-1.60672E-002	7.94494E-004	9.97037E-004	-1.74907E-002	1.14946E-003
	22	22	4.99271E-002	-2.58692E-002	0.00000E+000	-1.29158E-003	-2.56136E-001	3.89335E-002	3.22671E+001	11	...........	6.49543E-002	-4.37569E-003	5.75042E-001	6.09894E-001	-3.01003E-002	-3.79524E-002	6.63797E-001	-4.36422E-002	-1.68032E-003	1.13196E-004	-1.48759E-002	-1.57775E-002	7.78671E-004	9.81799E-004	-1.71719E-002	1.12899E-003
	23	23	4.99277E-002	-2.54197E-002	0.00000E+000	-1.26915E-003	-2.51667E-001	3.90842E-002	3.22538E+001	11	...........	6.52158E-002	-4.35847E-003	5.75204E-001	6.09746E-001	-3.00372E-002	-3.80207E-002	6.63785E-001	-4.35965E-002	-1.65777E-003	1.10791E-004	-1.46215E-002	-1.54995E-002	7.63537E-004	9.66474E-004	-1.68732E-002	1.10821E-003
	24	24	4.99258E-002	-2.49855E-002	0.00000E+000	-1.24742E-003	-2.47344E-001	3.89141E-002	3.23651E+001	11	...........	6.49158E-002	-4.36736E-003	5.75193E-001	6.09759E-001	-2.99482E-002	-3.81204E-002	6.63764E-001	-4.34375E-002	-1.62196E-003	1.09121E-004	-1.43715E-002	-1.52352E-002	7.48271E-004	9.52458E-004	-1.65845E-002	1.08531E-003
	25	25	4.99286E-002	-2.45809E-002	0.00000E+000	-1.22729E-003	-2.43321E-001	3.90261E-002	3.24109E+001	11	...........	6.51101E-002	-4.42500E-003	5.75117E-001	6.09750E-001	-2.98874E-002	-3.82262E-002	6.63675E-001	-4.34432E-002	-1.60047E-003	1.08771E-004	-1.41369E-002	-1.49882E-002	7.34659E-004	9.39637E-004	-1.63138E-002	1.06787E-003
	26	26	4.99295E-002	-2.42571E-002	0.00000E+000	-1.21114E-003	-2.40105E-001	3.90514E-002	3.24558E+001	11	...........	6.51511E-002	-4.42583E-003	5.75226E-001	6.09640E-001	-2.98429E-002	-3.83058E-002	6.63755E-001	-4.35397E-002	-1.58037E-003	1.07358E-004	-1.39533E-002	-1.47881E-002	7.23902E-004	9.29187E-004	-1.61008E-002	1.05615E-003
	27	27	4.99226E-002	-2.37945E-002	0.00000E+000	-1.18788E-003	-2.35503E-001	3.90320E-002	3.18753E+001	11	...........	6.51228E-002	-4.42875E-003	5.75375E-001	6.09563E-001	-2.98174E-002	-3.83900E-002	6.63837E-001	-4.36432E-002	-1.54956E-003	1.05380E-004	-1.36908E-002	-1.45043E-002	7.09490E-004	9.13471E-004	-1.57957E-002	1.03847E-003
	28	28	4.99363E-002	-2.36922E-002	0.00000E+000	-1.18310E-003	-2.34485E-001	3.91166E-002	3.24025E+001	11	...........	6.52585E-002	-4.44042E-003	5.75194E-001	6.09433E-001	-2.97654E-002	-3.84525E-002	6.63755E-001	-4.37179E-002	-1.54612E-003	1.05203E-004	-1.36276E-002	-1.44388E-002	7.05209E-004	9.11025E-004	-1.57258E-002	1.03577E-003
	29	29	4.99297E-002	-2.35662E-002	0.00000E+000	-1.17665E-003	-2.33229E-001	3.91187E-002	3.25758E+001	11	...........	6.52769E-002	-4.45361E-003	5.75119E-001	6.09347E-001	-2.97392E-002	-3.85361E-002	6.63820E-001	-4.36575E-002	-1.53833E-003	1.04955E-004	-1.35533E-002	-1.43600E-002	7.00838E-004	9.08148E-004	-1.56437E-002	1.02884E-003
	30	30	4.99283E-002	-2.32757E-002	0.00000E+000	-1.16211E-003	-2.30349E-001	3.91318E-002	3.26216E+001	11	...........	6.52868E-002	-4.35000E-003	5.75178E-001	6.09277E-001	-2.96887E-002	-3.85767E-002	6.63821E-001	-4.35743E-002	-1.51959E-003	1.01249E-004	-1.33876E-002	-1.41813E-002	6.91025E-004	8.97897E-004	-1.54509E-002	1.01422E-003
	31	31	4.99285E-002	-2.29264E-002	0.00000E+000	-1.14468E-003	-2.26871E-001	3.91563E-002	3.26796E+001	11	...........	6.53260E-002	-4.36083E-003	5.75286E-001	6.09214E-001	-2.96264E-002	-3.86628E-002	6.63812E-001	-4.35279E-002	-1.49769E-003	9.99781E-005	-1.31892E-002	-1.39671E-002	6.79226E-004	8.86397E-004	-1.52188E-002	9.97937E-004
	32	32	4.99292E-002	-2.26428E-002	0.00000E+000	-1.13054E-003	-2.24045E-001	3.91818E-002	3.27282E+001	11	...........	6.53693E-002	-4.38069E-003	5.75198E-001	6.09077E-001	-2.96049E-002	-3.87426E-002	6.63781E-001	-4.35753E-002	-1.48014E-003	9.91911E-005	-1.30241E-002	-1.37912E-002	6.70337E-004	8.77241E-004	-1.50299E-002	9.86666E-004
	33	33	4.99286E-002	-2.23596E-002	0.00000E+000	-1.11638E-003	-2.21231E-001	3.92033E-002	3.27885E+001	11	...........	6.54067E-002	-4.47028E-003	5.75066E-001	6.08914E-001	-2.95975E-002	-3.87444E-002	6.63771E-001	-4.35685E-002	-1.46247E-003	9.99537E-005	-1.28583E-002	-1.36151E-002	6.61789E-004	8.66311E-004	-1.48417E-002	9.74174E-004
	34	34	4.99295E-002	-2.20638E-002	0.00000E+000	-1.10164E-003	-2.18285E-001	3.92278E-002	3.28362E+001	11	...........	6.54529E-002	-4.44139E-003	5.75139E-001	6.08940E-001	-2.95781E-002	-3.87964E-002	6.63906E-001	-4.37237E-002	-1.44414E-003	9.79941E-005	-1.26898E-002	-1.34355E-002	6.52605E-004	8.55997E-004	-1.46483E-002	9.64714E-004
	35	35	4.99292E-002	-2.18058E-002	0.00000E+000	-1.08875E-003	-2.15737E-001	3.92749E-002	3.28156E+001	11	...........	6.55414E-002	-4.41639E-003	5.75130E-001	6.09093E-001	-2.95428E-002	-3.88392E-002	6.63894E-001	-4.37686E-002	-1.42918E-003	9.63030E-005	-1.25412E-002	-1.32818E-002	6.44205E-004	8.46920E-004	-1.44768E-002	9.54411E-004
	36	36	4.99279E-002	-2.14968E-002	0.00000E+000	-1.07329E-003	-2.12657E-001	3.93910E-002	3.28382E+001	11	...........	6.57040E-002	-4.49681E-003	5.75263E-001	6.09242E-001	-2.95024E-002	-3.88871E-002	6.63799E-001	-4.37489E-002	-1.41243E-003	9.66670E-005	-1.23663E-002	-1.30968E-002	6.34207E-004	8.35949E-004	-1.42696E-002	9.40462E-004
	37	37	4.99275E-002	-2.11235E-002	0.00000E+000	-1.05464E-003	-2.08937E-001	3.92402E-002	3.29230E+001	11	...........	6.54581E-002	-4.44972E-003	5.75312E-001	6.09221E-001	-2.94624E-002	-3.89344E-002	6.63765E-001	-4.37569E-002	-1.38270E-003	9.39935E-005	-1.21526E-002	-1.28689E-002	6.22347E-004	8.22430E-004	-1.40210E-002	9.24298E-004
	38	38	4.99295E-002	-2.07962E-002	0.00000E+000	-1.03834E-003	-2.05684E-001	3.93367E-002	3.29445E+001	11	...........	6.56275E-002	-4.35931E-003	5.75425E-001	6.09182E-001	-2.94767E-002	-3.89611E-002	6.63783E-001	-4.36506E-002	-1.36480E-003	9.06569E-005	-1.19666E-002	-1.26687E-002	6.13002E-004	8.10243E-004	-1.38041E-002	9.07765E-004
	39	39	4.99284E-002	-2.05077E-002	0.00000E+000	-1.02392E-003	-2.02834E-001	3.93477E-002	3.29888E+001	11	...........	6.56443E-002	-4.29181E-003	5.75289E-001	6.09184E-001	-2.94514E-002	-3.89983E-002	6.63927E-001	-4.36496E-002	-1.34621E-003	8.80149E-005	-1.17978E-002	-1.24929E-002	6.03979E-004	7.99765E-004	-1.36156E-002	8.95151E-004
	40	40	4.99283E-002	-2.01920E-002	0.00000E+000	-1.00815E-003	-1.99689E-001	3.93719E-002	3.30288E+001	11	...........	6.56865E-002	-4.40181E-003	5.75202E-001	6.09168E-001	-2.94272E-002	-3.90035E-002	6.63913E-001	-4.37351E-002	-1.32635E-003	8.88815E-005	-1.16145E-002	-1.23003E-002	5.94196E-004	7.87560E-004	-1.34058E-002	8.83102E-004
	41	41	4.99295E-002	-1.98798E-002	0.00000E+000	-9.92587E-004	-1.96579E-001	3.94011E-002	3.30560E+001	11	...........	6.57412E-002	-4.35944E-003	5.75330E-001	6.09254E-001	-2.94225E-002	-3.90158E-002	6.63979E-001	-4.38376E-002	-1.30692E-003	8.66647E-005	-1.14374E-002	-1.21118E-002	5.84912E-004	7.75625E-004	-1.31997E-002	8.71481E-004
	42	42	4.99276E-002	-1.95788E-002	0.00000E+000	-9.77526E-004	-1.93586E-001	3.95483E-002	3.29090E+001	11	...........	6.59815E-002	-4.37069E-003	5.75316E-001	6.09149E-001	-2.93787E-002	-3.90562E-002	6.64006E-001	-4.37937E-002	-1.29184E-003	8.55732E-005	-1.12640E-002	-1.19264E-002	5.75202E-004	7.64676E-004	-1.30005E-002	8.57431E-004
	43	43	4.99304E-002	-1.92287E-002	0.00000E+000	-9.60099E-004	-1.90115E-001	3.94437E-002	3.29792E+001	11	...........	6.58072E-002	-4.37181E-003	5.75053E-001	6.09187E-001	-2.93806E-002	-3.90668E-002	6.63904E-001	-4.37322E-002	-1.26539E-003	8.40643E-005	-1.10575E-002	-1.17139E-002	5.64951E-004	7.51206E-004	-1.27660E-002	8.40916E-004
	44	44	4.99254E-002	-1.89101E-002	0.00000E+000	-9.44093E-004	-1.86942E-001	3.93728E-002	3.25487E+001	11	...........	6.56811E-002	-4.48194E-003	5.75003E-001	6.09310E-001	-2.94078E-002	-3.90835E-002	6.63863E-001	-4.37639E-002	-1.24203E-003	8.47539E-005	-1.08733E-002	-1.15221E-002	5.56103E-004	7.39071E-004	-1.25537E-002	8.27578E-004
	45	45	4.99322E-002	-1.86956E-002	0.00000E+000	-9.33514E-004	-1.84805E-001	3.95247E-002	3.31765E+001	11	...........	6.59454E-002	-4.36583E-003	5.75079E-001	6.09353E-001	-2.93846E-002	-3.91311E-002	6.63918E-001	-4.36594E-002	-1.23289E-003	8.16219E-005	-1.07515E-002	-1.13922E-002	5.49363E-004	7.31580E-004	-1.24124E-002	8.16240E-004
	46	46	4.99279E-002	-1.84345E-002	0.00000E+000	-9.20393E-004	-1.82207E-001	3.94751E-002	3.29937E+001	11	...........	6.58469E-002	-4.41500E-003	5.74918E-001	6.09375E-001	-2.93564E-002	-3.91419E-002	6.63914E-001	-4.36307E-002	-1.21385E-003	8.13882E-005	-1.05983E-002	-1.12335E-002	5.41169E-004	7.21561E-004	-1.22389E-002	8.04309E-004
	47	47	4.99282E-002	-1.80998E-002	0.00000E+000	-9.03688E-004	-1.78889E-001	3.94562E-002	3.32044E+001	11	...........	6.58397E-002	-4.45625E-003	5.74820E-001	6.09275E-001	-2.93540E-002	-3.91281E-002	6.63979E-001	-4.35581E-002	-1.19168E-003	8.06571E-005	-1.04041E-002	-1.10277E-002	5.31301E-004	7.08209E-004	-1.20179E-002	7.88391E-004
	48	48	4.99298E-002	-1.77669E-002	0.00000E+000	-8.87097E-004	-1.75573E-001	3.94906E-002	3.32633E+001	11	...........	6.58883E-002	-4.49472E-003	5.74898E-001	6.09238E-001	-2.93311E-002	-3.91297E-002	6.64145E-001	-4.34637E-002	-1.17063E-003	7.98572E-005	-1.02141E-002	-1.08243E-002	5.21122E-004	6.95213E-004	-1.17998E-002	7.72215E-004
	49	49	4.99298E-002	-1.75513E-002	0.00000E+000	-8.76332E-004	-1.73427E-001	3.95239E-002	3.32924E+001	11	...........	6.59564E-002	-4.45639E-003	5.74830E-001	6.09212E-001	-2.93369E-002	-3.91179E-002	6.64106E-001	-4.35679E-002	-1.15762E-003	7.82154E-005	-1.00890E-002	-1.06924E-002	5.14901E-004	6.86570E-004	-1.16559E-002	7.64673E-004
	50	50	4.99291E-002	-1.72794E-002	0.00000E+000	-8.62747E-004	-1.70723E-001	3.95485E-002	3.33102E+001	11	...........	6.59875E-002	-4.43667E-003	5.74797E-001	6.09007E-001	-2.93556E-002	-3.91085E-002	6.64142E-001	-4.37297E-002	-1.14023E-003	7.66631E-005	-9.93218E-003	-1.05233E-002	5.07248E-004	6.75773E-004	-1.14760E-002	7.55625E-004
	51	51	4.99284E-002	-1.69684E-002	0.00000E+000	-8.47205E-004	-1.67619E-001	3.95652E-002	3.32989E+001	11	...........	6.60018E-002	-4.41833E-003	5.74822E-001	6.08858E-001	-2.93294E-002	-3.91314E-002	6.63997E-001	-4.37032E-002	-1.11995E-003	7.49720E-005	-9.75381E-003	-1.03313E-002	4.97674E-004	6.63997E-004	-1.12670E-002	7.41573E-004
	52	52	4.99287E-002	-1.66620E-002	0.00000E+000	-8.31911E-004	-1.64589E-001	3.95799E-002	3.33009E+001	11	...........	6.60249E-002	-4.38056E-003	5.74903E-001	6.08927E-001	-2.93139E-002	-3.91344E-002	6.63996E-001	-4.37110E-002	-1.10011E-003	7.29888E-005	-9.57903E-003	-1.01459E-002	4.88428E-004	6.52058E-004	-1.10635E-002	7.28312E-004
	53	53	4.99299E-002	-1.63874E-002	0.00000E+000	-8.18220E-004	-1.61855E-001	3.96063E-002	3.33298E+001	11	...........	6.60694E-002	-4.37778E-003	5.74982E-001	6.08902E-001	-2.93151E-002	-3.91271E-002	6.64009E-001	-4.35024E-002	-1.08270E-003	7.17402E-005	-9.42243E-003	-9.97830E-003	4.80398E-004	6.41190E-004	-1.08814E-002	7.12889E-004
	54	54	4.99288E-002	-1.61624E-002	0.00000E+000	-8.06970E-004	-1.59611E-001	3.96081E-002	3.33551E+001	11	...........	6.60867E-002	-4.37486E-003	5.74986E-001	6.08862E-001	-2.93007E-002	-3.91167E-002	6.63958E-001	-4.35125E-002	-1.06812E-003	7.07083E-005	-9.29315E-003	-9.84067E-003	4.73570E-004	6.32219E-004	-1.07312E-002	7.03267E-004
	55	55	4.99293E-002	-1.59058E-002	0.00000E+000	-7.94163E-004	-1.57055E-001	3.96958E-002	3.32710E+001	11	...........	6.62361E-002	-4.44097E-003	5.74989E-001	6.08772E-001	-2.92818E-002	-3.91267E-002	6.63986E-001	-4.36568E-002	-1.05354E-003	7.06370E-005	-9.14563E-003	-9.68298E-003	4.65749E-004	6.22339E-004	-1.05612E-002	6.94394E-004
	56	56	4.99300E-002	-1.56519E-002	0.00000E+000	-7.81502E-004	-1.54530E-001	3.96427E-002	3.34000E+001	11	...........	6.61365E-002	-4.39625E-003	5.75127E-001	6.08769E-001	-2.92926E-002	-3.91440E-002	6.64046E-001	-4.37371E-002	-1.03516E-003	6.88098E-005	-9.00185E-003	-9.52842E-003	4.58487E-004	6.12680E-004	-1.03936E-002	6.84570E-004
	57	57	4.99319E-002	-1.54807E-002	0.00000E+000	-7.72982E-004	-1.52835E-001	3.96586E-002	3.33700E+001	11	...........	6.61678E-002	-4.42722E-003	5.75043E-001	6.08599E-001	-2.92704E-002	-3.91414E-002	6.64001E-001	-4.37978E-002	-1.02432E-003	6.85366E-005	-8.90207E-003	-9.42155E-003	4.53127E-004	6.05937E-004	-1.02792E-002	6.78021E-004
	58	58	4.99303E-002	-1.54020E-002	0.00000E+000	-7.69027E-004	-1.52055E-001	3.96878E-002	3.33886E+001	11	...........	6.62351E-002	-4.49653E-003	5.75111E-001	6.08588E-001	-2.92558E-002	-3.91525E-002	6.64043E-001	-4.36721E-002	-1.02015E-003	6.92556E-005	-8.85786E-003	-9.37348E-003	4.50599E-004	6.03027E-004	-1.02276E-002	6.72638E-004
	59	59	4.99288E-002	-1.51175E-002	0.00000E+000	-7.54800E-004	-1.49221E-001	3.96983E-002	3.30503E+001	11	...........	6.62364E-002	-4.50986E-003	5.75138E-001	6.08530E-001	-2.92546E-002	-3.91757E-002	6.64086E-001	-4.36897E-002	-1.00133E-003	6.81779E-005	-8.69467E-003	-9.19947E-003	4.42257E-004	5.92239E-004	-1.00393E-002	6.60480E-004
	60	60	4.99315E-002	-1.47940E-002	0.00000E+000	-7.38688E-004	-1.45995E-001	3.95973E-002	3.28320E+001	11	...........	6.60644E-002	-4.46903E-003	5.75161E-001	6.08656E-001	-2.92642E-002	-3.91622E-002	6.64000E-001	-4.36767E-002	-9.77359E-004	6.61149E-005	-8.50894E-003	-9.00447E-003	4.32935E-004	5.79367E-004	-9.82323E-003	6.46154E-004
	61	61	4.99313E-002	-1.48943E-002	0.00000E+000	-7.43691E-004	-1.46993E-001	3.97632E-002	3.33325E+001	11	...........	6.63178E-002	-4.46000E-003	5.75143E-001	6.08597E-001	-2.92610E-002	-3.91743E-002	6.63997E-001	-4.35101E-002	-9.87756E-004	6.64285E-005	-8.56634E-003	-9.06462E-003	4.35821E-004	5.83473E-004	-9.88976E-003	6.48052E-004
	62	62	4.99303E-002	-1.47731E-002	0.00000E+000	-7.37626E-004	-1.45791E-001	3.97615E-002	3.35920E+001	11	...........	6.63399E-002	-4.43514E-003	5.75303E-001	6.08569E-001	-2.92640E-002	-3.91572E-002	6.64130E-001	-4.35111E-002	-9.80047E-004	6.55208E-005	-8.49902E-003	-8.99046E-003	4.32321E-004	5.78474E-004	-9.81128E-003	6.42795E-004
	63	63	4.99306E-002	-1.45904E-002	0.00000E+000	-7.28507E-004	-1.43967E-001	3.97438E-002	3.33444E+001	11	...........	6.63146E-002	-4.50736E-003	5.75295E-001	6.08747E-001	-2.92717E-002	-3.91282E-002	6.64157E-001	-4.34087E-002	-9.67555E-004	6.57641E-005	-8.39376E-003	-8.88185E-003	4.27085E-004	5.70895E-004	-9.69030E-003	6.33350E-004
	64	64	4.99316E-002	-1.44432E-002	0.00000E+000	-7.21172E-004	-1.42503E-001	3.97419E-002	3.34216E+001	11	...........	6.63033E-002	-4.52042E-003	5.75154E-001	6.08714E-001	-2.92781E-002	-3.91375E-002	6.64286E-001	-4.34094E-002	-9.57632E-004	6.52892E-005	-8.30706E-003	-8.79177E-003	4.22868E-004	5.65270E-004	-9.59441E-003	6.26971E-004
	65	65	4.99302E-002	-1.43305E-002	0.00000E+000	-7.15526E-004	-1.41375E-001	3.98052E-002	3.35589E+001	11	...........	6.64092E-002	-4.36194E-003	5.75191E-001	6.08572E-001	-2.92475E-002	-3.91532E-002	6.64203E-001	-4.36065E-002	-9.51678E-004	6.25089E-005	-8.24278E-003	-8.72116E-003	4.19132E-004	5.61086E-004	-9.51838E-003	6.24904E-004
	66	66	4.99297E-002	-1.41522E-002	0.00000E+000	-7.06613E-004	-1.39621E-001	3.98077E-002	3.35828E+001	11	...........	6.64218E-002	-4.40194E-003	5.75240E-001	6.08569E-001	-2.92314E-002	-3.91711E-002	6.64078E-001	-4.37358E-002	-9.40012E-004	6.22970E-005	-8.14088E-003	-8.61257E-003	4.13687E-004	5.54356E-004	-9.39814E-003	6.18956E-004
	67	67	4.99301E-002	-1.39260E-002	0.00000E+000	-6.95327E-004	-1.37372E-001	3.98252E-002	3.36152E+001	11	...........	6.64560E-002	-4.45236E-003	5.75171E-001	6.08576E-001	-2.92215E-002	-3.91953E-002	6.64064E-001	-4.37501E-002	-9.25466E-004	6.20036E-005	-8.00983E-003	-8.47504E-003	4.06939E-004	5.45833E-004	-9.24775E-003	6.09264E-004
	68	68	4.99300E-002	-1.37469E-002	0.00000E+000	-6.86383E-004	-1.35587E-001	3.98593E-002	3.36477E+001	11	...........	6.65043E-002	-4.39306E-003	5.75142E-001	6.08636E-001	-2.92250E-002	-3.92081E-002	6.64115E-001	-4.36683E-002	-9.14227E-004	6.03909E-005	-7.90641E-003	-8.36685E-003	4.01753E-004	5.38989E-004	-9.12951E-003	6.00304E-004
	69	69	4.99300E-002	-1.35511E-002	0.00000E+000	-6.76605E-004	-1.33635E-001	3.98827E-002	3.36728E+001	11	...........	6.65244E-002	-4.45375E-003	5.75137E-001	6.08613E-001	-2.92156E-002	-3.91926E-002	6.64089E-001	-4.37617E-002	-9.01477E-004	6.03530E-005	-7.79372E-003	-8.24735E-003	3.95902E-004	5.31102E-004	-8.99911E-003	5.93017E-004
	70	70	4.99300E-002	-1.33500E-002	0.00000E+000	-6.66565E-004	-1.31637E-001	3.98970E-002	3.37006E+001	11	...........	6.65779E-002	-4.39889E-003	5.75041E-001	6.08686E-001	-2.92226E-002	-3.91979E-002	6.64158E-001	-4.37756E-002	-8.88815E-004	5.87252E-005	-7.67680E-003	-8.12596E-003	3.90122E-004	5.23292E-004	-8.86651E-003	5.84404E-004
	71	71	4.99304E-002	-1.31645E-002	0.00000E+000	-6.57310E-004	-1.29791E-001	3.99171E-002	3.37225E+001	11	...........	6.65946E-002	-4.45306E-003	5.75021E-001	6.08826E-001	-2.92297E-002	-3.91986E-002	6.64050E-001	-4.36482E-002	-8.76685E-004	5.86223E-005	-7.56987E-003	-8.01490E-003	3.84795E-004	5.16030E-004	-8.74189E-003	5.74607E-004
	72	72	4.99307E-002	-1.29793E-002	0.00000E+000	-6.48067E-004	-1.27960E-001	3.99350E-002	3.37566E+001	11	...........	6.66258E-002	-4.45792E-003	5.75093E-001	6.08793E-001	-2.92114E-002	-3.91878E-002	6.64099E-001	-4.36054E-002	-8.64759E-004	5.78608E-005	-7.46432E-003	-7.90173E-003	3.79144E-004	5.08631E-004	-8.61956E-003	5.65969E-004
	73	73	4.99297E-002	-1.28096E-002	0.00000E+000	-6.39582E-004	-1.26277E-001	3.99485E-002	3.37720E+001	11	...........	6.66512E-002	-4.38306E-003	5.74993E-001	6.08773E-001	-2.91793E-002	-3.92076E-002	6.64128E-001	-4.35039E-002	-8.53779E-004	5.61454E-005	-7.36546E-003	-7.79816E-003	3.73777E-004	5.02236E-004	-8.50724E-003	5.57269E-004
	74	74	4.99304E-002	-1.26111E-002	0.00000E+000	-6.29677E-004	-1.24292E-001	3.99702E-002	3.37994E+001	11	...........	6.66779E-002	-4.36931E-003	5.74837E-001	6.08787E-001	-2.91953E-002	-3.92122E-002	6.64193E-001	-4.34196E-002	-8.40881E-004	5.51017E-005	-7.24932E-003	-7.67747E-003	3.68184E-004	4.94509E-004	-8.37620E-003	5.47568E-004
	75	75	4.99305E-002	-1.24416E-002	0.00000E+000	-6.21216E-004	-1.22605E-001	4.00471E-002	3.37796E+001	11	...........	6.68078E-002	-4.48097E-003	5.74924E-001	6.08801E-001	-2.91899E-002	-3.91964E-002	6.64312E-001	-4.35382E-002	-8.31197E-004	5.57506E-005	-7.15299E-003	-7.57447E-003	3.63169E-004	4.87667E-004	-8.26512E-003	5.41686E-004
	76	76	4.99301E-002	-1.22921E-002	0.00000E+000	-6.13747E-004	-1.21117E-001	3.99440E-002	3.38583E+001	11	...........	6.66486E-002	-4.41972E-003	5.74854E-001	6.08840E-001	-2.91753E-002	-3.92104E-002	6.64206E-001	-4.36549E-002	-8.19252E-004	5.43277E-005	-7.06617E-003	-7.48393E-003	3.58626E-004	4.81979E-004	-8.16449E-003	5.36610E-004
	77	77	4.99309E-002	-1.21262E-002	0.00000E+000	-6.05474E-004	-1.19469E-001	4.00075E-002	3.38850E+001	11	...........	6.67549E-002	-4.35181E-003	5.74588E-001	6.08809E-001	-2.91653E-002	-3.91950E-002	6.64285E-001	-4.36072E-002	-8.09484E-004	5.27710E-005	-6.96759E-003	-7.38255E-003	3.53665E-004	4.75287E-004	-8.05527E-003	5.28791E-004
	78	78	4.99303E-002	-1.19563E-002	0.00000E+000	-5.96980E-004	-1.17771E-001	4.00651E-002	3.38851E+001	11	...........	6.68500E-002	-4.36917E-003	5.74614E-001	6.08751E-001	-2.91615E-002	-3.91911E-002	6.64424E-001	-4.37644E-002	-7.99276E-004	5.22389E-005	-6.87023E-003	-7.27839E-003	3.48663E-004	4.68579E-004	-7.94402E-003	5.23259E-004
	79	79	4.99307E-002	-1.18072E-002	0.00000E+000	-5.89542E-004	-1.16290E-001	4.00171E-002	3.38825E+001	11	...........	6.67581E-002	-4.37417E-003	5.74620E-001	6.08683E-001	-2.91674E-002	-3.91931E-002	6.64356E-001	-4.37962E-002	-7.88226E-004	5.16467E-005	-6.78466E-003	-7.18685E-003	3.44385E-004	4.62761E-004	-7.84419E-003	5.17112E-004
	80	80	4.99304E-002	-1.16363E-002	0.00000E+000	-5.81005E-004	-1.14595E-001	4.00407E-002	3.39516E+001	11	...........	6.68121E-002	-4.31764E-003	5.74473E-001	6.08700E-001	-2.91674E-002	-3.91733E-002	6.64394E-001	-4.36197E-002	-7.77446E-004	5.02414E-005	-6.68474E-003	-7.08302E-003	3.39400E-004	4.55833E-004	-7.73110E-003	5.07572E-004
	81	81	4.99310E-002	-1.14880E-002	0.00000E+000	-5.73606E-004	-1.13129E-001	4.00537E-002	3.39581E+001	11	...........	6.68272E-002	-4.36528E-003	5.74532E-001	6.08773E-001	-2.91806E-002	-3.91676E-002	6.64296E-001	-4.36283E-002	-7.67709E-004	5.01482E-005	-6.60021E-003	-6.99356E-003	3.35225E-004	4.49957E-004	-7.63141E-003	5.01201E-004
	82	82	4.99309E-002	-1.13571E-002	0.00000E+000	-5.67069E-004	-1.11825E-001	4.03279E-002	3.37469E+001	11	...........	6.72740E-002	-4.41042E-003	5.74613E-001	6.08807E-001	-2.91562E-002	-3.91803E-002	6.64244E-001	-4.36668E-002	-7.64036E-004	5.00894E-005	-6.52592E-003	-6.91426E-003	3.31130E-004	4.44973E-004	-7.54387E-003	4.95927E-004
	83	83	4.99303E-002	-1.12003E-002	0.00000E+000	-5.59232E-004	-1.10263E-001	3.97900E-002	3.37979E+001	11	...........	6.68410E-002	-4.44639E-003	5.74656E-001	6.08865E-001	-2.91789E-002	-3.91962E-002	6.64331E-001	-4.37603E-002	-7.48636E-004	4.98007E-005	-6.43630E-003	-6.81944E-003	3.26811E-004	4.39008E-004	-7.44068E-003	4.90127E-004
	84	84	4.99310E-002	-1.10658E-002	0.00000E+000	-5.52525E-004	-1.08922E-001	4.00518E-002	3.37893E+001	11	...........	6.68280E-002	-4.37931E-003	5.74403E-001	6.08862E-001	-2.91943E-002	-3.91775E-002	6.64206E-001	-4.36718E-002	-7.39504E-004	4.84604E-005	-6.35622E-003	-6.73753E-003	3.23057E-004	4.33529E-004	-7.34995E-003	4.83262E-004
	85	85	4.99317E-002	-1.09601E-002	0.00000E+000	-5.47256E-004	-1.07872E-001	4.00886E-002	3.38184E+001	11	...........	6.68789E-002	-4.53958E-003	5.74338E-001	6.08703E-001	-2.92053E-002	-3.91847E-002	6.64213E-001	-4.37108E-002	-7.32999E-004	4.97543E-005	-6.29481E-003	-6.67145E-003	3.20093E-004	4.29469E-004	-7.27984E-003	4.79075E-004
	86	86	4.99311E-002	-1.08838E-002	0.00000E+000	-5.43438E-004	-1.07115E-001	4.01234E-002	3.39389E+001	11	...........	6.69461E-002	-4.50403E-003	5.74429E-001	6.08606E-001	-2.91990E-002	-3.91831E-002	6.64217E-001	-4.36829E-002	-7.28625E-004	4.90208E-005	-6.25194E-003	-6.62392E-003	3.17795E-004	4.26459E-004	-7.22918E-003	4.75434E-004
	87	87	4.99302E-002	-1.07323E-002	0.00000E+000	-5.35868E-004	-1.05601E-001	4.01154E-002	3.40087E+001	11	...........	6.69296E-002	-4.49264E-003	5.74399E-001	6.08586E-001	-2.92019E-002	-3.91949E-002	6.64131E-001	-4.37074E-002	-7.18310E-004	4.82165E-005	-6.16464E-003	-6.53155E-003	3.13405E-004	4.20652E-004	-7.12767E-003	4.69082E-004
	88	88	4.99306E-002	-1.05687E-002	0.00000E+000	-5.27704E-004	-1.03972E-001	3.99036E-002	3.40407E+001	11	...........	6.69364E-002	-4.41208E-003	5.74330E-001	6.08389E-001	-2.92046E-002	-3.92019E-002	6.64155E-001	-4.37672E-002	-7.07433E-004	4.66302E-005	-6.06994E-003	-6.42991E-003	3.08656E-004	4.14315E-004	-7.01928E-003	4.62564E-004
	89	89	4.99305E-002	-1.03811E-002	0.00000E+000	-5.18333E-004	-1.02146E-001	4.01523E-002	3.40770E+001	11	...........	6.69657E-002	-4.41639E-003	5.74039E-001	6.08384E-001	-2.91954E-002	-3.92040E-002	6.64198E-001	-4.37156E-002	-6.95176E-004	4.58469E-005	-5.95914E-003	-6.31568E-003	3.03080E-004	4.06980E-004	-6.89509E-003	4.53815E-004
	90	90	4.99307E-002	-1.02467E-002	0.00000E+000	-5.11625E-004	-1.00818E-001	4.01516E-002	3.40702E+001	11	...........	6.69974E-002	-4.40736E-003	5.73913E-001	6.08386E-001	-2.91871E-002	-3.92225E-002	6.64185E-001	-4.36365E-002	-6.86501E-004	4.51609E-005	-5.88071E-003	-6.23395E-003	2.99071E-004	4.01901E-004	-6.80570E-003	4.47130E-004
	91	91	4.99308E-002	-1.01305E-002	0.00000E+000	-5.05821E-004	-9.96573E-002	4.01548E-002	3.40745E+001	11	...........	6.69858E-002	-4.29000E-003	5.73904E-001	6.08306E-001	-2.91917E-002	-3.92585E-002	6.64001E-001	-4.37439E-002	-6.78597E-004	4.34597E-005	-5.81391E-003	-6.16241E-003	2.95725E-004	3.97706E-004	-6.72664E-003	4.43146E-004
	92	92	4.99278E-002	-9.99383E-003	0.00000E+000	-4.98970E-004	-9.82967E-002	4.01808E-002	3.34115E+001	11	...........	6.70342E-002	-4.34347E-003	5.73969E-001	6.08279E-001	-2.92000E-002	-3.92842E-002	6.64100E-001	-4.38276E-002	-6.69928E-004	4.34079E-005	-5.73615E-003	-6.07903E-003	2.91820E-004	3.92599E-004	-6.63690E-003	4.38006E-004
	93	93	4.99349E-002	-9.82694E-003	0.00000E+000	-4.90707E-004	-9.66353E-002	4.01244E-002	3.39309E+001	11	...........	6.69425E-002	-4.39514E-003	5.74089E-001	6.08264E-001	-2.92154E-002	-3.92614E-002	6.64115E-001	-4.37119E-002	-6.57840E-004	4.31908E-005	-5.64153E-003	-5.97737E-003	2.87098E-004	3.85819E-004	-6.52621E-003	4.29555E-004
	94	94	4.99316E-002	-9.87384E-003	0.00000E+000	-4.93017E-004	-9.71060E-002	4.01835E-002	3.40965E+001	11	...........	6.70533E-002	-4.35833E-003	5.74183E-001	6.08373E-001	-2.92410E-002	-3.92296E-002	6.64026E-001	-4.36935E-002	-6.62074E-004	4.30335E-005	-5.66940E-003	-6.00698E-003	2.88721E-004	3.87347E-004	-6.55649E-003	4.31422E-004
	95	95	4.99313E-002	-9.74764E-003	0.00000E+000	-4.86712E-004	-9.58427E-002	4.01412E-002	3.41311E+001	11	...........	6.69708E-002	-4.41000E-003	5.74047E-001	6.08396E-001	-2.92694E-002	-3.92289E-002	6.64124E-001	-4.35742E-002	-6.52808E-004	4.29871E-005	-5.59561E-003	-5.93042E-003	2.85308E-004	3.82389E-004	-6.47364E-003	4.24745E-004
	96	96	4.99313E-002	-9.63842E-003	0.00000E+000	-4.81259E-004	-9.47547E-002	4.01618E-002	3.41380E+001	11	...........	6.70047E-002	-4.45514E-003	5.73898E-001	6.08373E-001	-2.92662E-002	-3.92315E-002	6.64101E-001	-4.35982E-002	-6.45820E-004	4.29405E-005	-5.53148E-003	-5.86375E-003	2.82081E-004	3.78130E-004	-6.40089E-003	4.20218E-004
	97	97	4.99313E-002	-9.55009E-003	0.00000E+000	-4.76848E-004	-9.38760E-002	4.01784E-002	3.41644E+001	11	...........	6.70496E-002	-4.31972E-003	5.73852E-001	6.08487E-001	-2.92492E-002	-3.92211E-002	6.64234E-001	-4.36840E-002	-6.40330E-004	4.12538E-005	-5.48035E-003	-5.81111E-003	2.79332E-004	3.74565E-004	-6.34350E-003	4.17187E-004
	98	98	4.99310E-002	-9.43678E-003	0.00000E+000	-4.71187E-004	-9.27487E-002	4.01982E-002	3.41926E+001	11	...........	6.70703E-002	-4.32847E-003	5.73829E-001	6.08449E-001	-2.92719E-002	-3.92096E-002	6.64259E-001	-4.36974E-002	-6.32927E-004	4.08468E-005	-5.41510E-003	-5.74180E-003	2.76233E-004	3.70012E-004	-6.26846E-003	4.12362E-004
	99	99	4.99309E-002	-9.31456E-003	0.00000E+000	-4.65085E-004	-9.15333E-002	4.02002E-002	3.42028E+001	11	...........	6.70740E-002	-4.36333E-003	5.73702E-001	6.08366E-001	-2.92878E-002	-3.92125E-002	6.64303E-001	-4.36212E-002	-6.24765E-004	4.06425E-005	-5.34378E-003	-5.66666E-003	2.72803E-004	3.65247E-004	-6.18770E-003	4.06313E-004
	100	100	4.99310E-002	-9.19626E-003	0.00000E+000	-4.59179E-004	-9.03493E-002	4.02092E-002	3.42162E+001	11	...........	6.70958E-002	-4.37319E-003	5.73641E-001	6.08377E-001	-2.92921E-002	-3.92335E-002	6.64302E-001	-4.34606E-002	-6.17031E-004	4.02170E-005	-5.27535E-003	-5.59480E-003	2.69378E-004	3.60801E-004	-6.10910E-003	3.99674E-004
	101	101	4.99309E-002	-9.07899E-003	0.00000E+000	-4.53322E-004	-8.91900E-002	4.02269E-002	3.42243E+001	11	...........	6.71249E-002	-4.41458E-003	5.73746E-001	6.08391E-001	-2.92776E-002	-3.92447E-002	6.64312E-001	-4.36482E-002	-6.09426E-004	4.00800E-005	-5.20904E-003	-5.52358E-003	2.65811E-004	3.56302E-004	-6.03129E-003	3.96282E-004
	102	102	4.99311E-002	-8.93899E-003	0.00000E+000	-4.46334E-004	-8.78120E-002	4.02284E-002	3.42432E+001	11	...........	6.71332E-002	-4.46556E-003	5.73922E-001	6.08512E-001	-2.93011E-002	-3.92312E-002	6.64238E-001	-4.37949E-002	-6.00103E-004	3.99175E-005	-5.13028E-003	-5.43948E-003	2.61922E-004	3.50688E-004	-5.93761E-003	3.91482E-004
	103	103	4.99311E-002	-8.82818E-003	0.00000E+000	-4.40801E-004	-8.67040E-002	4.02389E-002	3.42622E+001	11	...........	6.71465E-002	-4.53931E-003	5.73870E-001	6.08544E-001	-2.92886E-002	-3.92556E-002	6.64304E-001	-4.38835E-002	-5.92781E-004	4.00738E-005	-5.06623E-003	-5.37234E-003	2.58565E-004	3.46555E-004	-5.86459E-003	3.87411E-004
	104	104	4.99311E-002	-8.71861E-003	0.00000E+000	-4.35330E-004	-8.56160E-002	4.02611E-002	3.42689E+001	11	...........	6.71686E-002	-4.57556E-003	5.73851E-001	6.08566E-001	-2.92824E-002	-3.92525E-002	6.64354E-001	-4.38103E-002	-5.85617E-004	3.98925E-005	-5.00318E-003	-5.30585E-003	2.55302E-004	3.42227E-004	-5.79225E-003	3.81965E-004
	105	105	4.99312E-002	-8.60442E-003	0.00000E+000	-4.29629E-004	-8.44780E-002	4.03177E-002	3.41695E+001	11	...........	6.72735E-002	-4.49917E-003	5.73781E-001	6.08657E-001	-2.92587E-002	-3.92340E-002	6.64215E-001	-4.38190E-002	-5.78849E-004	3.87127E-005	-4.93705E-003	-5.23714E-003	2.51755E-004	3.37586E-004	-5.71519E-003	3.77037E-004
	106	106	4.99309E-002	-8.49259E-003	0.00000E+000	-4.24043E-004	-8.33607E-002	4.02782E-002	3.42187E+001	11	...........	6.72190E-002	-4.49181E-003	5.73785E-001	6.08692E-001	-2.92376E-002	-3.92449E-002	6.64226E-001	-4.37342E-002	-5.70864E-004	3.81471E-005	-4.87292E-003	-5.16937E-003	2.48303E-004	3.33291E-004	-5.64100E-003	3.71416E-004
	107	107	4.99314E-002	-8.39689E-003	0.00000E+000	-4.19268E-004	-8.24073E-002	4.02870E-002	3.42839E+001	11	...........	6.72186E-002	-4.42250E-003	5.73774E-001	6.08776E-001	-2.92354E-002	-3.92461E-002	6.64065E-001	-4.37985E-002	-5.64427E-004	3.71352E-005	-4.81792E-003	-5.11182E-003	2.45487E-004	3.29545E-004	-5.57608E-003	3.67771E-004
	108	108	4.99314E-002	-8.28280E-003	0.00000E+000	-4.13572E-004	-8.12733E-002	4.02959E-002	3.42939E+001	11	...........	6.72265E-002	-4.46042E-003	5.73866E-001	6.08920E-001	-2.92283E-002	-3.92647E-002	6.64071E-001	-4.38308E-002	-5.56824E-004	3.69447E-005	-4.75322E-003	-5.04356E-003	2.42093E-004	3.25222E-004	-5.50037E-003	3.63042E-004
	109	109	4.99316E-002	-8.23009E-003	0.00000E+000	-4.10942E-004	-8.07473E-002	4.02989E-002	3.43077E+001	11	...........	6.72457E-002	-4.45847E-003	5.73948E-001	6.08895E-001	-2.92126E-002	-3.92622E-002	6.64063E-001	-4.36776E-002	-5.53438E-004	3.66936E-005	-4.72365E-003	-5.01127E-003	2.40423E-004	3.23132E-004	-5.46530E-003	3.59471E-004
	110	110	4.99314E-002	-8.14123E-003	0.00000E+000	-4.06503E-004	-7.98653E-002	4.03012E-002	3.43199E+001	11	...........	6.72555E-002	-4.48194E-003	5.74064E-001	6.08737E-001	-2.91997E-002	-3.92607E-002	6.63980E-001	-4.37686E-002	-5.47543E-004	3.64885E-005	-4.67359E-003	-4.95587E-003	2.37722E-004	3.19630E-004	-5.40561E-003	3.56330E-004
	111	111	4.99314E-002	-8.03130E-003	0.00000E+000	-4.01014E-004	-7.87707E-002	4.03184E-002	3.43341E+001	11	...........	6.72687E-002	-4.51944E-003	5.74028E-001	6.08692E-001	-2.91957E-002	-3.92501E-002	6.64014E-001	-4.38944E-002	-5.40256E-004	3.62970E-005	-4.61020E-003	-4.88859E-003	2.34479E-004	3.15230E-004	-5.33290E-003	3.52530E-004
	112	112	4.99308E-002	-7.93015E-003	0.00000E+000	-3.95958E-004	-7.77647E-002	4.03230E-002	3.43479E+001	11	...........	6.72829E-002	-4.44944E-003	5.74043E-001	6.08721E-001	-2.91878E-002	-3.92399E-002	6.64046E-001	-4.38564E-002	-5.33563E-004	3.52848E-005	-4.55224E-003	-4.82725E-003	2.31463E-004	3.11178E-004	-5.26599E-003	3.47788E-004
	113	113	4.99317E-002	-7.78674E-003	0.00000E+000	-3.88805E-004	-7.63620E-002	4.03264E-002	3.34357E+001	11	...........	6.73004E-002	-4.48042E-003	5.73990E-001	6.08806E-001	-2.91857E-002	-3.92556E-002	6.64003E-001	-4.37624E-002	-5.24051E-004	3.48878E-005	-4.46951E-003	-4.74062E-003	2.27261E-004	3.05673E-004	-5.17042E-003	3.40766E-004
	114	114	4.99301E-002	-7.54511E-003	0.00000E+000	-3.76728E-004	-7.39480E-002	4.01693E-002	3.36157E+001	11	...........	6.70190E-002	-4.45611E-003	5.73921E-001	6.08756E-001	-2.92044E-002	-3.92444E-002	6.64033E-001	-4.37883E-002	-5.05666E-004	3.36218E-005	-4.33029E-003	-4.59313E-003	2.20351E-004	2.96104E-004	-5.01020E-003	3.30388E-004
	115	115	4.99328E-002	-7.65636E-003	0.00000E+000	-3.82304E-004	-7.50587E-002	4.03917E-002	3.42997E+001	11	...........	6.73911E-002	-4.38361E-003	5.73991E-001	6.08683E-001	-2.91978E-002	-3.92471E-002	6.64168E-001	-4.38051E-002	-5.15971E-004	3.35625E-005	-4.39468E-003	-4.66029E-003	2.23549E-004	3.00490E-004	-5.08511E-003	3.35388E-004
	116	116	4.99314E-002	-7.59394E-003	0.00000E+000	-3.79176E-004	-7.44380E-002	4.03231E-002	3.44588E+001	11	...........	6.72862E-002	-4.31903E-003	5.73967E-001	6.08601E-001	-2.91814E-002	-3.92467E-002	6.64161E-001	-4.37793E-002	-5.10968E-004	3.27984E-005	-4.35867E-003	-4.62168E-003	2.21602E-004	2.98037E-004	-5.04360E-003	3.32457E-004
	117	117	4.99316E-002	-7.50011E-003	0.00000E+000	-3.74492E-004	-7.35013E-002	4.03447E-002	3.44547E+001	11	...........	6.73111E-002	-4.37903E-003	5.73968E-001	6.08368E-001	-2.91600E-002	-3.92625E-002	6.64033E-001	-4.36340E-002	-5.04840E-004	3.28432E-005	-4.30482E-003	-4.56282E-003	2.18703E-004	2.94473E-004	-4.98032E-003	3.27260E-004
	118	118	4.99313E-002	-7.41922E-003	0.00000E+000	-3.70451E-004	-7.26913E-002	4.03483E-002	3.45119E+001	11	...........	6.73211E-002	-4.36944E-003	5.74039E-001	6.08269E-001	-2.91586E-002	-3.92822E-002	6.64057E-001	-4.36421E-002	-4.99470E-004	3.24179E-005	-4.25892E-003	-4.51288E-003	2.16334E-004	2.91443E-004	-4.92678E-003	3.23790E-004
	119	119	4.99314E-002	-7.30834E-003	0.00000E+000	-3.64916E-004	-7.15907E-002	4.03504E-002	3.45046E+001	11	...........	6.73199E-002	-4.45069E-003	5.74003E-001	6.08102E-001	-2.91403E-002	-3.92836E-002	6.64104E-001	-4.36547E-002	-4.91996E-004	3.25272E-005	-4.19501E-003	-4.44422E-003	2.12967E-004	2.87098E-004	-4.85350E-003	3.19043E-004
	120	120	4.99313E-002	-7.22222E-003	0.00000E+000	-3.60615E-004	-7.07273E-002	4.03579E-002	3.45182E+001	11	...........	6.73449E-002	-4.45125E-003	5.74002E-001	6.08081E-001	-2.91589E-002	-3.92753E-002	6.64103E-001	-4.35944E-002	-4.86379E-004	3.21479E-005	-4.14557E-003	-4.39170E-003	2.10592E-004	2.83655E-004	-4.79630E-003	3.14849E-004
	121	121	4.99308E-002	-7.10525E-003	0.00000E+000	-3.54771E-004	-6.95647E-002	4.03692E-002	3.45363E+001	11	...........	6.73551E-002	-4.36986E-003	5.74029E-001	6.08135E-001	-2.91628E-002	-3.92637E-002	6.64051E-001	-4.36187E-002	-4.78575E-004	3.10490E-005	-4.07862E-003	-4.32095E-003	2.07209E-004	2.78979E-004	-4.71825E-003	3.09922E-004
	122	122	4.99319E-002	-7.02273E-003	0.00000E+000	-3.50658E-004	-6.87480E-002	4.03739E-002	3.45146E+001	11	...........	6.73764E-002	-4.35958E-003	5.74112E-001	6.08208E-001	-2.91756E-002	-3.92712E-002	6.64072E-001	-4.37082E-002	-4.73166E-004	3.06162E-005	-4.03183E-003	-4.27128E-003	2.04892E-004	2.75791E-004	-4.66360E-003	3.06951E-004
	123	123	4.99313E-002	-6.94664E-003	0.00000E+000	-3.46855E-004	-6.79873E-002	4.03867E-002	3.45288E+001	11	...........	6.74001E-002	-4.44819E-003	5.74022E-001	6.08278E-001	-2.91721E-002	-3.92689E-002	6.64066E-001	-4.37010E-002	-4.68205E-004	3.09000E-005	-3.98753E-003	-4.22549E-003	2.02648E-004	2.72787E-004	-4.61303E-003	3.03575E-004
	124	124	4.99314E-002	-6.85909E-003	0.00000E+000	-3.42484E-004	-6.71127E-002	4.03961E-002	3.45433E+001	11	...........	6.74001E-002	-4.51458E-003	5.73947E-001	6.08070E-001	-2.91758E-002	-3.92721E-002	6.64163E-001	-4.36829E-002	-4.62303E-004	3.09659E-005	-3.93675E-003	-4.17081E-003	2.00120E-004	2.69371E-004	-4.55556E-003	2.99625E-004
	125	125	4.99316E-002	-6.78037E-003	0.00000E+000	-3.38555E-004	-6.63253E-002	4.04095E-002	3.45513E+001	11	...........	6.74262E-002	-4.46722E-003	5.73894E-001	6.08104E-001	-2.92204E-002	-3.92544E-002	6.64249E-001	-4.38329E-002	-4.57175E-004	3.02894E-005	-3.89121E-003	-4.12317E-003	1.98125E-004	2.66159E-004	-4.50385E-003	2.97203E-004
	126	126	4.99316E-002	-6.68894E-003	0.00000E+000	-3.33990E-004	-6.54227E-002	4.04287E-002	3.45726E+001	11	...........	6.74372E-002	-4.53097E-003	5.73753E-001	6.08084E-001	-2.94031E-002	-3.91997E-002	6.64308E-001	-4.38392E-002	-4.51084E-004	3.03074E-005	-3.83780E-003	-4.06744E-003	1.96675E-004	2.62205E-004	-4.44352E-003	2.93238E-004
	127	127	4.99314E-002	-6.62296E-003	0.00000E+000	-3.30693E-004	-6.47560E-002	4.04307E-002	3.45765E+001	11	...........	6.74508E-002	-4.46736E-003	5.73577E-001	6.08072E-001	-3.03124E-002	-3.91172E-002	6.64348E-001	-4.38147E-002	-4.46724E-004	2.95871E-005	-3.79877E-003	-4.02723E-003	2.00757E-004	2.59072E-004	-4.39995E-003	2.90183E-004
	128	128	4.99314E-002	-6.53758E-003	0.00000E+000	-3.26431E-004	-6.39073E-002	4.04512E-002	3.45601E+001	11	...........	6.74725E-002	-4.53111E-003	5.73712E-001	6.07812E-001	-4.74868E-002	-4.15689E-002	6.64615E-001	-4.39106E-002	-4.41107E-004	2.96225E-005	-3.75069E-003	-3.97362E-003	3.10449E-004	2.71760E-004	-4.34498E-003	2.87069E-004
	129	129	4.99315E-002	-6.45281E-003	0.00000E+000	-3.22199E-004	-6.30767E-002	4.04393E-002	3.45387E+001	11	...........	6.74726E-002	-4.87056E-003	5.75010E-001	6.04145E-001	-2.98221E-001	-6.81871E-002	6.68425E-001	-4.50032E-002	-4.35388E-004	3.14288E-005	-3.71043E-003	-3.89843E-003	1.92437E-003	4.39998E-004	-4.31322E-003	2.90397E-004
	130	130	4.99315E-002	-6.38142E-003	0.00000E+000	-3.18634E-004	-6.23713E-002	4.04891E-002	3.45219E+001	11	...........	6.75604E-002	-4.15194E-003	5.73519E-001	6.08863E-001	3.73437E-002	-5.83821E-002	6.61640E-001	-4.28892E-002	-4.31131E-004	2.64953E-005	-3.65987E-003	-3.88541E-003	-2.38306E-004	3.72561E-004	-4.22220E-003	2.73694E-004
	131	131	4.99318E-002	-6.31299E-003	0.00000E+000	-3.15219E-004	-6.16860E-002	4.06710E-002	3.43284E+001	11	...........	6.78525E-002	-4.32181E-003	5.73682E-001	6.08613E-001	3.02719E-002	-5.30844E-002	6.62889E-001	-4.31921E-002	-4.28352E-004	2.72835E-005	-3.62164E-003	-3.84217E-003	-1.91106E-004	3.35121E-004	-4.18481E-003	2.72671E-004
	132	132	4.99313E-002	-6.23321E-003	0.00000E+000	-3.11232E-004	-6.08933E-002	4.04795E-002	3.42132E+001	11	...........	6.75451E-002	-4.54833E-003	5.73662E-001	6.08272E-001	1.68433E-002	-4.79421E-002	6.63741E-001	-4.33604E-002	-4.21023E-004	2.83507E-005	-3.57576E-003	-3.79148E-003	-1.04988E-004	2.98833E-004	-4.13724E-003	2.70275E-004
	133	133	4.99321E-002	-6.15796E-003	0.00000E+000	-3.07480E-004	-6.01427E-002	4.04877E-002	3.40997E+001	11	...........	6.75483E-002	-4.43653E-003	5.73630E-001	6.08168E-001	6.64861E-003	-4.43037E-002	6.64060E-001	-4.37010E-002	-4.15960E-004	2.73199E-005	-3.53239E-003	-3.74507E-003	-4.09418E-005	2.72820E-004	-4.08925E-003	2.69109E-004
	134	134	4.99321E-002	-6.13917E-003	0.00000E+000	-3.06541E-004	-5.99607E-002	4.04769E-002	3.37921E+001	11	...........	6.75128E-002	-4.31792E-003	5.73804E-001	6.07986E-001	-1.08014E-003	-4.16687E-002	6.64299E-001	-4.37244E-002	-4.14472E-004	2.65084E-005	-3.52268E-003	-3.73253E-003	6.63115E-006	2.55811E-004	-4.07824E-003	2.68432E-004
	135	135	4.99318E-002	-6.03069E-003	0.00000E+000	-3.01123E-004	-5.88807E-002	4.04260E-002	3.41474E+001	11	...........	6.74579E-002	-4.28250E-003	5.73876E-001	6.07937E-001	-7.03958E-003	-3.98094E-002	6.64365E-001	-4.37619E-002	-4.06818E-004	2.58264E-005	-3.46086E-003	-3.66627E-003	4.24535E-005	2.40078E-004	-4.00657E-003	2.63915E-004
	136	136	4.99309E-002	-6.01210E-003	0.00000E+000	-3.00190E-004	-5.86960E-002	4.05264E-002	3.44104E+001	11	...........	6.75936E-002	-4.37375E-003	5.73819E-001	6.08070E-001	-1.21136E-002	-3.81779E-002	6.64345E-001	-4.37811E-002	-4.06380E-004	2.62954E-005	-3.44986E-003	-3.65578E-003	7.28283E-005	2.29530E-004	-3.99411E-003	2.63217E-004
	137	137	4.99325E-002	-5.95031E-003	0.00000E+000	-2.97114E-004	-5.80780E-002	4.04612E-002	3.44828E+001	11	...........	6.75011E-002	-4.40042E-003	5.73952E-001	6.08171E-001	-1.91853E-002	-3.62094E-002	6.64437E-001	-4.38393E-002	-4.01653E-004	2.61838E-005	-3.41519E-003	-3.61880E-003	1.14158E-004	2.15457E-004	-3.95360E-003	2.60858E-004
	138	138	4.99318E-002	-5.90710E-003	0.00000E+000	-2.94952E-004	-5.76420E-002	4.04769E-002	3.45136E+001	11	...........	6.75279E-002	-4.76889E-003	5.74991E-001	6.05521E-001	-1.78326E-001	-3.45611E-002	6.67764E-001	-4.46979E-002	-3.98894E-004	2.81703E-005	-3.39653E-003	-3.57688E-003	1.05339E-003	2.04156E-004	-3.94455E-003	2.64035E-004
	139	139	4.99317E-002	-5.84543E-003	0.00000E+000	-2.91872E-004	-5.70280E-002	4.04475E-002	3.45477E+001	11	...........	6.74887E-002	-4.29903E-003	5.74347E-001	6.07697E-001	-7.41853E-002	-7.46451E-002	6.63559E-001	-4.34033E-002	-3.94501E-004	2.51297E-005	-3.35731E-003	-3.55225E-003	4.33645E-004	4.36333E-004	-3.87879E-003	2.53711E-004
	140	140	4.99318E-002	-5.79301E-003	0.00000E+000	-2.89255E-004	-5.65120E-002	4.04697E-002	3.45348E+001	11	...........	6.75225E-002	-4.10708E-003	5.73933E-001	6.08970E-001	3.38678E-002	-5.22032E-002	6.62777E-001	-4.31233E-002	-3.91159E-004	2.37924E-005	-3.32480E-003	-3.52777E-003	-1.96196E-004	3.02414E-004	-3.83948E-003	2.49814E-004
	141	141	4.99316E-002	-5.71603E-003	0.00000E+000	-2.85411E-004	-5.57467E-002	4.04846E-002	3.45491E+001	11	...........	6.75146E-002	-4.18792E-003	5.73921E-001	6.08806E-001	1.99937E-002	-4.60736E-002	6.63603E-001	-4.33493E-002	-3.85915E-004	2.39382E-005	-3.28055E-003	-3.47995E-003	-1.14285E-004	2.63358E-004	-3.79317E-003	2.47786E-004
	142	142	4.99317E-002	-5.65434E-003	0.00000E+000	-2.82331E-004	-5.51293E-002	4.04818E-002	3.45286E+001	11	...........	6.75285E-002	-4.25694E-003	5.73855E-001	6.08722E-001	8.41597E-003	-4.18639E-002	6.64043E-001	-4.34486E-002	-3.81829E-004	2.40702E-005	-3.24477E-003	-3.44192E-003	-4.75867E-005	2.36713E-004	-3.75472E-003	2.45673E-004
	143	143	4.99318E-002	-5.59523E-003	0.00000E+000	-2.79380E-004	-5.45433E-002	4.04856E-002	3.45444E+001	11	...........	6.75440E-002	-4.41931E-003	5.73756E-001	6.08691E-001	6.20833E-005	-3.89340E-002	6.64238E-001	-4.35094E-002	-3.77924E-004	2.47270E-005	-3.21030E-003	-3.40576E-003	-3.47370E-007	2.17845E-004	-3.71656E-003	2.43445E-004
	144	144	4.99318E-002	-5.53414E-003	0.00000E+000	-2.76329E-004	-5.39360E-002	4.04889E-002	3.45832E+001	11	...........	6.75575E-002	-4.43292E-003	5.73730E-001	6.08607E-001	-6.95389E-003	-3.67878E-002	6.64415E-001	-4.35544E-002	-3.73872E-004	2.45324E-005	-3.17510E-003	-3.36812E-003	3.84838E-005	2.03589E-004	-3.67696E-003	2.41036E-004
	145	145	4.99315E-002	-5.47524E-003	0.00000E+000	-2.73387E-004	-5.33473E-002	4.04926E-002	3.45954E+001	11	...........	6.75485E-002	-4.45681E-003	5.73779E-001	6.08395E-001	-1.24269E-002	-3.53476E-002	6.64535E-001	-4.36099E-002	-3.69844E-004	2.44021E-005	-3.14157E-003	-3.33111E-003	6.80404E-005	1.93537E-004	-3.63849E-003	2.38774E-004
	146	146	4.99318E-002	-5.40953E-003	0.00000E+000	-2.70107E-004	-5.26987E-002	4.04968E-002	3.46150E+001	11	...........	6.75626E-002	-4.54972E-003	5.73873E-001	6.08331E-001	-1.66043E-002	-3.42972E-002	6.64542E-001	-4.37119E-002	-3.65482E-004	2.46118E-005	-3.10438E-003	-3.29078E-003	8.98214E-005	1.85532E-004	-3.59486E-003	2.36461E-004
	147	147	4.99320E-002	-5.35303E-003	0.00000E+000	-2.67287E-004	-5.21340E-002	4.04979E-002	3.46430E+001	11	...........	6.75690E-002	-4.53931E-003	5.73867E-001	6.08401E-001	-1.99649E-002	-3.36340E-002	6.64461E-001	-4.37057E-002	-3.61699E-004	2.42990E-005	-3.07192E-003	-3.25678E-003	1.06872E-004	1.80044E-004	-3.55688E-003	2.33958E-004
	148	148	4.99316E-002	-5.30364E-003	0.00000E+000	-2.64819E-004	-5.16387E-002	4.05113E-002	3.46687E+001	11	...........	6.75740E-002	-4.51639E-003	5.73773E-001	6.08695E-001	-2.26392E-002	-3.32101E-002	6.64446E-001	-4.36954E-002	-3.58389E-004	2.39533E-005	-3.04309E-003	-3.22830E-003	1.20070E-004	1.76135E-004	-3.52399E-003	2.31745E-004
	149	149	4.99319E-002	-5.23598E-003	0.00000E+000	-2.61442E-004	-5.09813E-002	4.05049E-002	3.46795E+001	11	...........	6.75969E-002	-4.46889E-003	5.73835E-001	6.08547E-001	-2.47582E-002	-3.29690E-002	6.64510E-001	-4.38278E-002	-3.53937E-004	2.33990E-005	-3.00459E-003	-3.18634E-003	1.29634E-004	1.72625E-004	-3.47936E-003	2.29482E-004
	150	150	4.99320E-002	-5.18460E-003	0.00000E+000	-2.58877E-004	-5.04740E-002	4.05137E-002	3.47005E+001	11	...........	6.75994E-002	-4.44236E-003	5.73849E-001	6.08389E-001	-2.64547E-002	-3.28832E-002	6.64445E-001	-4.37437E-002	-3.50476E-004	2.30319E-005	-2.97518E-003	-3.15426E-003	1.37157E-004	1.70486E-004	-3.44488E-003	2.26794E-004
	151	151	4.99316E-002	-5.13310E-003	0.00000E+000	-2.56304E-004	-4.99593E-002	4.05152E-002	3.47150E+001	11	...........	6.76010E-002	-4.37528E-003	5.73593E-001	6.08424E-001	-2.77875E-002	-3.29207E-002	6.64404E-001	-4.36124E-002	-3.47003E-004	2.24587E-005	-2.94431E-003	-3.12310E-003	1.42636E-004	1.68985E-004	-3.41045E-003	2.23867E-004
	152	152	4.99318E-002	-5.07282E-003	0.00000E+000	-2.53295E-004	-4.93633E-002	4.05442E-002	3.47160E+001	11	...........	6.76265E-002	-4.36944E-003	5.73448E-001	6.08282E-001	-2.87936E-002	-3.30326E-002	6.64601E-001	-4.35083E-002	-3.43057E-004	2.21654E-005	-2.90900E-003	-3.08570E-003	1.46065E-004	1.67569E-004	-3.37140E-003	2.20710E-004
	153	152.282	4.99318E-002	-5.03623E-003	0.00000E+000	-2.51468E-004	-4.89929E-002	4.05429E-002	3.47203E+001	11	...........	6.76474E-002	-4.39103E-003	5.73536E-001	6.08096E-001	-2.94305E-002	-3.31164E-002	6.64679E-001	-4.35794E-002	-3.40688E-004	2.21142E-005	-2.88846E-003	-3.06251E-003	1.48219E-004	1.66782E-004	-3.34748E-003	2.19476E-004
STARTTIMEOFFSET	QUANT	528420.9	Start Time Offset (s)
