EXPLAIN
TAG	PWR800_DISCHARGE
TITLE	LABEL	PWR Discharge	Test Identifier
DATE	LABEL	10/11/2022	Date
TIME	LABEL	23:50:01	Time
NOTES	NOTES	1	Notes...
	
PSTAT	PSTAT	REF3000-21114	Potentiostat
CAPACITY	QUANT	5.30000E-002	Capacity (A-hr)
CELLTYPE	SELECTOR	1	Cell Type
WORKINGCONNECTION	SELECTOR	0	Working Connection
MAXDISCHARGETIME	VARIABLEANDUNITS	7.20000E+003	s	2.00000E+000	hour(s)	Max Discharge Time
DISCHARGEMODE	MULTIPARAM	0	1.00000E-001	Discharge Mode	Constant Current	Amp(s)
VOLTAGEFINISH	TWOPARAM	T	5.00000E-003	7.20000E+003	Voltage Finish	I (A) <	Max Time(s)
SAMPLETIME	QUANT	1.00000E+000	Sample Period (s)
DISCHARGESTOPAT1	MULTIPARAM	1	5.00000E-002	Stop At 1	|Voltage| < Limit	V
DISCHARGESTOPAT2	MULTIPARAM	0	0.00000E+000	Stop At 2	None	N/A
AESELECTOR	AESELECTOR	0x1	T	Set Limits	AE Channels
AESBHCSELECTOR	TOGGLE	F	Save Both Half Cells
IRCOMP	TOGGLE	F	IR Measure
EOC	QUANT	0.562062	Open Circuit (V)
SEQUENCER	TOGGLE	TRUE	Run as Sequence
PSTATMODEL	IQUANT	5	Pstat Model
PSTATSECTION	LABEL	REF3000-21114	Pstat Section
PSTATSERIALNO	LABEL	21114	Pstat Serial Number
CTRLMODE	IQUANT	0	Control Mode
ELECTROMETER	IQUANT	0	RE=0 or CS=1
IESTAB	IQUANT	0	I/E Stability
CASPEED	IQUANT	4	Control Amp Speed
CONVENTION	IQUANT	1	Current Convention
ICHRANGE	IQUANT	2	Ich Range
ICHRANGEMODE	TOGGLE	T	Ich Auto Range
ICHOFFSETENABLE	TOGGLE	F	Ich Offset Enable
ICHOFFSET	QUANT	0	Ich Offset (V)
ICHFILTER	IQUANT	1	Ich Filter
VCHRANGE	IQUANT	3	Vch Range
VCHRANGEMODE	TOGGLE	T	Vch Auto Range
VCHOFFSETENABLE	TOGGLE	F	Vch Offset Enable
VCHOFFSET	QUANT	0	Vch Offset (V)
VCHFILTER	IQUANT	1	Vch Filter
ACHRANGE	IQUANT	2	Ach Range
ACHOFFSETENABLE	TOGGLE	F	Ach Offset Enable
ACHOFFSET	QUANT	0	Ach Offset (V)
ACHFILTER	IQUANT	1	Ach Filter
IERANGELOWERLIMIT	IQUANT	9	I/E Range Lower Limit
IERANGEMODE	TOGGLE	F	I/E AutoRange
IERANGE	IQUANT	9	I/E Range
POSFEEDENABLE	TOGGLE	F	Positive Feedback IR Comp
POSFEEDRESISTANCE	QUANT	0	Positive Feedback Resistance (ohm)
ACHSELECT	IQUANT	1	Ach Select
SENSECABLEID	IQUANT	13	Sense Cable ID
PWRCABLEID	IQUANT	13	Power Cable ID
DCCALDATE	LABEL		DC Calibration Date
ACCALDATE	LABEL		AC Calibration Date
THERMOSELECT	IQUANT	1	Thermo Select
FRAMEWORKVERSION	LABEL	7.8.6	Framework Version
INSTRUMENTVERSION	LABEL	4.50	Instrument Version
COMPLIANCEVOLTAGE	IQUANT	0	Compliance Voltage
CURVE	TABLE	167
	Pt	T	Vf	Im	Vu	Pwr	Sig	Ach	Temp	IERange	Over	Vf1	Vf2	Vf3	Vf4	Vf5	Vf6	Vf7	Vf8	Pwr1	Pwr2	Pwr3	Pwr4	Pwr5	Pwr6	Pwr7	Pwr8
	#	s	V	A	V	W	V	V	deg C	#	bits	V	V	V	V	V	V	V	V	W	W	W	W	W	W	W	W
	0	1	3.44493E-001	-1.00091E-001	0.00000E+000	-3.44808E-002	-9.94000E-001	3.25885E-002	2.69405E+001	11	...........	5.40872E-002	-3.40986E-003	5.57054E-001	6.60840E-001	-3.01008E-002	-3.93631E-002	6.42617E-001	-4.30857E-002	-5.41367E-003	3.41298E-004	-5.57563E-002	-6.61445E-002	3.01284E-003	3.93991E-003	-6.43205E-002	4.31251E-003
	1	2	2.51545E-001	-1.00092E-001	0.00000E+000	-2.51777E-002	-9.94000E-001	3.27460E-002	2.72726E+001	11	...........	5.43668E-002	-3.58528E-003	5.56837E-001	6.60773E-001	-3.00789E-002	-3.93662E-002	6.42706E-001	-4.31387E-002	-5.44169E-003	3.58858E-004	-5.57350E-002	-6.61382E-002	3.01066E-003	3.94025E-003	-6.43298E-002	4.31785E-003
	2	3	1.76504E-001	-1.00092E-001	0.00000E+000	-1.76667E-002	-9.94000E-001	3.26407E-002	2.67580E+001	11	...........	5.42103E-002	-3.66375E-003	5.56863E-001	6.60876E-001	-3.00965E-002	-3.93907E-002	6.42617E-001	-4.31653E-002	-5.42603E-003	3.66713E-004	-5.57377E-002	-6.61486E-002	3.01243E-003	3.94271E-003	-6.43210E-002	4.32051E-003
	3	4	1.11029E-001	-1.00092E-001	0.00000E+000	-1.11132E-002	-9.94000E-001	3.26692E-002	2.61709E+001	11	...........	5.42446E-002	-3.64889E-003	5.56871E-001	6.60976E-001	-3.00961E-002	-3.93942E-002	6.42637E-001	-4.30729E-002	-5.42947E-003	3.65226E-004	-5.57385E-002	-6.61586E-002	3.01239E-003	3.94305E-003	-6.43231E-002	4.31127E-003
	4	4.56833	6.54259E-002	-1.00092E-001	0.00000E+000	-6.54860E-003	-9.94000E-001	3.25692E-002	2.56881E+001	11	...........	5.40765E-002	-3.61999E-003	5.56846E-001	6.60911E-001	-3.00880E-002	-3.94076E-002	6.42629E-001	-4.30259E-002	-5.41261E-003	3.62331E-004	-5.57358E-002	-6.61518E-002	3.01156E-003	3.94438E-003	-6.43219E-002	4.30654E-003
	5	5	4.94828E-002	-9.04623E-002	0.00000E+000	-4.47633E-003	-8.98252E-001	3.26855E-002	2.58851E+001	11	...........	5.42844E-002	-3.66023E-003	5.56916E-001	6.60914E-001	-3.00862E-002	-3.93983E-002	6.42669E-001	-4.30016E-002	-4.91069E-003	3.31113E-004	-5.03799E-002	-5.97878E-002	2.72167E-003	3.56406E-003	-5.81373E-002	3.89002E-003
	6	6	4.97245E-002	-7.20209E-002	0.00000E+000	-3.58120E-003	-7.14921E-001	3.27702E-002	2.64579E+001	11	...........	5.44147E-002	-3.73917E-003	5.56746E-001	6.60891E-001	-3.00958E-002	-3.94187E-002	6.42710E-001	-4.29918E-002	-3.91899E-003	2.69298E-004	-4.00974E-002	-4.75979E-002	2.16753E-003	2.83897E-003	-4.62885E-002	3.09631E-003
	7	7	4.98255E-002	-5.80412E-002	0.00000E+000	-2.89193E-003	-5.75935E-001	3.28887E-002	2.66933E+001	11	...........	5.46176E-002	-3.84333E-003	5.56865E-001	6.60861E-001	-3.01010E-002	-3.93944E-002	6.42829E-001	-4.30122E-002	-3.17008E-003	2.23072E-004	-3.23211E-002	-3.83572E-002	1.74710E-003	2.28650E-003	-3.73106E-002	2.49648E-003
	8	8	4.99151E-002	-5.02827E-002	0.00000E+000	-2.50987E-003	-4.98802E-001	3.29546E-002	2.74644E+001	11	...........	5.47401E-002	-3.83361E-003	5.56870E-001	6.60925E-001	-3.00862E-002	-3.94132E-002	6.42787E-001	-4.30996E-002	-2.75248E-003	1.92764E-004	-2.80009E-002	-3.32331E-002	1.51282E-003	1.98180E-003	-3.23211E-002	2.16716E-003
	9	9	4.99183E-002	-4.56356E-002	0.00000E+000	-2.27805E-003	-4.52602E-001	3.30094E-002	2.77687E+001	11	...........	5.48106E-002	-3.72528E-003	5.56853E-001	6.60978E-001	-3.00754E-002	-3.94129E-002	6.42635E-001	-4.30346E-002	-2.50131E-003	1.70005E-004	-2.54123E-002	-3.01641E-002	1.37251E-003	1.79863E-003	-2.93270E-002	1.96391E-003
	10	10	4.99339E-002	-4.17681E-002	0.00000E+000	-2.08564E-003	-4.14149E-001	3.29604E-002	2.75981E+001	11	...........	5.47331E-002	-3.64708E-003	5.56717E-001	6.61122E-001	-3.00658E-002	-3.94185E-002	6.42751E-001	-4.31244E-002	-2.28609E-003	1.52332E-004	-2.32530E-002	-2.76138E-002	1.25579E-003	1.64643E-003	-2.68465E-002	1.80122E-003
	11	11	4.99588E-002	-3.95221E-002	0.00000E+000	-1.97448E-003	-3.91836E-001	3.30728E-002	2.77108E+001	11	...........	5.49297E-002	-3.62319E-003	5.56665E-001	6.61025E-001	-3.00574E-002	-3.94343E-002	6.42803E-001	-4.31137E-002	-2.17094E-003	1.43196E-004	-2.20006E-002	-2.61251E-002	1.18793E-003	1.55853E-003	-2.54049E-002	1.70395E-003
	12	12	4.99474E-002	-3.80977E-002	0.00000E+000	-1.90288E-003	-3.77678E-001	3.31180E-002	2.83205E+001	11	...........	5.49962E-002	-3.73472E-003	5.56791E-001	6.61111E-001	-3.00043E-002	-3.94244E-002	6.42859E-001	-4.30415E-002	-2.09523E-003	1.42284E-004	-2.12124E-002	-2.51868E-002	1.14309E-003	1.50198E-003	-2.44914E-002	1.63978E-003
	13	13	4.99324E-002	-3.64293E-002	0.00000E+000	-1.81900E-003	-3.61077E-001	3.31646E-002	2.78706E+001	11	...........	5.50953E-002	-3.77875E-003	5.56842E-001	6.61185E-001	-3.00206E-002	-3.94332E-002	6.42877E-001	-4.29794E-002	-2.00708E-003	1.37657E-004	-2.02853E-002	-2.40865E-002	1.09363E-003	1.43652E-003	-2.34195E-002	1.56571E-003
	14	14	4.99788E-002	-3.48695E-002	0.00000E+000	-1.74274E-003	-3.45578E-001	3.31672E-002	2.79695E+001	11	...........	5.50862E-002	-3.84778E-003	5.56925E-001	6.61177E-001	-3.00242E-002	-3.94371E-002	6.42948E-001	-4.30082E-002	-1.92083E-003	1.34170E-004	-1.94197E-002	-2.30549E-002	1.04693E-003	1.37515E-003	-2.24193E-002	1.49968E-003
	15	15	4.99640E-002	-3.45912E-002	0.00000E+000	-1.72832E-003	-3.42793E-001	3.32457E-002	2.84979E+001	11	...........	5.52387E-002	-3.85361E-003	5.56927E-001	6.61023E-001	-3.00486E-002	-3.94226E-002	6.42870E-001	-4.29929E-002	-1.91078E-003	1.33301E-004	-1.92648E-002	-2.28656E-002	1.03942E-003	1.36368E-003	-2.22377E-002	1.48718E-003
	16	16	4.99601E-002	-3.38316E-002	0.00000E+000	-1.69023E-003	-3.35236E-001	3.33153E-002	2.85013E+001	11	...........	5.53537E-002	-3.84264E-003	5.56944E-001	6.61043E-001	-3.00618E-002	-3.94200E-002	6.42818E-001	-4.29360E-002	-1.87271E-003	1.30003E-004	-1.88423E-002	-2.23642E-002	1.01704E-003	1.33364E-003	-2.17476E-002	1.45259E-003
	17	17	4.99575E-002	-3.26822E-002	0.00000E+000	-1.63272E-003	-3.23818E-001	3.32188E-002	2.84215E+001	11	...........	5.51697E-002	-3.87542E-003	5.56899E-001	6.60855E-001	-3.00640E-002	-3.94174E-002	6.42835E-001	-4.29246E-002	-1.80307E-003	1.26657E-004	-1.82007E-002	-2.15982E-002	9.82557E-004	1.28824E-003	-2.10093E-002	1.40287E-003
	18	18	4.99767E-002	-3.21545E-002	0.00000E+000	-1.60698E-003	-3.18561E-001	3.32843E-002	2.85708E+001	11	...........	5.53058E-002	-3.92431E-003	5.56845E-001	6.60855E-001	-3.00336E-002	-3.94199E-002	6.42864E-001	-4.29026E-002	-1.77833E-003	1.26184E-004	-1.79051E-002	-2.12495E-002	9.65717E-004	1.26753E-003	-2.06710E-002	1.37951E-003
	19	19	4.99676E-002	-3.16027E-002	0.00000E+000	-1.57911E-003	-3.13070E-001	3.33381E-002	2.87102E+001	11	...........	5.53921E-002	-3.84028E-003	5.56873E-001	6.60847E-001	-2.99904E-002	-3.94062E-002	6.42963E-001	-4.29315E-002	-1.75054E-003	1.21363E-004	-1.75987E-002	-2.08845E-002	9.47778E-004	1.24534E-003	-2.03193E-002	1.35675E-003
	20	20	4.99523E-002	-3.07712E-002	0.00000E+000	-1.53709E-003	-3.04828E-001	3.32256E-002	2.85271E+001	11	...........	5.53364E-002	-3.70014E-003	5.56936E-001	6.60806E-001	-2.99849E-002	-3.94001E-002	6.43022E-001	-4.29585E-002	-1.70277E-003	1.13858E-004	-1.71376E-002	-2.03338E-002	9.22669E-004	1.21239E-003	-1.97865E-002	1.32188E-003
	21	21	4.99831E-002	-3.03804E-002	0.00000E+000	-1.51851E-003	-3.00952E-001	3.33070E-002	2.86818E+001	11	...........	5.55642E-002	-3.68056E-003	5.56966E-001	6.60773E-001	-3.00167E-002	-3.94042E-002	6.42915E-001	-4.31033E-002	-1.68806E-003	1.11817E-004	-1.69208E-002	-2.00746E-002	9.11918E-004	1.19711E-003	-1.95320E-002	1.30950E-003
	22	22	4.99564E-002	-2.99540E-002	0.00000E+000	-1.49640E-003	-2.96718E-001	3.31792E-002	2.85108E+001	11	...........	5.53526E-002	-3.68722E-003	5.56956E-001	6.60761E-001	-3.00524E-002	-3.94153E-002	6.42887E-001	-4.30951E-002	-1.65803E-003	1.10447E-004	-1.66831E-002	-1.97925E-002	9.00189E-004	1.18065E-003	-1.92571E-002	1.29087E-003
	23	23	4.99743E-002	-2.95258E-002	0.00000E+000	-1.47553E-003	-2.92450E-001	3.32909E-002	2.86348E+001	11	...........	5.55458E-002	-3.72528E-003	5.56819E-001	6.60801E-001	-3.00568E-002	-3.94087E-002	6.42841E-001	-4.30801E-002	-1.64004E-003	1.09992E-004	-1.64405E-002	-1.95107E-002	8.87452E-004	1.16358E-003	-1.89804E-002	1.27198E-003
	24	24	4.99606E-002	-2.86555E-002	0.00000E+000	-1.43164E-003	-2.83793E-001	3.32706E-002	2.88267E+001	11	...........	5.55089E-002	-3.68347E-003	5.56956E-001	6.60902E-001	-3.00397E-002	-3.93950E-002	6.42912E-001	-4.31258E-002	-1.59063E-003	1.05552E-004	-1.59598E-002	-1.89385E-002	8.60802E-004	1.12888E-003	-1.84230E-002	1.23579E-003
	25	25	4.99630E-002	-2.81334E-002	0.00000E+000	-1.40563E-003	-2.78601E-001	3.32750E-002	2.83059E+001	11	...........	5.54992E-002	-3.79736E-003	5.57132E-001	6.60906E-001	-3.00312E-002	-3.94137E-002	6.42778E-001	-4.30953E-002	-1.56138E-003	1.06833E-004	-1.56740E-002	-1.85935E-002	8.44881E-004	1.10884E-003	-1.80835E-002	1.21242E-003
	26	26	4.99656E-002	-2.79524E-002	0.00000E+000	-1.39666E-003	-2.76803E-001	3.34178E-002	2.88013E+001	11	...........	5.57506E-002	-3.82653E-003	5.57010E-001	6.60818E-001	-3.00476E-002	-3.94168E-002	6.42869E-001	-4.30036E-002	-1.55836E-003	1.06960E-004	-1.55697E-002	-1.84714E-002	8.39902E-004	1.10179E-003	-1.79697E-002	1.20205E-003
	27	27	4.99684E-002	-2.71246E-002	0.00000E+000	-1.35537E-003	-2.68567E-001	3.32552E-002	2.85274E+001	11	...........	5.54610E-002	-3.79014E-003	5.57129E-001	6.60815E-001	-3.00499E-002	-3.94222E-002	6.42707E-001	-4.29403E-002	-1.50435E-003	1.02806E-004	-1.51119E-002	-1.79243E-002	8.15089E-004	1.06931E-003	-1.74331E-002	1.16474E-003
	28	28	4.99752E-002	-2.69565E-002	0.00000E+000	-1.34716E-003	-2.66890E-001	3.34448E-002	2.89756E+001	11	...........	5.58019E-002	-3.80014E-003	5.57196E-001	6.60923E-001	-3.00510E-002	-3.94069E-002	6.42714E-001	-4.30112E-002	-1.50423E-003	1.02439E-004	-1.50201E-002	-1.78162E-002	8.10070E-004	1.06227E-003	-1.73253E-002	1.15943E-003
	29	29	4.99633E-002	-2.67783E-002	0.00000E+000	-1.33793E-003	-2.65122E-001	3.33952E-002	2.90518E+001	11	...........	5.57175E-002	-3.82042E-003	5.57155E-001	6.60920E-001	-3.00335E-002	-3.94154E-002	6.42700E-001	-4.30071E-002	-1.49202E-003	1.02304E-004	-1.49196E-002	-1.76983E-002	8.04245E-004	1.05548E-003	-1.72104E-002	1.15166E-003
	30	30	4.99639E-002	-2.62521E-002	0.00000E+000	-1.31166E-003	-2.59884E-001	3.34317E-002	2.87257E+001	11	...........	5.57901E-002	-3.77278E-003	5.57218E-001	6.60846E-001	-3.00322E-002	-3.94249E-002	6.42782E-001	-4.31337E-002	-1.46461E-003	9.90434E-005	-1.46282E-002	-1.73486E-002	7.88410E-004	1.03499E-003	-1.68744E-002	1.13235E-003
	31	31	4.99705E-002	-2.55659E-002	0.00000E+000	-1.27754E-003	-2.53067E-001	3.34583E-002	2.88892E+001	11	...........	5.58368E-002	-3.82875E-003	5.57284E-001	6.60702E-001	-3.00486E-002	-3.94397E-002	6.42828E-001	-4.30449E-002	-1.42752E-003	9.78855E-005	-1.42475E-002	-1.68915E-002	7.68220E-004	1.00831E-003	-1.64345E-002	1.10048E-003
	32	32	4.99706E-002	-2.54759E-002	0.00000E+000	-1.27305E-003	-2.52177E-001	3.33312E-002	2.86454E+001	11	...........	5.56044E-002	-3.89889E-003	5.57265E-001	6.60594E-001	-3.00943E-002	-3.94550E-002	6.42880E-001	-4.29511E-002	-1.41658E-003	9.93279E-005	-1.41969E-002	-1.68293E-002	7.66681E-004	1.00515E-003	-1.63780E-002	1.09422E-003
	33	33	4.99690E-002	-2.48971E-002	0.00000E+000	-1.24408E-003	-2.46421E-001	3.34875E-002	2.87785E+001	11	...........	5.58825E-002	-3.84319E-003	5.57210E-001	6.60599E-001	-3.01032E-002	-3.94419E-002	6.42877E-001	-4.28832E-002	-1.39131E-003	9.56843E-005	-1.38729E-002	-1.64470E-002	7.49481E-004	9.81989E-004	-1.60058E-002	1.06767E-003
	34	34	4.99652E-002	-2.44476E-002	0.00000E+000	-1.22153E-003	-2.41948E-001	3.33612E-002	2.89825E+001	11	...........	5.56592E-002	-3.82347E-003	5.57175E-001	6.60606E-001	-3.00967E-002	-3.94253E-002	6.42722E-001	-4.29451E-002	-1.36073E-003	9.34745E-005	-1.36216E-002	-1.61502E-002	7.35790E-004	9.63852E-004	-1.57130E-002	1.04990E-003
	35	35	4.99706E-002	-2.39754E-002	0.00000E+000	-1.19807E-003	-2.37235E-001	3.36179E-002	2.90656E+001	11	...........	5.60939E-002	-3.78792E-003	5.57180E-001	6.60523E-001	-3.00936E-002	-3.93964E-002	6.42687E-001	-4.30562E-002	-1.34487E-003	9.08167E-005	-1.33586E-002	-1.58363E-002	7.21506E-004	9.44543E-004	-1.54087E-002	1.03229E-003
	36	36	4.99706E-002	-2.37888E-002	0.00000E+000	-1.18874E-003	-2.35384E-001	3.34337E-002	2.92719E+001	11	...........	5.57836E-002	-3.82000E-003	5.57016E-001	6.60618E-001	-3.00847E-002	-3.94071E-002	6.42618E-001	-4.29614E-002	-1.32702E-003	9.08732E-005	-1.32507E-002	-1.57153E-002	7.15679E-004	9.37447E-004	-1.52871E-002	1.02200E-003
	37	37	4.99678E-002	-2.35506E-002	0.00000E+000	-1.17677E-003	-2.33017E-001	3.36082E-002	2.89602E+001	11	...........	5.60768E-002	-3.78250E-003	5.57174E-001	6.60629E-001	-3.00867E-002	-3.94010E-002	6.42695E-001	-4.30112E-002	-1.32064E-003	8.90800E-005	-1.31218E-002	-1.55582E-002	7.08558E-004	9.27915E-004	-1.51358E-002	1.01294E-003
	38	38	4.99668E-002	-2.29883E-002	0.00000E+000	-1.14865E-003	-2.27441E-001	3.34592E-002	2.92297E+001	11	...........	5.58361E-002	-3.62972E-003	5.57349E-001	6.60639E-001	-3.01056E-002	-3.93883E-002	6.42796E-001	-4.31271E-002	-1.28358E-003	8.34413E-005	-1.28125E-002	-1.51870E-002	6.92077E-004	9.05472E-004	-1.47768E-002	9.91420E-004
	39	39	4.99684E-002	-2.26332E-002	0.00000E+000	-1.13094E-003	-2.23906E-001	3.34605E-002	2.90251E+001	11	...........	5.58101E-002	-3.64917E-003	5.57306E-001	6.60632E-001	-3.01181E-002	-3.93982E-002	6.42799E-001	-4.31790E-002	-1.26316E-003	8.25922E-005	-1.26136E-002	-1.49522E-002	6.81667E-004	8.91706E-004	-1.45486E-002	9.77278E-004
	40	40	4.99722E-002	-2.25166E-002	0.00000E+000	-1.12520E-003	-2.22747E-001	3.36757E-002	2.94081E+001	11	...........	5.61876E-002	-3.61347E-003	5.57244E-001	6.60643E-001	-3.00989E-002	-3.93906E-002	6.42752E-001	-4.30222E-002	-1.26515E-003	8.13631E-005	-1.25472E-002	-1.48754E-002	6.77725E-004	8.86941E-004	-1.44726E-002	9.68714E-004
	41	41	4.99656E-002	-2.22487E-002	0.00000E+000	-1.11167E-003	-2.20084E-001	3.35980E-002	2.95109E+001	11	...........	5.60735E-002	-3.72556E-003	5.57235E-001	6.60697E-001	-3.00815E-002	-3.93724E-002	6.42862E-001	-4.29840E-002	-1.24756E-003	8.28887E-005	-1.23977E-002	-1.46997E-002	6.69275E-004	8.75983E-004	-1.43028E-002	9.56338E-004
	42	42	4.99664E-002	-2.17063E-002	0.00000E+000	-1.08458E-003	-2.14680E-001	3.35778E-002	2.93147E+001	11	...........	5.60200E-002	-3.82556E-003	5.57282E-001	6.60749E-001	-3.00626E-002	-3.93511E-002	6.42734E-001	-4.31456E-002	-1.21599E-003	8.30386E-005	-1.20965E-002	-1.43424E-002	6.52548E-004	8.54166E-004	-1.39514E-002	9.36530E-004
	43	43	4.99754E-002	-2.14152E-002	0.00000E+000	-1.07024E-003	-2.11786E-001	3.35531E-002	2.89364E+001	11	...........	5.59740E-002	-3.64583E-003	5.57320E-001	6.60751E-001	-3.00803E-002	-3.93454E-002	6.42748E-001	-4.30481E-002	-1.19870E-003	7.80764E-005	-1.19351E-002	-1.41501E-002	6.44176E-004	8.42592E-004	-1.37646E-002	9.21885E-004
	44	44	4.99608E-002	-2.11419E-002	0.00000E+000	-1.05627E-003	-2.09060E-001	3.37542E-002	2.95385E+001	11	...........	5.63207E-002	-3.68000E-003	5.57334E-001	6.60788E-001	-3.00957E-002	-3.93221E-002	6.42662E-001	-4.30912E-002	-1.19073E-003	7.78023E-005	-1.17831E-002	-1.39703E-002	6.36281E-004	8.31344E-004	-1.35871E-002	9.11032E-004
	45	45	4.99720E-002	-2.05353E-002	0.00000E+000	-1.02619E-003	-2.03047E-001	3.35408E-002	2.90978E+001	11	...........	5.59799E-002	-3.80042E-003	5.57322E-001	6.60739E-001	-3.01165E-002	-3.93065E-002	6.42664E-001	-4.31611E-002	-1.14956E-003	7.80428E-005	-1.14448E-002	-1.35685E-002	6.18453E-004	8.07173E-004	-1.31973E-002	8.86328E-004
	46	46	4.99637E-002	-1.96989E-002	0.00000E+000	-9.84231E-004	-1.94741E-001	3.36062E-002	2.80437E+001	11	...........	5.60587E-002	-3.77764E-003	5.57218E-001	6.60663E-001	-3.01375E-002	-3.93099E-002	6.42682E-001	-4.30567E-002	-1.10430E-003	7.44153E-005	-1.09766E-002	-1.30143E-002	5.93676E-004	7.74361E-004	-1.26601E-002	8.48169E-004
	47	47	4.99693E-002	-1.95925E-002	0.00000E+000	-9.79024E-004	-1.93674E-001	3.35955E-002	2.94038E+001	11	...........	5.60482E-002	-3.65708E-003	5.57222E-001	6.60686E-001	-3.01585E-002	-3.93362E-002	6.42750E-001	-4.29986E-002	-1.09812E-003	7.16514E-005	-1.09174E-002	-1.29445E-002	5.90880E-004	7.70696E-004	-1.25931E-002	8.42451E-004
	48	48	4.99729E-002	-1.96781E-002	0.00000E+000	-9.83373E-004	-1.94537E-001	3.37896E-002	2.93687E+001	11	...........	5.63615E-002	-3.69917E-003	5.57316E-001	6.60791E-001	-3.01324E-002	-3.93525E-002	6.42765E-001	-4.29328E-002	-1.10909E-003	7.27926E-005	-1.09669E-002	-1.30031E-002	5.92948E-004	7.74383E-004	-1.26484E-002	8.44836E-004
	49	49	4.99682E-002	-1.92867E-002	0.00000E+000	-9.63721E-004	-1.90632E-001	3.36526E-002	2.89066E+001	11	...........	5.61565E-002	-3.65264E-003	5.57294E-001	6.60861E-001	-3.01406E-002	-3.93579E-002	6.42758E-001	-4.29031E-002	-1.08307E-003	7.04474E-005	-1.07484E-002	-1.27458E-002	5.81312E-004	7.59085E-004	-1.23967E-002	8.27459E-004
	50	50	4.99715E-002	-1.91396E-002	0.00000E+000	-9.56433E-004	-1.89160E-001	3.37685E-002	2.96302E+001	11	...........	5.63350E-002	-3.72819E-003	5.57350E-001	6.60907E-001	-3.01089E-002	-3.93842E-002	6.42731E-001	-4.30097E-002	-1.07823E-003	7.13560E-005	-1.06674E-002	-1.26495E-002	5.76271E-004	7.53796E-004	-1.23016E-002	8.23188E-004
	51	51	4.99694E-002	-1.88428E-002	0.00000E+000	-9.41562E-004	-1.86207E-001	3.36836E-002	2.90343E+001	11	...........	5.61885E-002	-3.69667E-003	5.57400E-001	6.60966E-001	-3.01201E-002	-3.93761E-002	6.42725E-001	-4.30162E-002	-1.05875E-003	6.96555E-005	-1.05030E-002	-1.24544E-002	5.67547E-004	7.41955E-004	-1.21107E-002	8.10546E-004
	52	52	4.99742E-002	-1.84077E-002	0.00000E+000	-9.19910E-004	-1.81884E-001	3.39205E-002	2.90776E+001	11	...........	5.65589E-002	-3.72944E-003	5.57407E-001	6.61190E-001	-3.01121E-002	-3.93672E-002	6.42786E-001	-4.29796E-002	-1.04112E-003	6.86505E-005	-1.02606E-002	-1.21710E-002	5.54295E-004	7.24661E-004	-1.18322E-002	7.91156E-004
	53	53	4.99657E-002	-1.82718E-002	0.00000E+000	-9.12964E-004	-1.80538E-001	3.35982E-002	2.90630E+001	11	...........	5.60246E-002	-3.85514E-003	5.57450E-001	6.61047E-001	-3.01460E-002	-3.93551E-002	6.42661E-001	-4.29975E-002	-1.02367E-003	7.04404E-005	-1.01856E-002	-1.20785E-002	5.50822E-004	7.19090E-004	-1.17426E-002	7.85642E-004
	54	54	4.99657E-002	-1.78473E-002	0.00000E+000	-8.91752E-004	-1.76326E-001	3.38076E-002	2.89186E+001	11	...........	5.64019E-002	-3.81000E-003	5.57401E-001	6.60883E-001	-3.01221E-002	-3.93600E-002	6.42724E-001	-4.29960E-002	-1.00662E-003	6.79981E-005	-9.94809E-003	-1.17950E-002	5.37597E-004	7.02468E-004	-1.14709E-002	7.67361E-004
	55	55	4.99779E-002	-1.77846E-002	0.00000E+000	-8.88836E-004	-1.75700E-001	3.37672E-002	2.96112E+001	11	...........	5.63032E-002	-3.77431E-003	5.57320E-001	6.60858E-001	-3.01297E-002	-3.93535E-002	6.42706E-001	-4.29707E-002	-1.00133E-003	6.71244E-005	-9.91169E-003	-1.17531E-002	5.35844E-004	6.99884E-004	-1.14303E-002	7.64215E-004
	56	56	4.99694E-002	-1.77853E-002	0.00000E+000	-8.88721E-004	-1.75700E-001	3.37963E-002	2.95895E+001	11	...........	5.63908E-002	-3.89653E-003	5.57298E-001	6.60845E-001	-3.01161E-002	-3.93110E-002	6.42729E-001	-4.29408E-002	-1.00293E-003	6.93009E-005	-9.91172E-003	-1.17533E-002	5.35624E-004	6.99158E-004	-1.14311E-002	7.63716E-004
	57	57	4.99663E-002	-1.74530E-002	0.00000E+000	-8.72061E-004	-1.72390E-001	3.37940E-002	2.97481E+001	11	...........	5.63943E-002	-3.76569E-003	5.57334E-001	6.60834E-001	-3.01190E-002	-3.93324E-002	6.42660E-001	-4.29003E-002	-9.84249E-004	6.57226E-005	-9.72714E-003	-1.15335E-002	5.25667E-004	6.86467E-004	-1.12163E-002	7.48738E-004
	58	58	4.99714E-002	-1.70863E-002	0.00000E+000	-8.53825E-004	-1.68749E-001	3.37898E-002	2.96336E+001	11	...........	5.63608E-002	-3.77319E-003	5.57386E-001	6.60938E-001	-3.01094E-002	-3.93299E-002	6.42662E-001	-4.30185E-002	-9.62996E-004	6.44698E-005	-9.52365E-003	-1.12930E-002	5.14458E-004	6.72000E-004	-1.09807E-002	7.35025E-004
	59	59	4.99684E-002	-1.66691E-002	0.00000E+000	-8.32927E-004	-1.64594E-001	3.38012E-002	2.95493E+001	11	...........	5.63851E-002	-3.65889E-003	5.57451E-001	6.61168E-001	-3.00969E-002	-3.93385E-002	6.42675E-001	-4.29546E-002	-9.39888E-004	6.09903E-005	-9.29220E-003	-1.10211E-002	5.01688E-004	6.55736E-004	-1.07128E-002	7.16013E-004
	60	60	4.99723E-002	-1.65443E-002	0.00000E+000	-8.26754E-004	-1.63352E-001	3.38845E-002	2.95837E+001	11	...........	5.65265E-002	-3.59042E-003	5.57379E-001	6.61113E-001	-3.00803E-002	-3.93137E-002	6.42802E-001	-4.30108E-002	-9.35190E-004	5.94008E-005	-9.22143E-003	-1.09376E-002	4.97656E-004	6.50417E-004	-1.06347E-002	7.11583E-004
	61	61	4.99742E-002	-1.63786E-002	0.00000E+000	-8.18506E-004	-1.61700E-001	3.37919E-002	2.97335E+001	11	...........	5.64122E-002	-3.61833E-003	5.57520E-001	6.61138E-001	-3.00531E-002	-3.93090E-002	6.42682E-001	-4.29483E-002	-9.23951E-004	5.92631E-005	-9.13138E-003	-1.08285E-002	4.92226E-004	6.43825E-004	-1.05262E-002	7.03432E-004
	62	62	4.99626E-002	-1.60762E-002	0.00000E+000	-8.03208E-004	-1.58691E-001	3.38013E-002	2.96558E+001	11	...........	5.63928E-002	-3.73181E-003	5.57580E-001	6.61138E-001	-3.00299E-002	-3.93243E-002	6.42741E-001	-4.30404E-002	-9.06580E-004	5.99932E-005	-8.96375E-003	-1.06286E-002	4.82765E-004	6.32184E-004	-1.03328E-002	6.91925E-004
	63	63	4.99733E-002	-1.59574E-002	0.00000E+000	-7.97443E-004	-1.57506E-001	3.38911E-002	2.93028E+001	11	...........	5.65360E-002	-3.73167E-003	5.57588E-001	6.61193E-001	-3.00318E-002	-3.93239E-002	6.42749E-001	-4.30454E-002	-9.02166E-004	5.95476E-005	-8.89764E-003	-1.05509E-002	4.79229E-004	6.27506E-004	-1.02566E-002	6.86892E-004
	64	64	4.99699E-002	-1.55876E-002	0.00000E+000	-7.78912E-004	-1.53839E-001	3.38691E-002	2.92667E+001	11	...........	5.65112E-002	-3.85833E-003	5.57603E-001	6.61242E-001	-3.00275E-002	-3.93425E-002	6.42761E-001	-4.29917E-002	-8.80876E-004	6.01423E-005	-8.69171E-003	-1.03072E-002	4.68057E-004	6.13256E-004	-1.00191E-002	6.70138E-004
	65	65	4.99718E-002	-1.55543E-002	0.00000E+000	-7.77275E-004	-1.53512E-001	3.39430E-002	3.02209E+001	11	...........	5.66172E-002	-3.92250E-003	5.57618E-001	6.61211E-001	-3.00274E-002	-3.93233E-002	6.42773E-001	-4.29504E-002	-8.80640E-004	6.10116E-005	-8.67335E-003	-1.02847E-002	4.67054E-004	6.11646E-004	-9.99787E-003	6.68062E-004
	66	66	4.99677E-002	-1.52793E-002	0.00000E+000	-7.63472E-004	-1.50774E-001	3.39160E-002	2.96155E+001	11	...........	5.65692E-002	-3.89097E-003	5.57643E-001	6.61009E-001	-3.00165E-002	-3.93157E-002	6.42722E-001	-4.30682E-002	-8.64337E-004	5.94513E-005	-8.52040E-003	-1.00998E-002	4.58631E-004	6.00716E-004	-9.82034E-003	6.58052E-004
	67	67	4.99691E-002	-1.48981E-002	0.00000E+000	-7.44446E-004	-1.46985E-001	3.37740E-002	2.94955E+001	11	...........	5.63260E-002	-3.88222E-003	5.57672E-001	6.61075E-001	-2.99994E-002	-3.93253E-002	6.42702E-001	-4.31117E-002	-8.39151E-004	5.78378E-005	-8.30826E-003	-9.84876E-003	4.46935E-004	5.85872E-004	-9.57504E-003	6.42282E-004
	68	68	4.99731E-002	-1.47900E-002	0.00000E+000	-7.39102E-004	-1.45907E-001	3.40125E-002	2.96992E+001	11	...........	5.67378E-002	-3.85819E-003	5.57785E-001	6.61103E-001	-3.00001E-002	-3.93107E-002	6.42690E-001	-4.30128E-002	-8.39152E-004	5.70627E-005	-8.24964E-003	-9.77771E-003	4.43702E-004	5.81405E-004	-9.50538E-003	6.36159E-004
	69	69	4.99731E-002	-1.46747E-002	0.00000E+000	-7.33341E-004	-1.44775E-001	3.38426E-002	2.97803E+001	11	...........	5.64532E-002	-3.87986E-003	5.58009E-001	6.61022E-001	-3.00235E-002	-3.93299E-002	6.42538E-001	-4.30512E-002	-8.28435E-004	5.69359E-005	-8.18863E-003	-9.70030E-003	4.40586E-004	5.77155E-004	-9.42906E-003	6.31765E-004
	70	70	4.99669E-002	-1.44102E-002	0.00000E+000	-7.20030E-004	-1.42135E-001	3.39447E-002	2.96934E+001	11	...........	5.66244E-002	-3.84042E-003	5.58053E-001	6.61031E-001	-3.00417E-002	-3.93060E-002	6.42613E-001	-4.30057E-002	-8.15967E-004	5.53410E-005	-8.04163E-003	-9.52556E-003	4.32905E-004	5.66405E-004	-9.26015E-003	6.19719E-004
	71	71	4.99757E-002	-1.42167E-002	0.00000E+000	-7.10487E-004	-1.40203E-001	3.40222E-002	2.94703E+001	11	...........	5.67419E-002	-3.88611E-003	5.58074E-001	6.60974E-001	-3.00651E-002	-3.93042E-002	6.42617E-001	-4.29219E-002	-8.06681E-004	5.52475E-005	-7.93395E-003	-9.39685E-003	4.27426E-004	5.58774E-004	-9.13587E-003	6.10207E-004
	72	72	4.99679E-002	-1.40397E-002	0.00000E+000	-7.01535E-004	-1.38436E-001	3.38972E-002	3.01383E+001	11	...........	5.65375E-002	-3.82167E-003	5.57957E-001	6.61076E-001	-3.00997E-002	-3.93324E-002	6.42686E-001	-4.29461E-002	-7.93770E-004	5.36551E-005	-7.83356E-003	-9.28132E-003	4.22591E-004	5.52215E-004	-9.02313E-003	6.02951E-004
	73	73	4.99677E-002	-1.37781E-002	0.00000E+000	-6.88462E-004	-1.35833E-001	3.39902E-002	2.99363E+001	11	...........	5.66911E-002	-3.83458E-003	5.57881E-001	6.61134E-001	-3.00906E-002	-3.93339E-002	6.42629E-001	-4.30401E-002	-7.81097E-004	5.28334E-005	-7.68656E-003	-9.10919E-003	4.14592E-004	5.41947E-004	-8.85423E-003	5.93013E-004
	74	74	4.99728E-002	-1.35280E-002	0.00000E+000	-6.76030E-004	-1.33340E-001	3.39773E-002	2.96443E+001	11	...........	5.66757E-002	-3.87917E-003	5.58015E-001	6.61002E-001	-3.00740E-002	-3.93132E-002	6.42626E-001	-4.31926E-002	-7.66707E-004	5.24772E-005	-7.54881E-003	-8.94201E-003	4.06840E-004	5.31827E-004	-8.69342E-003	5.84308E-004
	75	75	4.99716E-002	-1.33739E-002	0.00000E+000	-6.68313E-004	-1.31808E-001	3.39402E-002	3.01627E+001	11	...........	5.66179E-002	-3.82653E-003	5.58005E-001	6.61088E-001	-3.01071E-002	-3.93297E-002	6.42599E-001	-4.29964E-002	-7.57201E-004	5.11755E-005	-7.46269E-003	-8.84131E-003	4.02648E-004	5.25991E-004	-8.59404E-003	5.75028E-004
	76	76	4.99682E-002	-1.33821E-002	0.00000E+000	-6.68679E-004	-1.31895E-001	3.40276E-002	2.96121E+001	11	...........	5.67561E-002	-3.88278E-003	5.57883E-001	6.61139E-001	-3.01171E-002	-3.93269E-002	6.42559E-001	-4.29967E-002	-7.59516E-004	5.19597E-005	-7.46564E-003	-8.84743E-003	4.03030E-004	5.26277E-004	-8.59879E-003	5.75385E-004
	77	77	4.99762E-002	-1.29704E-002	0.00000E+000	-6.48210E-004	-1.27810E-001	3.39954E-002	2.96887E+001	11	...........	5.66954E-002	-3.75083E-003	5.57890E-001	6.61270E-001	-3.01086E-002	-3.93137E-002	6.42502E-001	-4.29131E-002	-7.35361E-004	4.86497E-005	-7.23604E-003	-8.57692E-003	3.90520E-004	5.09914E-004	-8.33349E-003	5.56598E-004
	78	78	4.99685E-002	-1.29096E-002	0.00000E+000	-6.45072E-004	-1.27203E-001	3.39556E-002	2.99018E+001	11	...........	5.66340E-002	-3.67319E-003	5.58039E-001	6.61330E-001	-3.01157E-002	-3.92997E-002	6.42603E-001	-4.30821E-002	-7.31121E-004	4.74194E-005	-7.20404E-003	-8.53749E-003	3.88781E-004	5.07343E-004	-8.29573E-003	5.56171E-004
	79	79	4.99709E-002	-1.27856E-002	0.00000E+000	-6.38909E-004	-1.25977E-001	3.40743E-002	3.01187E+001	11	...........	5.68254E-002	-3.80431E-003	5.57943E-001	6.61282E-001	-3.01140E-002	-3.93107E-002	6.42524E-001	-4.31943E-002	-7.26548E-004	4.86404E-005	-7.13365E-003	-8.45490E-003	3.85027E-004	5.02612E-004	-8.21507E-003	5.52266E-004
	80	80	4.99677E-002	-1.24711E-002	0.00000E+000	-6.23154E-004	-1.22841E-001	3.40612E-002	2.98020E+001	11	...........	5.67910E-002	-3.85889E-003	5.57970E-001	6.61234E-001	-3.01332E-002	-3.93333E-002	6.42536E-001	-4.31081E-002	-7.08248E-004	4.81247E-005	-6.95852E-003	-8.24634E-003	3.75795E-004	4.90531E-004	-8.01316E-003	5.37606E-004
	81	81	4.99722E-002	-1.20086E-002	0.00000E+000	-6.00097E-004	-1.18247E-001	3.40654E-002	2.95549E+001	11	...........	5.68001E-002	-3.77486E-003	5.58062E-001	6.61215E-001	-3.01243E-002	-3.93404E-002	6.42682E-001	-4.30743E-002	-6.82091E-004	4.53308E-005	-6.70155E-003	-7.94027E-003	3.61751E-004	4.72424E-004	-7.71772E-003	5.17262E-004
	82	82	4.99719E-002	-1.20359E-002	0.00000E+000	-6.01456E-004	-1.18514E-001	3.40514E-002	2.96950E+001	11	...........	5.67875E-002	-3.74208E-003	5.58114E-001	6.61231E-001	-3.01276E-002	-3.93503E-002	6.42590E-001	-4.30878E-002	-6.83488E-004	4.50393E-005	-6.71740E-003	-7.95850E-003	3.62613E-004	4.73616E-004	-7.73414E-003	5.18600E-004
	83	83	4.99708E-002	-1.19289E-002	0.00000E+000	-5.96095E-004	-1.17456E-001	3.39255E-002	2.89790E+001	11	...........	5.65808E-002	-3.83333E-003	5.58203E-001	6.61143E-001	-3.01190E-002	-3.93349E-002	6.42594E-001	-4.31042E-002	-6.74945E-004	4.57273E-005	-6.65872E-003	-7.88668E-003	3.59286E-004	4.69220E-004	-7.66541E-003	5.14183E-004
	84	84	4.99661E-002	-1.17456E-002	0.00000E+000	-5.86881E-004	-1.15629E-001	3.41802E-002	2.92415E+001	11	...........	5.70036E-002	-3.80097E-003	5.58340E-001	6.61053E-001	-3.01308E-002	-3.93324E-002	6.42569E-001	-4.30975E-002	-6.69541E-004	4.46447E-005	-6.55803E-003	-7.76445E-003	3.53904E-004	4.61982E-004	-7.54735E-003	5.06205E-004
	85	85	4.99760E-002	-1.15978E-002	0.00000E+000	-5.79613E-004	-1.14177E-001	3.40479E-002	2.94786E+001	11	...........	5.67875E-002	-3.75806E-003	5.58246E-001	6.61080E-001	-3.01251E-002	-3.93226E-002	6.42649E-001	-4.30990E-002	-6.58611E-004	4.35852E-005	-6.47444E-003	-7.66708E-003	3.49386E-004	4.56056E-004	-7.45333E-003	4.99854E-004
	86	86	4.99723E-002	-1.15727E-002	0.00000E+000	-5.78313E-004	-1.13911E-001	3.39890E-002	2.95683E+001	11	...........	5.66919E-002	-3.84014E-003	5.58355E-001	6.60992E-001	-3.01417E-002	-3.93110E-002	6.42694E-001	-4.30335E-002	-6.56077E-004	4.44406E-005	-6.46166E-003	-7.64944E-003	3.48819E-004	4.54933E-004	-7.43768E-003	4.98012E-004
	87	87	4.99681E-002	-1.14892E-002	0.00000E+000	-5.74094E-004	-1.13081E-001	3.42833E-002	2.97230E+001	11	...........	5.71858E-002	-3.84306E-003	5.58542E-001	6.60892E-001	-3.01274E-002	-3.93129E-002	6.42559E-001	-4.30999E-002	-6.57020E-004	4.41537E-005	-6.41720E-003	-7.59313E-003	3.46140E-004	4.51674E-004	-7.38249E-003	4.95183E-004
	88	88	4.99711E-002	-1.10907E-002	0.00000E+000	-5.54216E-004	-1.09107E-001	3.39685E-002	2.96606E+001	11	...........	5.66497E-002	-3.81556E-003	5.58577E-001	6.60987E-001	-3.01318E-002	-3.93268E-002	6.42653E-001	-4.31951E-002	-6.28287E-004	4.23173E-005	-6.19504E-003	-7.33083E-003	3.34184E-004	4.36163E-004	-7.12750E-003	4.79066E-004
	89	89	4.99747E-002	-1.10818E-002	0.00000E+000	-5.53809E-004	-1.09019E-001	3.39529E-002	2.99629E+001	11	...........	5.66349E-002	-3.85028E-003	5.58685E-001	6.61071E-001	-3.01378E-002	-3.93490E-002	6.42786E-001	-4.31710E-002	-6.27616E-004	4.26680E-005	-6.19123E-003	-7.32585E-003	3.33981E-004	4.36058E-004	-7.12322E-003	4.78412E-004
	90	90	4.99739E-002	-1.11988E-002	0.00000E+000	-5.59647E-004	-1.10181E-001	3.42817E-002	3.05143E+001	11	...........	5.71717E-002	-3.82514E-003	5.58903E-001	6.61125E-001	-3.01376E-002	-3.93522E-002	6.42801E-001	-4.31969E-002	-6.40253E-004	4.28369E-005	-6.25903E-003	-7.40379E-003	3.37505E-004	4.40697E-004	-7.19859E-003	4.83753E-004
	91	91	4.99650E-002	-1.08523E-002	0.00000E+000	-5.42237E-004	-1.06735E-001	3.39647E-002	2.96761E+001	11	...........	5.66549E-002	-3.75194E-003	5.59046E-001	6.60982E-001	-3.01231E-002	-3.93194E-002	6.42829E-001	-4.32072E-002	-6.14838E-004	4.07174E-005	-6.06696E-003	-7.17320E-003	3.26906E-004	4.26708E-004	-6.97620E-003	4.68899E-004
	92	92	4.99762E-002	-1.07955E-002	0.00000E+000	-5.39517E-004	-1.06169E-001	3.41602E-002	3.00879E+001	11	...........	5.69699E-002	-3.69361E-003	5.59043E-001	6.60938E-001	-3.01310E-002	-3.93110E-002	6.42835E-001	-4.31850E-002	-6.15016E-004	3.98743E-005	-6.03513E-003	-7.13514E-003	3.25278E-004	4.24380E-004	-6.93971E-003	4.66202E-004
	93	93	4.99725E-002	-1.07244E-002	0.00000E+000	-5.35924E-004	-1.05461E-001	3.41189E-002	3.02345E+001	11	...........	5.69001E-002	-3.65528E-003	5.59095E-001	6.60838E-001	-3.01543E-002	-3.93344E-002	6.42777E-001	-4.31125E-002	-6.10219E-004	3.92006E-005	-5.99595E-003	-7.08708E-003	3.23386E-004	4.21838E-004	-6.89339E-003	4.62355E-004
	94	94	4.99687E-002	-1.05167E-002	0.00000E+000	-5.25503E-004	-1.03395E-001	3.41830E-002	2.99806E+001	11	...........	5.69928E-002	-3.68847E-003	5.58986E-001	6.60885E-001	-3.01137E-002	-3.93536E-002	6.42722E-001	-4.31162E-002	-5.99373E-004	3.87904E-005	-5.87866E-003	-6.95030E-003	3.16696E-004	4.13868E-004	-6.75929E-003	4.53439E-004
	95	95	4.99679E-002	-1.02427E-002	0.00000E+000	-5.11804E-004	-1.00721E-001	3.40520E-002	2.95115E+001	11	...........	5.67781E-002	-3.71917E-003	5.58963E-001	6.60898E-001	-3.01057E-002	-3.93349E-002	6.42803E-001	-4.30404E-002	-5.81559E-004	3.80942E-005	-5.72527E-003	-6.76935E-003	3.08363E-004	4.02894E-004	-6.58402E-003	4.40849E-004
	96	96	4.99789E-002	-1.02651E-002	0.00000E+000	-5.13036E-004	-1.00931E-001	3.41618E-002	3.02686E+001	11	...........	5.69929E-002	-3.74139E-003	5.58963E-001	6.60945E-001	-3.01161E-002	-3.93504E-002	6.42851E-001	-4.30844E-002	-5.85035E-004	3.84055E-005	-5.73779E-003	-6.78463E-003	3.09143E-004	4.03934E-004	-6.59889E-003	4.42264E-004
	97	97	4.99670E-002	-1.01556E-002	0.00000E+000	-5.07442E-004	-9.98590E-002	3.41263E-002	3.01425E+001	11	...........	5.69122E-002	-3.85569E-003	5.59067E-001	6.61031E-001	-3.01142E-002	-3.93582E-002	6.42783E-001	-4.31101E-002	-5.77975E-004	3.91567E-005	-5.67763E-003	-6.71314E-003	3.05826E-004	3.99704E-004	-6.52782E-003	4.37807E-004
	98	98	4.99734E-002	-9.98114E-003	0.00000E+000	-4.98791E-004	-9.81187E-002	3.41986E-002	3.00206E+001	11	...........	5.70262E-002	-3.80167E-003	5.59157E-001	6.60999E-001	-3.00958E-002	-3.93497E-002	6.42719E-001	-4.30724E-002	-5.69187E-004	3.79450E-005	-5.58102E-003	-6.59752E-003	3.00391E-004	3.92755E-004	-6.41507E-003	4.29911E-004
	99	99	4.99716E-002	-9.88482E-003	0.00000E+000	-4.93960E-004	-9.71547E-002	3.41352E-002	3.00477E+001	11	...........	5.69118E-002	-3.81806E-003	5.59061E-001	6.60846E-001	-3.01008E-002	-3.93175E-002	6.42767E-001	-4.29721E-002	-5.62563E-004	3.77408E-005	-5.52622E-003	-6.53234E-003	2.97541E-004	3.88646E-004	-6.35363E-003	4.24771E-004
	100	100	4.99723E-002	-9.80581E-003	0.00000E+000	-4.90019E-004	-9.63840E-002	3.42232E-002	3.02419E+001	11	...........	5.70643E-002	-3.77611E-003	5.58992E-001	6.60789E-001	-3.01112E-002	-3.93218E-002	6.42842E-001	-4.30962E-002	-5.59562E-004	3.70278E-005	-5.48137E-003	-6.47958E-003	2.95265E-004	3.85582E-004	-6.30359E-003	4.22594E-004
	101	101	4.99705E-002	-9.64886E-003	0.00000E+000	-4.82159E-004	-9.48167E-002	3.41058E-002	2.99559E+001	11	...........	5.68606E-002	-3.78722E-003	5.58914E-001	6.60717E-001	-3.00978E-002	-3.93282E-002	6.42875E-001	-4.31237E-002	-5.48640E-004	3.65424E-005	-5.39288E-003	-6.37517E-003	2.90409E-004	3.79472E-004	-6.20301E-003	4.16095E-004
	102	102	4.99729E-002	-9.65528E-003	0.00000E+000	-4.82503E-004	-9.48743E-002	3.42282E-002	3.05864E+001	11	...........	5.70536E-002	-3.83806E-003	5.58912E-001	6.60762E-001	-3.00896E-002	-3.93322E-002	6.42705E-001	-4.30519E-002	-5.50868E-004	3.70575E-005	-5.39645E-003	-6.37984E-003	2.90523E-004	3.79763E-004	-6.20549E-003	4.15678E-004
	103	103	4.99691E-002	-9.45193E-003	0.00000E+000	-4.72304E-004	-9.28663E-002	3.41992E-002	3.03428E+001	11	...........	5.70397E-002	-3.87778E-003	5.59000E-001	6.60814E-001	-3.01208E-002	-3.93417E-002	6.42758E-001	-4.31971E-002	-5.39136E-004	3.66525E-005	-5.28363E-003	-6.24597E-003	2.84700E-004	3.71855E-004	-6.07530E-003	4.08296E-004
	104	104	4.99733E-002	-9.30920E-003	0.00000E+000	-4.65211E-004	-9.14463E-002	3.41944E-002	2.96776E+001	11	...........	5.69979E-002	-3.88194E-003	5.58925E-001	6.60884E-001	-3.01347E-002	-3.93746E-002	6.42684E-001	-4.32361E-002	-5.30605E-004	3.61378E-005	-5.20315E-003	-6.15230E-003	2.80530E-004	3.66546E-004	-5.98287E-003	4.02494E-004
	105	105	4.99756E-002	-9.30348E-003	0.00000E+000	-4.64947E-004	-9.13813E-002	3.41363E-002	3.05234E+001	11	...........	5.69403E-002	-3.88056E-003	5.58885E-001	6.61016E-001	-3.01086E-002	-3.93660E-002	6.42828E-001	-4.32958E-002	-5.29743E-004	3.61027E-005	-5.19957E-003	-6.14975E-003	2.80115E-004	3.66240E-004	-5.98053E-003	4.02802E-004
	106	106	4.99677E-002	-9.19287E-003	0.00000E+000	-4.59347E-004	-9.02697E-002	3.42219E-002	3.04782E+001	11	...........	5.70767E-002	-3.90111E-003	5.58936E-001	6.61135E-001	-3.01324E-002	-3.93622E-002	6.43025E-001	-4.32186E-002	-5.24699E-004	3.58624E-005	-5.13823E-003	-6.07773E-003	2.77003E-004	3.61852E-004	-5.91125E-003	3.97303E-004
	107	107	4.99713E-002	-9.04423E-003	0.00000E+000	-4.51952E-004	-8.87993E-002	3.42404E-002	2.97988E+001	11	...........	5.70849E-002	-3.80458E-003	5.58823E-001	6.61199E-001	-3.01618E-002	-3.93631E-002	6.43025E-001	-4.32750E-002	-5.16288E-004	3.44095E-005	-5.05412E-003	-5.98003E-003	2.72790E-004	3.56008E-004	-5.81567E-003	3.91389E-004
	108	108	4.99734E-002	-8.85643E-003	0.00000E+000	-4.42586E-004	-8.69193E-002	3.41588E-002	3.03404E+001	11	...........	5.69546E-002	-3.77389E-003	5.58614E-001	6.61280E-001	-3.01529E-002	-3.93822E-002	6.42977E-001	-4.32461E-002	-5.04414E-004	3.34232E-005	-4.94733E-003	-5.85658E-003	2.67047E-004	3.48786E-004	-5.69448E-003	3.83006E-004
	109	109	4.99724E-002	-8.92770E-003	0.00000E+000	-4.46139E-004	-8.76333E-002	3.42916E-002	3.03904E+001	11	...........	5.71707E-002	-3.79514E-003	5.58640E-001	6.61429E-001	-3.01340E-002	-3.93762E-002	6.43044E-001	-4.32262E-002	-5.10403E-004	3.38818E-005	-4.98737E-003	-5.90504E-003	2.69027E-004	3.51539E-004	-5.74090E-003	3.85911E-004
	110	110	4.99708E-002	-8.73905E-003	0.00000E+000	-4.36697E-004	-8.57547E-002	3.42257E-002	3.04056E+001	11	...........	5.70826E-002	-3.89903E-003	5.58553E-001	6.61517E-001	-3.01399E-002	-3.93890E-002	6.43035E-001	-4.32406E-002	-4.98848E-004	3.40738E-005	-4.88122E-003	-5.78103E-003	2.63394E-004	3.44223E-004	-5.61952E-003	3.77881E-004
	111	111	4.99738E-002	-8.55167E-003	0.00000E+000	-4.27360E-004	-8.38877E-002	3.42616E-002	3.01148E+001	11	...........	5.71093E-002	-3.88667E-003	5.58600E-001	6.61582E-001	-3.01317E-002	-3.93751E-002	6.43226E-001	-4.31829E-002	-4.88380E-004	3.32375E-005	-4.77697E-003	-5.65763E-003	2.57676E-004	3.36723E-004	-5.50066E-003	3.69286E-004
	112	112	4.99701E-002	-8.53696E-003	0.00000E+000	-4.26593E-004	-8.37437E-002	3.42234E-002	3.05474E+001	11	...........	5.70561E-002	-3.92708E-003	5.58648E-001	6.61544E-001	-3.01583E-002	-3.93789E-002	6.43131E-001	-4.31761E-002	-4.87086E-004	3.35254E-005	-4.76915E-003	-5.64757E-003	2.57460E-004	3.36176E-004	-5.49038E-003	3.68593E-004
	113	113	4.99710E-002	-8.45364E-003	0.00000E+000	-4.22437E-004	-8.29073E-002	3.43532E-002	3.01597E+001	11	...........	5.72506E-002	-3.79222E-003	5.58513E-001	6.61463E-001	-3.01658E-002	-3.93836E-002	6.43097E-001	-4.32236E-002	-4.83976E-004	3.20581E-005	-4.72147E-003	-5.59177E-003	2.55011E-004	3.32935E-004	-5.43651E-003	3.65397E-004
	114	114	4.99741E-002	-8.30253E-003	0.00000E+000	-4.14911E-004	-8.14153E-002	3.42214E-002	3.00916E+001	11	...........	5.70510E-002	-3.59764E-003	5.58392E-001	6.61416E-001	-3.01649E-002	-3.93821E-002	6.43082E-001	-4.32310E-002	-4.73668E-004	2.98695E-005	-4.63607E-003	-5.49143E-003	2.50445E-004	3.26971E-004	-5.33921E-003	3.58927E-004
	115	115	4.99696E-002	-8.25371E-003	0.00000E+000	-4.12434E-004	-8.09200E-002	3.42759E-002	3.05967E+001	11	...........	5.71464E-002	-3.73986E-003	5.58447E-001	6.61372E-001	-3.01504E-002	-3.94037E-002	6.43064E-001	-4.32124E-002	-4.71670E-004	3.08677E-005	-4.60926E-003	-5.45878E-003	2.48853E-004	3.25227E-004	-5.30766E-003	3.56662E-004
	116	116	4.99736E-002	-8.17534E-003	0.00000E+000	-4.08551E-004	-8.01417E-002	3.42917E-002	3.06904E+001	11	...........	5.71776E-002	-3.78986E-003	5.58632E-001	6.61421E-001	-3.01190E-002	-3.94169E-002	6.43035E-001	-4.30929E-002	-4.67447E-004	3.09834E-005	-4.56701E-003	-5.40735E-003	2.46233E-004	3.22247E-004	-5.25703E-003	3.52299E-004
	117	117	4.99706E-002	-8.07405E-003	0.00000E+000	-4.03465E-004	-7.91390E-002	3.43162E-002	3.04365E+001	11	...........	5.72175E-002	-3.81000E-003	5.58556E-001	6.61544E-001	-3.01272E-002	-3.94379E-002	6.42983E-001	-4.30796E-002	-4.61977E-004	3.07621E-005	-4.50981E-003	-5.34134E-003	2.43249E-004	3.18424E-004	-5.19148E-003	3.47827E-004
	118	118	4.99718E-002	-7.90048E-003	0.00000E+000	-3.94801E-004	-7.74143E-002	3.41887E-002	2.98795E+001	11	...........	5.69928E-002	-3.70903E-003	5.58650E-001	6.61659E-001	-3.01292E-002	-3.94657E-002	6.43022E-001	-4.31312E-002	-4.50270E-004	2.93031E-005	-4.41360E-003	-5.22743E-003	2.38035E-004	3.11798E-004	-5.08018E-003	3.40758E-004
	119	119	4.99738E-002	-7.92263E-003	0.00000E+000	-3.95924E-004	-7.76400E-002	3.43206E-002	3.05754E+001	11	...........	5.72142E-002	-3.83083E-003	5.58596E-001	6.61812E-001	-3.01340E-002	-3.94757E-002	6.43103E-001	-4.31893E-002	-4.53287E-004	3.03503E-005	-4.42555E-003	-5.24329E-003	2.38741E-004	3.12751E-004	-5.09507E-003	3.42173E-004
	120	120	4.99727E-002	-7.88147E-003	0.00000E+000	-3.93859E-004	-7.72183E-002	3.43824E-002	3.07835E+001	11	...........	5.72983E-002	-3.86000E-003	5.58590E-001	6.61789E-001	-3.01308E-002	-3.94632E-002	6.42978E-001	-4.33022E-002	-4.51595E-004	3.04225E-005	-4.40251E-003	-5.21587E-003	2.37475E-004	3.11028E-004	-5.06761E-003	3.41285E-004
	121	121	4.99720E-002	-7.69799E-003	0.00000E+000	-3.84684E-004	-7.54170E-002	3.42231E-002	3.02233E+001	11	...........	5.70556E-002	-3.89597E-003	5.58631E-001	6.61762E-001	-3.01189E-002	-3.94651E-002	6.43061E-001	-4.32219E-002	-4.39213E-004	2.99912E-005	-4.30034E-003	-5.09424E-003	2.31855E-004	3.03802E-004	-4.95028E-003	3.32722E-004
	122	122	4.99717E-002	-7.68810E-003	0.00000E+000	-3.84188E-004	-7.53130E-002	3.43235E-002	3.05375E+001	11	...........	5.72333E-002	-3.84222E-003	5.58580E-001	6.61809E-001	-3.00596E-002	-3.94529E-002	6.42988E-001	-4.31787E-002	-4.40016E-004	2.95394E-005	-4.29442E-003	-5.08806E-003	2.31101E-004	3.03318E-004	-4.94336E-003	3.31963E-004
	123	123	4.99730E-002	-7.64814E-003	0.00000E+000	-3.82200E-004	-7.49273E-002	3.43407E-002	3.08467E+001	11	...........	5.72368E-002	-3.84222E-003	5.58507E-001	6.61802E-001	-3.00826E-002	-3.94576E-002	6.43101E-001	-4.31472E-002	-4.37755E-004	2.93858E-005	-4.27154E-003	-5.06155E-003	2.30076E-004	3.01777E-004	-4.91852E-003	3.29996E-004
	124	124	4.99708E-002	-7.45690E-003	0.00000E+000	-3.72627E-004	-7.30173E-002	3.41708E-002	3.04025E+001	11	...........	5.69981E-002	-3.84778E-003	5.58572E-001	6.61735E-001	-3.01093E-002	-3.94435E-002	6.42992E-001	-4.32162E-002	-4.25029E-004	2.86925E-005	-4.16522E-003	-4.93449E-003	2.24522E-004	2.94126E-004	-4.79473E-003	3.22259E-004
	125	125	4.99689E-002	-7.46281E-003	0.00000E+000	-3.72908E-004	-7.30697E-002	3.44564E-002	3.00853E+001	11	...........	5.74225E-002	-3.86931E-003	5.58688E-001	6.61714E-001	-3.00576E-002	-3.94600E-002	6.43026E-001	-4.31874E-002	-4.28533E-004	2.88759E-005	-4.16938E-003	-4.93824E-003	2.24314E-004	2.94482E-004	-4.79878E-003	3.22299E-004
	126	126	4.99736E-002	-7.17933E-003	0.00000E+000	-3.58777E-004	-7.02563E-002	3.42167E-002	3.00896E+001	11	...........	5.70637E-002	-3.82042E-003	5.58598E-001	6.61700E-001	-3.00519E-002	-3.94621E-002	6.42946E-001	-4.31747E-002	-4.09680E-004	2.74280E-005	-4.01036E-003	-4.75056E-003	2.15753E-004	2.83311E-004	-4.61592E-003	3.09966E-004
	127	127	4.99729E-002	-7.24383E-003	0.00000E+000	-3.61995E-004	-7.08980E-002	3.43206E-002	3.03528E+001	11	...........	5.72149E-002	-3.83153E-003	5.58429E-001	6.61762E-001	-3.00200E-002	-3.94754E-002	6.43041E-001	-4.31924E-002	-4.14455E-004	2.77549E-005	-4.04516E-003	-4.79369E-003	2.17460E-004	2.85953E-004	-4.65807E-003	3.12878E-004
	128	128	4.99715E-002	-7.17226E-003	0.00000E+000	-3.58408E-004	-7.01833E-002	3.44015E-002	3.01741E+001	11	...........	5.73486E-002	-3.89153E-003	5.58482E-001	6.61816E-001	-3.00196E-002	-3.94653E-002	6.43029E-001	-4.32493E-002	-4.11319E-004	2.79111E-005	-4.00558E-003	-4.74672E-003	2.15308E-004	2.83055E-004	-4.61197E-003	3.10195E-004
	129	129	4.99725E-002	-7.07531E-003	0.00000E+000	-3.53571E-004	-6.92057E-002	3.43565E-002	3.00331E+001	11	...........	5.72797E-002	-3.83611E-003	5.58372E-001	6.61843E-001	-3.00217E-002	-3.94749E-002	6.42977E-001	-4.31772E-002	-4.05272E-004	2.71417E-005	-3.95066E-003	-4.68275E-003	2.12413E-004	2.79297E-004	-4.54927E-003	3.05492E-004
	130	130	4.99744E-002	-7.01326E-003	0.00000E+000	-3.50483E-004	-6.85970E-002	3.43057E-002	3.10315E+001	11	...........	5.72140E-002	-3.88972E-003	5.58173E-001	6.61950E-001	-3.00111E-002	-3.94685E-002	6.43096E-001	-4.31529E-002	-4.01257E-004	2.72796E-005	-3.91461E-003	-4.64243E-003	2.10476E-004	2.76803E-004	-4.51020E-003	3.02643E-004
	131	131	4.99693E-002	-6.98095E-003	0.00000E+000	-3.48833E-004	-6.82710E-002	3.44315E-002	3.00484E+001	11	...........	5.73918E-002	-3.92625E-003	5.58232E-001	6.61871E-001	-2.99986E-002	-3.94504E-002	6.43058E-001	-4.32725E-002	-4.00650E-004	2.74090E-005	-3.89700E-003	-4.62049E-003	2.09419E-004	2.75402E-004	-4.48916E-003	3.02083E-004
	132	132	4.99752E-002	-6.85497E-003	0.00000E+000	-3.42579E-004	-6.70170E-002	3.42877E-002	3.02633E+001	11	...........	5.71693E-002	-3.80944E-003	5.58311E-001	6.61804E-001	-3.00439E-002	-3.94553E-002	6.43047E-001	-4.32633E-002	-3.91894E-004	2.61136E-005	-3.82720E-003	-4.53665E-003	2.05950E-004	2.70465E-004	-4.40807E-003	2.96569E-004
	133	133	4.99720E-002	-6.82579E-003	0.00000E+000	-3.41099E-004	-6.67283E-002	3.42985E-002	2.98999E+001	11	...........	5.71760E-002	-3.77708E-003	5.58379E-001	6.61760E-001	-3.00236E-002	-3.94706E-002	6.42982E-001	-4.32187E-002	-3.90271E-004	2.57816E-005	-3.81138E-003	-4.51704E-003	2.04935E-004	2.69418E-004	-4.38886E-003	2.95002E-004
	134	134	4.99733E-002	-6.78760E-003	0.00000E+000	-3.39199E-004	-6.63463E-002	3.44241E-002	3.03824E+001	11	...........	5.73928E-002	-3.78222E-003	5.58363E-001	6.61627E-001	-2.99878E-002	-3.94871E-002	6.42893E-001	-4.31589E-002	-3.89559E-004	2.56722E-005	-3.78994E-003	-4.49086E-003	2.03545E-004	2.68022E-004	-4.36370E-003	2.92945E-004
	135	135	4.99704E-002	-6.74995E-003	0.00000E+000	-3.37298E-004	-6.59770E-002	3.44804E-002	3.03742E+001	11	...........	5.74906E-002	-3.85069E-003	5.58517E-001	6.61644E-001	-3.00099E-002	-3.94690E-002	6.43004E-001	-4.31467E-002	-3.88058E-004	2.59920E-005	-3.76996E-003	-4.46607E-003	2.02565E-004	2.66414E-004	-4.34025E-003	2.91238E-004
	136	136	4.99727E-002	-6.58363E-003	0.00000E+000	-3.29002E-004	-6.43593E-002	3.42887E-002	3.00258E+001	11	...........	5.71739E-002	-3.80806E-003	5.58525E-001	6.61765E-001	-3.00279E-002	-3.94225E-002	6.42940E-001	-4.31275E-002	-3.76412E-004	2.50708E-005	-3.67712E-003	-4.35682E-003	1.97693E-004	2.59543E-004	-4.23288E-003	2.83935E-004
	137	137	4.99743E-002	-6.58654E-003	0.00000E+000	-3.29157E-004	-6.43743E-002	3.44171E-002	3.07770E+001	11	...........	5.73708E-002	-3.69528E-003	5.58479E-001	6.61860E-001	-3.00106E-002	-3.94226E-002	6.43131E-001	-4.31894E-002	-3.77875E-004	2.43391E-005	-3.67844E-003	-4.35936E-003	1.97666E-004	2.59659E-004	-4.23601E-003	2.84469E-004
	138	138	4.99700E-002	-6.54615E-003	0.00000E+000	-3.27111E-004	-6.39610E-002	3.44038E-002	3.05202E+001	11	...........	5.73494E-002	-3.55861E-003	5.58395E-001	6.61880E-001	-2.99901E-002	-3.94294E-002	6.43145E-001	-4.31876E-002	-3.75418E-004	2.32952E-005	-3.65534E-003	-4.33276E-003	1.96320E-004	2.58111E-004	-4.21013E-003	2.82713E-004
	139	139	4.99734E-002	-6.42485E-003	0.00000E+000	-3.21072E-004	-6.27387E-002	3.44169E-002	2.97991E+001	11	...........	5.73625E-002	-3.65028E-003	5.58306E-001	6.61739E-001	-3.00178E-002	-3.94285E-002	6.43152E-001	-4.32736E-002	-3.68545E-004	2.34525E-005	-3.58703E-003	-4.25157E-003	1.92860E-004	2.53322E-004	-4.13215E-003	2.78026E-004
	140	140	4.99718E-002	-6.37449E-003	0.00000E+000	-3.18545E-004	-6.22353E-002	3.42580E-002	3.06868E+001	11	...........	5.71185E-002	-3.74375E-003	5.58329E-001	6.61670E-001	-3.00053E-002	-3.94286E-002	6.43138E-001	-4.32124E-002	-3.64101E-004	2.38645E-005	-3.55906E-003	-4.21780E-003	1.91268E-004	2.51337E-004	-4.09968E-003	2.75457E-004
	141	141	4.99710E-002	-6.36058E-003	0.00000E+000	-3.17845E-004	-6.20987E-002	3.45641E-002	3.04963E+001	11	...........	5.76296E-002	-3.77167E-003	5.58427E-001	6.61740E-001	-2.99618E-002	-3.94279E-002	6.43119E-001	-4.31982E-002	-3.66557E-004	2.39900E-005	-3.55192E-003	-4.20905E-003	1.90574E-004	2.50784E-004	-4.09061E-003	2.74765E-004
	142	142	4.99726E-002	-6.24531E-003	0.00000E+000	-3.12094E-004	-6.09487E-002	3.43674E-002	3.01493E+001	11	...........	5.72982E-002	-3.80014E-003	5.58266E-001	6.61835E-001	-2.99940E-002	-3.94287E-002	6.43193E-001	-4.31200E-002	-3.57845E-004	2.37330E-005	-3.48654E-003	-4.13336E-003	1.87322E-004	2.46245E-004	-4.01694E-003	2.69298E-004
	143	143	4.99734E-002	-6.20900E-003	0.00000E+000	-3.10285E-004	-6.05890E-002	3.43788E-002	3.06540E+001	11	...........	5.73096E-002	-3.82861E-003	5.58328E-001	6.61720E-001	-3.00035E-002	-3.94261E-002	6.43102E-001	-4.31336E-002	-3.55835E-004	2.37718E-005	-3.46666E-003	-4.10862E-003	1.86292E-004	2.44797E-004	-3.99302E-003	2.67817E-004
	144	144	4.99710E-002	-6.15182E-003	0.00000E+000	-3.07413E-004	-6.00190E-002	3.44722E-002	3.04407E+001	11	...........	5.74612E-002	-3.87542E-003	5.58543E-001	6.61833E-001	-2.99735E-002	-3.94317E-002	6.43031E-001	-4.30992E-002	-3.53491E-004	2.38409E-005	-3.43605E-003	-4.07147E-003	1.84391E-004	2.42576E-004	-3.95581E-003	2.65138E-004
	145	145	4.99728E-002	-6.05296E-003	0.00000E+000	-3.02483E-004	-5.90357E-002	3.44085E-002	2.97823E+001	11	...........	5.73635E-002	-3.87528E-003	5.58505E-001	6.61912E-001	-2.99775E-002	-3.94361E-002	6.42931E-001	-4.30636E-002	-3.47219E-004	2.34569E-005	-3.38061E-003	-4.00653E-003	1.81453E-004	2.38705E-004	-3.89164E-003	2.60662E-004
	146	146	4.99741E-002	-6.02387E-003	0.00000E+000	-3.01038E-004	-5.87480E-002	3.44436E-002	3.05483E+001	11	...........	5.74428E-002	-3.81264E-003	5.58545E-001	6.61832E-001	-3.00190E-002	-3.94246E-002	6.42889E-001	-4.31636E-002	-3.46028E-004	2.29668E-005	-3.36460E-003	-3.98679E-003	1.80831E-004	2.37489E-004	-3.87268E-003	2.60012E-004
	147	147	4.99720E-002	-5.99320E-003	0.00000E+000	-2.99492E-004	-5.84367E-002	3.44677E-002	3.07265E+001	11	...........	5.74507E-002	-3.90681E-003	5.58497E-001	6.61743E-001	-2.99824E-002	-3.94103E-002	6.42969E-001	-4.32446E-002	-3.44314E-004	2.34143E-005	-3.34719E-003	-3.96596E-003	1.79690E-004	2.36194E-004	-3.85344E-003	2.59174E-004
	148	148	4.99731E-002	-5.93871E-003	0.00000E+000	-2.96776E-004	-5.79023E-002	3.45210E-002	3.05168E+001	11	...........	5.75558E-002	-3.77208E-003	5.58673E-001	6.61727E-001	-2.99656E-002	-3.93956E-002	6.43021E-001	-4.32933E-002	-3.41808E-004	2.24013E-005	-3.31780E-003	-3.92981E-003	1.77957E-004	2.33959E-004	-3.81872E-003	2.57107E-004
	149	149	4.99722E-002	-5.87337E-003	0.00000E+000	-2.93505E-004	-5.72507E-002	3.44552E-002	3.05662E+001	11	...........	5.74031E-002	-3.71278E-003	5.58592E-001	6.61619E-001	-2.99410E-002	-3.94054E-002	6.43047E-001	-4.33369E-002	-3.37149E-004	2.18065E-005	-3.28082E-003	-3.88593E-003	1.75854E-004	2.31443E-004	-3.77686E-003	2.54534E-004
	150	150	4.99716E-002	-5.83195E-003	0.00000E+000	-2.91432E-004	-5.68353E-002	3.44767E-002	3.05740E+001	11	...........	5.74825E-002	-3.76514E-003	5.58538E-001	6.61537E-001	-2.99714E-002	-3.94192E-002	6.43027E-001	-4.32300E-002	-3.35235E-004	2.19581E-005	-3.25736E-003	-3.85805E-003	1.74792E-004	2.29890E-004	-3.75010E-003	2.52115E-004
	151	151	4.99733E-002	-5.79957E-003	0.00000E+000	-2.89824E-004	-5.65147E-002	3.44638E-002	3.06588E+001	11	...........	5.74568E-002	-3.84139E-003	5.58528E-001	6.61531E-001	-2.99578E-002	-3.94299E-002	6.43065E-001	-4.30544E-002	-3.33225E-004	2.22784E-005	-3.23922E-003	-3.83660E-003	1.73742E-004	2.28676E-004	-3.72950E-003	2.49697E-004
	152	152	4.99716E-002	-5.73532E-003	0.00000E+000	-2.86603E-004	-5.58733E-002	3.44352E-002	3.04246E+001	11	...........	5.74010E-002	-3.91111E-003	5.58610E-001	6.61631E-001	-2.98956E-002	-3.94153E-002	6.43052E-001	-4.30433E-002	-3.29213E-004	2.24315E-005	-3.20380E-003	-3.79467E-003	1.71460E-004	2.26059E-004	-3.68811E-003	2.46867E-004
	153	153	4.99720E-002	-5.63132E-003	0.00000E+000	-2.81408E-004	-5.48507E-002	3.44871E-002	2.96565E+001	11	...........	5.75012E-002	-3.84556E-003	5.58545E-001	6.61610E-001	-2.99531E-002	-3.94036E-002	6.42940E-001	-4.30981E-002	-3.23808E-004	2.16556E-005	-3.14534E-003	-3.72574E-003	1.68675E-004	2.21894E-004	-3.62060E-003	2.42699E-004
	154	154	4.99734E-002	-5.63911E-003	0.00000E+000	-2.81805E-004	-5.49143E-002	3.44330E-002	3.07877E+001	11	...........	5.74307E-002	-3.74125E-003	5.58490E-001	6.61632E-001	-2.99808E-002	-3.93990E-002	6.42887E-001	-4.31022E-002	-3.23858E-004	2.10973E-005	-3.14939E-003	-3.73102E-003	1.69065E-004	2.22175E-004	-3.62531E-003	2.43058E-004
	155	155	4.99720E-002	-5.62821E-003	0.00000E+000	-2.81253E-004	-5.48160E-002	3.44944E-002	3.12256E+001	11	...........	5.75010E-002	-3.85208E-003	5.58684E-001	6.61510E-001	-2.99699E-002	-3.93828E-002	6.42796E-001	-4.30024E-002	-3.23627E-004	2.16803E-005	-3.14439E-003	-3.72312E-003	1.68677E-004	2.21654E-004	-3.61779E-003	2.42026E-004
	156	156	4.99722E-002	-5.54240E-003	0.00000E+000	-2.76966E-004	-5.39570E-002	3.45217E-002	3.01472E+001	11	...........	5.75285E-002	-3.94625E-003	5.58719E-001	6.61415E-001	-2.99733E-002	-3.93689E-002	6.42773E-001	-4.30535E-002	-3.18846E-004	2.18717E-005	-3.09664E-003	-3.66583E-003	1.66124E-004	2.18198E-004	-3.56250E-003	2.38619E-004
	157	157	4.99731E-002	-5.47054E-003	0.00000E+000	-2.73380E-004	-5.32420E-002	3.44017E-002	3.05095E+001	11	...........	5.73507E-002	-3.78500E-003	5.58721E-001	6.61381E-001	-3.00135E-002	-3.93747E-002	6.42872E-001	-4.30625E-002	-3.13739E-004	2.07060E-005	-3.05651E-003	-3.61811E-003	1.64190E-004	2.15401E-004	-3.51686E-003	2.35575E-004
	158	158	4.99716E-002	-5.44302E-003	0.00000E+000	-2.71996E-004	-5.29670E-002	3.44712E-002	3.07664E+001	11	...........	5.74536E-002	-3.80528E-003	5.58603E-001	6.61376E-001	-3.00078E-002	-3.93904E-002	6.42787E-001	-4.31276E-002	-3.12721E-004	2.07122E-005	-3.04049E-003	-3.59989E-003	1.63333E-004	2.14403E-004	-3.49871E-003	2.34745E-004
	159	159	4.99720E-002	-5.35615E-003	0.00000E+000	-2.67658E-004	-5.21027E-002	3.45104E-002	3.00004E+001	11	...........	5.75383E-002	-3.94389E-003	5.58557E-001	6.61338E-001	-2.99856E-002	-3.93964E-002	6.42898E-001	-4.31922E-002	-3.08184E-004	2.11240E-005	-2.99172E-003	-3.54222E-003	1.60607E-004	2.11013E-004	-3.44346E-003	2.31344E-004
	160	160	4.99745E-002	-5.33705E-003	0.00000E+000	-2.66716E-004	-5.19120E-002	3.44445E-002	3.08544E+001	11	...........	5.74221E-002	-3.87472E-003	5.58324E-001	6.61312E-001	-3.00182E-002	-3.93987E-002	6.42996E-001	-4.32029E-002	-3.06465E-004	2.06796E-005	-2.97980E-003	-3.52945E-003	1.60209E-004	2.10273E-004	-3.43170E-003	2.30576E-004
	161	161	4.99721E-002	-5.32502E-003	0.00000E+000	-2.66103E-004	-5.18047E-002	3.45720E-002	3.04406E+001	11	...........	5.76492E-002	-3.89042E-003	5.58353E-001	6.61403E-001	-3.00401E-002	-3.93986E-002	6.42998E-001	-4.31499E-002	-3.06983E-004	2.07166E-005	-2.97324E-003	-3.52199E-003	1.59964E-004	2.09799E-004	-3.42398E-003	2.29774E-004
	162	162	4.99717E-002	-5.23770E-003	0.00000E+000	-2.61737E-004	-5.09460E-002	3.44912E-002	3.01344E+001	11	...........	5.75061E-002	-3.85583E-003	5.58305E-001	6.61403E-001	-3.00028E-002	-3.94033E-002	6.42991E-001	-4.31414E-002	-3.01200E-004	2.01957E-005	-2.92423E-003	-3.46423E-003	1.57145E-004	2.06383E-004	-3.36779E-003	2.25962E-004
	163	163	4.99730E-002	-5.13148E-003	0.00000E+000	-2.56436E-004	-4.98853E-002	3.44207E-002	2.98747E+001	11	...........	5.73954E-002	-3.96194E-003	5.58129E-001	6.61383E-001	-3.00239E-002	-3.93917E-002	6.42941E-001	-4.30453E-002	-2.94523E-004	2.03306E-005	-2.86403E-003	-3.39387E-003	1.54067E-004	2.02138E-004	-3.29924E-003	2.20886E-004
	164	164	4.99735E-002	-5.16229E-003	0.00000E+000	-2.57977E-004	-5.01930E-002	3.45099E-002	3.04952E+001	11	...........	5.75486E-002	-3.80139E-003	5.58122E-001	6.61408E-001	-3.00404E-002	-3.94082E-002	6.43025E-001	-4.31596E-002	-2.97083E-004	1.96239E-005	-2.88119E-003	-3.41438E-003	1.55077E-004	2.03436E-004	-3.31948E-003	2.22802E-004
	165	165	4.99728E-002	-5.14332E-003	0.00000E+000	-2.57026E-004	-5.00013E-002	3.45973E-002	3.05307E+001	11	...........	5.76897E-002	-3.72764E-003	5.57933E-001	6.61499E-001	-3.00319E-002	-3.93951E-002	6.43139E-001	-4.31607E-002	-2.96717E-004	1.91724E-005	-2.86963E-003	-3.40230E-003	1.54464E-004	2.02622E-004	-3.30787E-003	2.21989E-004
	166	165.408	4.99688E-002	-5.11842E-003	0.00000E+000	-2.55761E-004	-4.97535E-002	3.45749E-002	3.07859E+001	11	...........	5.76486E-002	-3.78299E-003	5.57791E-001	6.61555E-001	-3.00432E-002	-3.93755E-002	6.43183E-001	-4.30714E-002	-2.95070E-004	1.93629E-005	-2.85501E-003	-3.38611E-003	1.53774E-004	2.01540E-004	-3.29208E-003	2.20457E-004
STARTTIMEOFFSET	QUANT	445227.8	Start Time Offset (s)
