EXPLAIN
TAG	PWR800_DISCHARGE
TITLE	LABEL	PWR Discharge	Test Identifier
DATE	LABEL	10/14/2022	Date
TIME	LABEL	0:28:18	Time
NOTES	NOTES	1	Notes...
	
PSTAT	PSTAT	REF3000-21114	Potentiostat
CAPACITY	QUANT	5.30000E-002	Capacity (A-hr)
CELLTYPE	SELECTOR	1	Cell Type
WORKINGCONNECTION	SELECTOR	0	Working Connection
MAXDISCHARGETIME	VARIABLEANDUNITS	7.20000E+003	s	2.00000E+000	hour(s)	Max Discharge Time
DISCHARGEMODE	MULTIPARAM	0	1.00000E-001	Discharge Mode	Constant Current	Amp(s)
VOLTAGEFINISH	TWOPARAM	T	5.00000E-003	7.20000E+003	Voltage Finish	I (A) <	Max Time(s)
SAMPLETIME	QUANT	1.00000E+000	Sample Period (s)
DISCHARGESTOPAT1	MULTIPARAM	1	5.00000E-002	Stop At 1	|Voltage| < Limit	V
DISCHARGESTOPAT2	MULTIPARAM	0	0.00000E+000	Stop At 2	None	N/A
AESELECTOR	AESELECTOR	0x1	T	Set Limits	AE Channels
AESBHCSELECTOR	TOGGLE	F	Save Both Half Cells
IRCOMP	TOGGLE	F	IR Measure
EOC	QUANT	0.5735672	Open Circuit (V)
SEQUENCER	TOGGLE	TRUE	Run as Sequence
PSTATMODEL	IQUANT	5	Pstat Model
PSTATSECTION	LABEL	REF3000-21114	Pstat Section
PSTATSERIALNO	LABEL	21114	Pstat Serial Number
CTRLMODE	IQUANT	0	Control Mode
ELECTROMETER	IQUANT	0	RE=0 or CS=1
IESTAB	IQUANT	0	I/E Stability
CASPEED	IQUANT	4	Control Amp Speed
CONVENTION	IQUANT	1	Current Convention
ICHRANGE	IQUANT	2	Ich Range
ICHRANGEMODE	TOGGLE	T	Ich Auto Range
ICHOFFSETENABLE	TOGGLE	F	Ich Offset Enable
ICHOFFSET	QUANT	0	Ich Offset (V)
ICHFILTER	IQUANT	1	Ich Filter
VCHRANGE	IQUANT	3	Vch Range
VCHRANGEMODE	TOGGLE	T	Vch Auto Range
VCHOFFSETENABLE	TOGGLE	F	Vch Offset Enable
VCHOFFSET	QUANT	0	Vch Offset (V)
VCHFILTER	IQUANT	1	Vch Filter
ACHRANGE	IQUANT	2	Ach Range
ACHOFFSETENABLE	TOGGLE	F	Ach Offset Enable
ACHOFFSET	QUANT	0	Ach Offset (V)
ACHFILTER	IQUANT	1	Ach Filter
IERANGELOWERLIMIT	IQUANT	9	I/E Range Lower Limit
IERANGEMODE	TOGGLE	F	I/E AutoRange
IERANGE	IQUANT	9	I/E Range
POSFEEDENABLE	TOGGLE	F	Positive Feedback IR Comp
POSFEEDRESISTANCE	QUANT	0	Positive Feedback Resistance (ohm)
ACHSELECT	IQUANT	1	Ach Select
SENSECABLEID	IQUANT	13	Sense Cable ID
PWRCABLEID	IQUANT	13	Power Cable ID
DCCALDATE	LABEL		DC Calibration Date
ACCALDATE	LABEL		AC Calibration Date
THERMOSELECT	IQUANT	1	Thermo Select
FRAMEWORKVERSION	LABEL	7.8.6	Framework Version
INSTRUMENTVERSION	LABEL	4.50	Instrument Version
COMPLIANCEVOLTAGE	IQUANT	0	Compliance Voltage
CURVE	TABLE	254
	Pt	T	Vf	Im	Vu	Pwr	Sig	Ach	Temp	IERange	Over	Vf1	Vf2	Vf3	Vf4	Vf5	Vf6	Vf7	Vf8	Pwr1	Pwr2	Pwr3	Pwr4	Pwr5	Pwr6	Pwr7	Pwr8
	#	s	V	A	V	W	V	V	deg C	#	bits	V	V	V	V	V	V	V	V	W	W	W	W	W	W	W	W
	0	1	3.50806E-001	-1.00102E-001	0.00000E+000	-3.51164E-002	-9.94000E-001	3.74763E-002	3.16978E+001	11	...........	6.22446E-002	-5.13250E-003	6.05019E-001	5.38707E-001	-2.70260E-002	-3.81182E-002	7.05328E-001	-4.37787E-002	-6.23081E-003	5.13774E-004	-6.05636E-002	-5.39257E-002	2.70536E-003	3.81571E-003	-7.06048E-002	4.38234E-003
	1	2	2.65797E-001	-1.00102E-001	0.00000E+000	-2.66069E-002	-9.94000E-001	3.74667E-002	3.08732E+001	11	...........	6.22474E-002	-5.25194E-003	6.04852E-001	5.38745E-001	-2.70481E-002	-3.81103E-002	7.05392E-001	-4.37579E-002	-6.23109E-003	5.25731E-004	-6.05470E-002	-5.39295E-002	2.70757E-003	3.81492E-003	-7.06113E-002	4.38026E-003
	2	3	2.03584E-001	-1.00103E-001	0.00000E+000	-2.03794E-002	-9.94000E-001	3.74242E-002	2.95499E+001	11	...........	6.21699E-002	-5.31556E-003	6.04854E-001	5.38677E-001	-2.70156E-002	-3.81317E-002	7.05461E-001	-4.37819E-002	-6.22338E-003	5.32102E-004	-6.05477E-002	-5.39231E-002	2.70433E-003	3.81709E-003	-7.06187E-002	4.38270E-003
	3	4	1.53929E-001	-1.00103E-001	0.00000E+000	-1.54087E-002	-9.94000E-001	3.73479E-002	2.93282E+001	11	...........	6.20704E-002	-5.39667E-003	6.04985E-001	5.38750E-001	-2.70008E-002	-3.81586E-002	7.05400E-001	-4.38113E-002	-6.21343E-003	5.40222E-004	-6.05607E-002	-5.39304E-002	2.70286E-003	3.81979E-003	-7.06126E-002	4.38563E-003
	4	5	1.16396E-001	-1.00103E-001	0.00000E+000	-1.16516E-002	-9.94000E-001	3.73979E-002	2.91855E+001	11	...........	6.21407E-002	-5.37875E-003	6.04947E-001	5.38682E-001	-2.69987E-002	-3.81749E-002	7.05477E-001	-4.37132E-002	-6.22046E-003	5.38428E-004	-6.05569E-002	-5.39235E-002	2.70265E-003	3.82141E-003	-7.06202E-002	4.37581E-003
	5	6	8.55546E-002	-1.00103E-001	0.00000E+000	-8.56427E-003	-9.94000E-001	3.73552E-002	2.89127E+001	11	...........	6.20754E-002	-5.36319E-003	6.04951E-001	5.38663E-001	-2.70060E-002	-3.81919E-002	7.05619E-001	-4.37785E-002	-6.21394E-003	5.36872E-004	-6.05574E-002	-5.39218E-002	2.70338E-003	3.82313E-003	-7.06346E-002	4.38236E-003
	6	7	6.23657E-002	-1.00103E-001	0.00000E+000	-6.24297E-003	-9.94000E-001	3.74415E-002	2.87200E+001	11	...........	6.22079E-002	-5.34125E-003	6.04903E-001	5.38606E-001	-2.70147E-002	-3.82086E-002	7.05689E-001	-4.39169E-002	-6.22717E-003	5.34673E-004	-6.05524E-002	-5.39159E-002	2.70424E-003	3.82478E-003	-7.06413E-002	4.39620E-003
	7	7.175	5.16074E-002	-1.00103E-001	0.00000E+000	-5.16605E-003	-9.94000E-001	3.74790E-002	2.86373E+001	11	...........	6.22881E-002	-5.27222E-003	6.04898E-001	5.38510E-001	-2.70365E-002	-3.82024E-002	7.05557E-001	-4.39802E-002	-6.23521E-003	5.27764E-004	-6.05520E-002	-5.39064E-002	2.70643E-003	3.82417E-003	-7.06283E-002	4.40254E-003
	8	8	4.98580E-002	-9.45001E-002	0.00000E+000	-4.71158E-003	-9.38281E-001	3.76053E-002	2.88844E+001	11	...........	6.24577E-002	-5.24091E-003	6.04782E-001	5.38585E-001	-2.70098E-002	-3.81993E-002	7.05510E-001	-4.39340E-002	-5.90226E-003	4.95266E-004	-5.71520E-002	-5.08963E-002	2.55242E-003	3.60984E-003	-6.66708E-002	4.15177E-003
	9	9	4.99244E-002	-8.68750E-002	0.00000E+000	-4.33718E-003	-8.62473E-001	3.77122E-002	2.92059E+001	11	...........	6.26593E-002	-5.13139E-003	6.04769E-001	5.38559E-001	-2.70160E-002	-3.82108E-002	7.05532E-001	-4.38407E-002	-5.44353E-003	4.45789E-004	-5.25393E-002	-4.67873E-002	2.34701E-003	3.31957E-003	-6.12931E-002	3.80866E-003
	10	10	4.99384E-002	-8.17924E-002	0.00000E+000	-4.08458E-003	-8.11947E-001	3.78137E-002	2.95239E+001	11	...........	6.28207E-002	-5.23153E-003	6.04943E-001	5.38627E-001	-2.70186E-002	-3.82303E-002	7.05469E-001	-4.39108E-002	-5.13825E-003	4.27899E-004	-4.94798E-002	-4.40555E-002	2.20992E-003	3.12694E-003	-5.77020E-002	3.59157E-003
	11	11	4.99499E-002	-7.78469E-002	0.00000E+000	-3.88845E-003	-7.72716E-001	3.78347E-002	2.86638E+001	11	...........	6.28549E-002	-5.23944E-003	6.04874E-001	5.38747E-001	-2.69982E-002	-3.82107E-002	7.05438E-001	-4.37019E-002	-4.89305E-003	4.07874E-004	-4.70875E-002	-4.19398E-002	2.10173E-003	2.97458E-003	-5.49161E-002	3.40206E-003
	12	12	4.99954E-002	-7.53667E-002	0.00000E+000	-3.76799E-003	-7.48053E-001	3.80062E-002	2.95927E+001	11	...........	6.31494E-002	-5.31222E-003	6.04668E-001	5.38656E-001	-2.69961E-002	-3.82261E-002	7.05505E-001	-4.37597E-002	-4.75936E-003	4.00365E-004	-4.55718E-002	-4.05968E-002	2.03461E-003	2.88098E-003	-5.31716E-002	3.29803E-003
	13	13	4.99824E-002	-7.44393E-002	0.00000E+000	-3.72065E-003	-7.38834E-001	3.80392E-002	3.00494E+001	11	...........	6.32136E-002	-5.38194E-003	6.04725E-001	5.38786E-001	-2.69881E-002	-3.82303E-002	7.05433E-001	-4.39168E-002	-4.70558E-003	4.00628E-004	-4.50153E-002	-4.01069E-002	2.00897E-003	2.84584E-003	-5.25120E-002	3.26914E-003
	14	14	4.99838E-002	-7.31134E-002	0.00000E+000	-3.65449E-003	-7.25646E-001	3.81476E-002	3.01640E+001	11	...........	6.33854E-002	-5.36514E-003	6.04671E-001	5.38867E-001	-2.69672E-002	-3.82239E-002	7.05341E-001	-4.38858E-002	-4.63433E-003	3.92264E-004	-4.42095E-002	-3.93984E-002	1.97167E-003	2.79468E-003	-5.15699E-002	3.20864E-003
	15	15	4.99852E-002	-7.19131E-002	0.00000E+000	-3.59459E-003	-7.13743E-001	3.82219E-002	3.02839E+001	11	...........	6.34935E-002	-5.28472E-003	6.04657E-001	5.39008E-001	-2.69606E-002	-3.82387E-002	7.05434E-001	-4.37301E-002	-4.56601E-003	3.80041E-004	-4.34827E-002	-3.87617E-002	1.93882E-003	2.74987E-003	-5.07299E-002	3.14477E-003
	16	16	4.99695E-002	-7.04779E-002	0.00000E+000	-3.52175E-003	-6.99474E-001	3.82998E-002	2.97779E+001	11	...........	6.36242E-002	-5.24861E-003	6.04723E-001	5.39013E-001	-2.69483E-002	-3.82461E-002	7.05468E-001	-4.38083E-002	-4.48410E-003	3.69911E-004	-4.26196E-002	-3.79885E-002	1.89926E-003	2.69551E-003	-4.97199E-002	3.08752E-003
	17	17	5.00048E-002	-6.89086E-002	0.00000E+000	-3.44576E-003	-6.83874E-001	3.83889E-002	3.02380E+001	11	...........	6.37582E-002	-5.23625E-003	6.04509E-001	5.38979E-001	-2.69174E-002	-3.82421E-002	7.05432E-001	-4.39036E-002	-4.39349E-003	3.60823E-004	-4.16559E-002	-3.71403E-002	1.85484E-003	2.63521E-003	-4.86104E-002	3.02534E-003
	18	18	4.99869E-002	-6.86169E-002	0.00000E+000	-3.42995E-003	-6.80967E-001	3.84752E-002	3.03364E+001	11	...........	6.39071E-002	-5.20444E-003	6.04522E-001	5.38927E-001	-2.69067E-002	-3.82415E-002	7.05309E-001	-4.39265E-002	-4.38511E-003	3.57113E-004	-4.14805E-002	-3.69795E-002	1.84625E-003	2.62402E-003	-4.83961E-002	3.01410E-003
	19	19	4.99898E-002	-6.76486E-002	0.00000E+000	-3.38174E-003	-6.71340E-001	3.85288E-002	3.05273E+001	11	...........	6.40272E-002	-5.28806E-003	6.04353E-001	5.39258E-001	-2.69325E-002	-3.82224E-002	7.05308E-001	-4.40040E-002	-4.33135E-003	3.57729E-004	-4.08837E-002	-3.64800E-002	1.82195E-003	2.58569E-003	-4.77131E-002	2.97681E-003
	20	20	4.99858E-002	-6.68439E-002	0.00000E+000	-3.34125E-003	-6.63335E-001	3.85496E-002	3.06194E+001	11	...........	6.42161E-002	-5.27264E-003	6.04300E-001	5.39266E-001	-2.69476E-002	-3.82029E-002	7.05344E-001	-4.40574E-002	-4.29245E-003	3.52444E-004	-4.03938E-002	-3.60466E-002	1.80128E-003	2.55363E-003	-4.71479E-002	2.94496E-003
	21	21	4.99935E-002	-6.64064E-002	0.00000E+000	-3.31989E-003	-6.58979E-001	3.85610E-002	3.06942E+001	11	...........	6.43408E-002	-5.25639E-003	6.04357E-001	5.39063E-001	-2.69650E-002	-3.81778E-002	7.05469E-001	-4.41090E-002	-4.27264E-003	3.49058E-004	-4.01332E-002	-3.57972E-002	1.79065E-003	2.53525E-003	-4.68476E-002	2.92912E-003
	22	22	4.99864E-002	-6.53972E-002	0.00000E+000	-3.26897E-003	-6.48945E-001	3.86277E-002	3.08091E+001	11	...........	6.44519E-002	-5.34042E-003	6.04400E-001	5.38974E-001	-2.69728E-002	-3.81799E-002	7.05409E-001	-4.42515E-002	-4.21497E-003	3.49248E-004	-3.95261E-002	-3.52474E-002	1.76394E-003	2.49685E-003	-4.61318E-002	2.89392E-003
	23	23	4.99851E-002	-6.45390E-002	0.00000E+000	-3.22599E-003	-6.40409E-001	3.86970E-002	3.06832E+001	11	...........	6.45700E-002	-5.32611E-003	6.04507E-001	5.38949E-001	-2.69922E-002	-3.81797E-002	7.05324E-001	-4.41582E-002	-4.16729E-003	3.43742E-004	-3.90143E-002	-3.47833E-002	1.74205E-003	2.46408E-003	-4.55209E-002	2.84993E-003
	24	24	4.99847E-002	-6.30547E-002	0.00000E+000	-3.15177E-003	-6.25659E-001	3.86865E-002	3.00335E+001	11	...........	6.45503E-002	-5.36597E-003	6.04670E-001	5.38690E-001	-2.70046E-002	-3.81503E-002	7.05504E-001	-4.39994E-002	-4.07020E-003	3.38350E-004	-3.81273E-002	-3.39670E-002	1.70277E-003	2.40556E-003	-4.44853E-002	2.77437E-003
	25	25	5.00080E-002	-6.31287E-002	0.00000E+000	-3.15694E-003	-6.26391E-001	3.88846E-002	3.06302E+001	11	...........	6.48680E-002	-5.40944E-003	6.04697E-001	5.38602E-001	-2.69961E-002	-3.81451E-002	7.05545E-001	-4.39267E-002	-4.09503E-003	3.41491E-004	-3.81737E-002	-3.40012E-002	1.70423E-003	2.40805E-003	-4.45401E-002	2.77303E-003
	26	26	4.99909E-002	-6.28639E-002	0.00000E+000	-3.14263E-003	-6.23757E-001	3.87299E-002	3.07569E+001	11	...........	6.48340E-002	-5.42875E-003	6.04631E-001	5.38630E-001	-2.69918E-002	-3.81429E-002	7.05606E-001	-4.38771E-002	-4.07572E-003	3.41272E-004	-3.80095E-002	-3.38604E-002	1.69681E-003	2.39781E-003	-4.43572E-002	2.75829E-003
	27	27	4.99910E-002	-6.18353E-002	0.00000E+000	-3.09121E-003	-6.13539E-001	3.89142E-002	3.07630E+001	11	...........	6.49175E-002	-5.31056E-003	6.04622E-001	5.38720E-001	-2.69854E-002	-3.81719E-002	7.05620E-001	-4.38767E-002	-4.01419E-003	3.28380E-004	-3.73870E-002	-3.33119E-002	1.66865E-003	2.36037E-003	-4.36322E-002	2.71313E-003
	28	28	4.99897E-002	-6.14541E-002	0.00000E+000	-3.07207E-003	-6.09757E-001	3.90728E-002	3.11434E+001	11	...........	6.51675E-002	-5.39708E-003	6.04683E-001	5.38623E-001	-2.69767E-002	-3.81683E-002	7.05584E-001	-4.39776E-002	-4.00481E-003	3.31673E-004	-3.71602E-002	-3.31006E-002	1.65783E-003	2.34560E-003	-4.33610E-002	2.70260E-003
	29	29	4.99945E-002	-6.10851E-002	0.00000E+000	-3.05392E-003	-6.06081E-001	3.90498E-002	3.12180E+001	11	...........	6.51408E-002	-5.46431E-003	6.04888E-001	5.38513E-001	-2.69769E-002	-3.81833E-002	7.05605E-001	-4.39238E-002	-3.97913E-003	3.33787E-004	-3.69496E-002	-3.28951E-002	1.64789E-003	2.33243E-003	-4.31019E-002	2.68309E-003
	30	30	4.99930E-002	-6.06218E-002	0.00000E+000	-3.03066E-003	-6.01469E-001	3.91124E-002	3.12758E+001	11	...........	6.52603E-002	-5.37139E-003	6.04821E-001	5.38708E-001	-2.69708E-002	-3.81662E-002	7.05564E-001	-4.38237E-002	-3.95619E-003	3.25623E-004	-3.66653E-002	-3.26574E-002	1.63502E-003	2.31371E-003	-4.27726E-002	2.65667E-003
	31	31	4.99915E-002	-5.98065E-002	0.00000E+000	-2.98981E-003	-5.93368E-001	3.91820E-002	3.08949E+001	11	...........	6.53630E-002	-5.27069E-003	6.04674E-001	5.38823E-001	-2.69819E-002	-3.81751E-002	7.05508E-001	-4.37912E-002	-3.90913E-003	3.15222E-004	-3.61634E-002	-3.22251E-002	1.61369E-003	2.28312E-003	-4.21939E-002	2.61900E-003
	32	32	4.99915E-002	-5.88388E-002	0.00000E+000	-2.94144E-003	-5.83748E-001	3.91934E-002	3.11770E+001	11	...........	6.53793E-002	-5.27472E-003	6.04527E-001	5.38905E-001	-2.70039E-002	-3.81562E-002	7.05426E-001	-4.38778E-002	-3.84684E-003	3.10358E-004	-3.55696E-002	-3.17085E-002	1.58888E-003	2.24507E-003	-4.15064E-002	2.58171E-003
	33	33	4.99911E-002	-5.84980E-002	0.00000E+000	-2.92438E-003	-5.80355E-001	3.92969E-002	3.14125E+001	11	...........	6.55443E-002	-5.40069E-003	6.04558E-001	5.38876E-001	-2.69987E-002	-3.81446E-002	7.05461E-001	-4.38994E-002	-3.83421E-003	3.15930E-004	-3.53654E-002	-3.15231E-002	1.57937E-003	2.23138E-003	-4.12680E-002	2.56803E-003
	34	34	4.99909E-002	-5.79604E-002	0.00000E+000	-2.89749E-003	-5.75013E-001	3.93187E-002	3.14989E+001	11	...........	6.56097E-002	-5.36056E-003	6.04671E-001	5.38785E-001	-2.69987E-002	-3.81403E-002	7.05436E-001	-4.38732E-002	-3.80277E-003	3.10700E-004	-3.50470E-002	-3.12282E-002	1.56486E-003	2.21063E-003	-4.08873E-002	2.54291E-003
	35	35	4.99912E-002	-5.68750E-002	0.00000E+000	-2.84325E-003	-5.64214E-001	3.94122E-002	3.13182E+001	11	...........	6.57508E-002	-5.30125E-003	6.04715E-001	5.38683E-001	-2.70333E-002	-3.81301E-002	7.05410E-001	-4.38444E-002	-3.73958E-003	3.01508E-004	-3.43932E-002	-3.06376E-002	1.53752E-003	2.16865E-003	-4.01201E-002	2.49365E-003
	36	36	4.99821E-002	-5.58903E-002	0.00000E+000	-2.79351E-003	-5.54423E-001	3.93386E-002	3.06226E+001	11	...........	6.56146E-002	-5.30736E-003	6.04590E-001	5.38655E-001	-2.70561E-002	-3.81192E-002	7.05434E-001	-4.38799E-002	-3.66722E-003	2.96630E-004	-3.37907E-002	-3.01056E-002	1.51217E-003	2.13049E-003	-3.94269E-002	2.45246E-003
	37	37	5.00050E-002	-5.60972E-002	0.00000E+000	-2.80514E-003	-5.56480E-001	3.95466E-002	3.14333E+001	11	...........	6.59790E-002	-5.37069E-003	6.04635E-001	5.38872E-001	-2.70743E-002	-3.81206E-002	7.05363E-001	-4.38147E-002	-3.70124E-003	3.01281E-004	-3.39183E-002	-3.02292E-002	1.51879E-003	2.13846E-003	-3.95689E-002	2.45788E-003
	38	38	4.99947E-002	-5.59113E-002	0.00000E+000	-2.79527E-003	-5.54629E-001	3.95132E-002	3.14362E+001	11	...........	6.59143E-002	-5.36361E-003	6.04889E-001	5.38899E-001	-2.70799E-002	-3.81511E-002	7.05449E-001	-4.39481E-002	-3.68536E-003	2.99887E-004	-3.38201E-002	-3.01305E-002	1.51407E-003	2.13308E-003	-3.94426E-002	2.45719E-003
	39	39	4.99909E-002	-5.53528E-002	0.00000E+000	-2.76713E-003	-5.49073E-001	3.95902E-002	3.15478E+001	11	...........	6.60540E-002	-5.34056E-003	6.05025E-001	5.38963E-001	-2.70906E-002	-3.81801E-002	7.05464E-001	-4.39833E-002	-3.65627E-003	2.95615E-004	-3.34898E-002	-2.98331E-002	1.49954E-003	2.11338E-003	-3.90494E-002	2.43460E-003
	40	40	4.99957E-002	-5.47737E-002	0.00000E+000	-2.73845E-003	-5.43314E-001	3.96388E-002	3.15658E+001	11	...........	6.61318E-002	-5.31111E-003	6.05007E-001	5.38965E-001	-2.70893E-002	-3.81844E-002	7.05459E-001	-4.39043E-002	-3.62228E-003	2.90909E-004	-3.31385E-002	-2.95211E-002	1.48378E-003	2.09150E-003	-3.86406E-002	2.40480E-003
	41	41	4.99934E-002	-5.43257E-002	0.00000E+000	-2.71592E-003	-5.38861E-001	3.97119E-002	3.16397E+001	11	...........	6.62481E-002	-5.31653E-003	6.04929E-001	5.39069E-001	-2.70957E-002	-3.81803E-002	7.05340E-001	-4.38444E-002	-3.59897E-003	2.88824E-004	-3.28632E-002	-2.92853E-002	1.47199E-003	2.07417E-003	-3.83181E-002	2.38188E-003
	42	42	4.99893E-002	-5.36266E-002	0.00000E+000	-2.68076E-003	-5.31917E-001	3.97414E-002	3.09825E+001	11	...........	6.62867E-002	-5.18194E-003	6.04852E-001	5.38983E-001	-2.70975E-002	-3.81735E-002	7.05476E-001	-4.39124E-002	-3.55473E-003	2.77890E-004	-3.24362E-002	-2.89038E-002	1.45315E-003	2.04711E-003	-3.78323E-002	2.35487E-003
	43	43	4.99948E-002	-5.23296E-002	0.00000E+000	-2.61621E-003	-5.19011E-001	3.96946E-002	3.12556E+001	11	...........	6.62122E-002	-5.25194E-003	6.04870E-001	5.38965E-001	-2.70829E-002	-3.81496E-002	7.05440E-001	-4.38785E-002	-3.46486E-003	2.74832E-004	-3.16526E-002	-2.82038E-002	1.41724E-003	1.99635E-003	-3.69154E-002	2.29614E-003
	44	44	4.99934E-002	-5.27533E-002	0.00000E+000	-2.63732E-003	-5.23219E-001	3.98564E-002	3.17835E+001	11	...........	6.65017E-002	-5.25111E-003	6.04992E-001	5.39090E-001	-2.70737E-002	-3.81514E-002	7.05447E-001	-4.40118E-002	-3.50818E-003	2.77013E-004	-3.19153E-002	-2.84388E-002	1.42823E-003	2.01261E-003	-3.72147E-002	2.32177E-003
	45	45	4.99872E-002	-5.20470E-002	0.00000E+000	-2.60168E-003	-5.16204E-001	3.98091E-002	3.18476E+001	11	...........	6.64100E-002	-5.32028E-003	6.05058E-001	5.39023E-001	-2.70674E-002	-3.81578E-002	7.05543E-001	-4.40333E-002	-3.45644E-003	2.76904E-004	-3.14914E-002	-2.80545E-002	1.40877E-003	1.98600E-003	-3.67214E-002	2.29180E-003
	46	46	4.99922E-002	-5.11622E-002	0.00000E+000	-2.55771E-003	-5.07433E-001	3.98908E-002	3.15823E+001	11	...........	6.65642E-002	-5.35347E-003	6.05151E-001	5.39060E-001	-2.71039E-002	-3.81782E-002	7.05551E-001	-4.40311E-002	-3.40557E-003	2.73895E-004	-3.09609E-002	-2.75795E-002	1.38669E-003	1.95328E-003	-3.60975E-002	2.25273E-003
	47	47	4.99950E-002	-5.04049E-002	0.00000E+000	-2.51999E-003	-4.99898E-001	3.98269E-002	3.10758E+001	11	...........	6.64417E-002	-5.36694E-003	6.05067E-001	5.38895E-001	-2.71136E-002	-3.81779E-002	7.05501E-001	-4.40249E-002	-3.34899E-003	2.70520E-004	-3.04983E-002	-2.71630E-002	1.36666E-003	1.92435E-003	-3.55607E-002	2.21907E-003
	48	48	5.00009E-002	-5.06665E-002	0.00000E+000	-2.53337E-003	-5.02500E-001	4.00321E-002	3.17893E+001	11	...........	6.67944E-002	-5.33847E-003	6.04864E-001	5.38921E-001	-2.71268E-002	-3.81846E-002	7.05515E-001	-4.40006E-002	-3.38424E-003	2.70482E-004	-3.06463E-002	-2.73052E-002	1.37442E-003	1.93468E-003	-3.57459E-002	2.22935E-003
	49	49	4.99919E-002	-5.04445E-002	0.00000E+000	-2.52181E-003	-5.00291E-001	3.99985E-002	3.19688E+001	11	...........	6.67232E-002	-5.30569E-003	6.04853E-001	5.39000E-001	-2.71361E-002	-3.81819E-002	7.05631E-001	-4.40569E-002	-3.36582E-003	2.67643E-004	-3.05115E-002	-2.71896E-002	1.36887E-003	1.92607E-003	-3.55952E-002	2.22243E-003
	50	50	4.99931E-002	-4.98281E-002	0.00000E+000	-2.49106E-003	-4.94169E-001	4.00873E-002	3.20041E+001	11	...........	6.68442E-002	-5.23722E-003	6.04980E-001	5.38982E-001	-2.71410E-002	-3.81685E-002	7.05597E-001	-4.40549E-002	-3.33071E-003	2.60961E-004	-3.01450E-002	-2.68564E-002	1.35238E-003	1.90186E-003	-3.51585E-002	2.19517E-003
	51	51	4.99900E-002	-4.91451E-002	0.00000E+000	-2.45677E-003	-4.87371E-001	4.00933E-002	3.20781E+001	11	...........	6.68900E-002	-5.23444E-003	6.04882E-001	5.39089E-001	-2.71424E-002	-3.81785E-002	7.05530E-001	-4.39367E-002	-3.28731E-003	2.57247E-004	-2.97270E-002	-2.64936E-002	1.33391E-003	1.87628E-003	-3.46733E-002	2.15927E-003
	52	52	4.99968E-002	-4.87321E-002	0.00000E+000	-2.43645E-003	-4.83273E-001	4.01533E-002	3.19688E+001	11	...........	6.69890E-002	-5.10736E-003	6.04935E-001	5.39257E-001	-2.71324E-002	-3.81687E-002	7.05469E-001	-4.39228E-002	-3.26451E-003	2.48892E-004	-2.94797E-002	-2.62791E-002	1.32222E-003	1.86004E-003	-3.43790E-002	2.14045E-003
	53	53	4.99934E-002	-4.82642E-002	0.00000E+000	-2.41289E-003	-4.78612E-001	4.01472E-002	3.19131E+001	11	...........	6.69767E-002	-5.13097E-003	6.04719E-001	5.39320E-001	-2.71410E-002	-3.81665E-002	7.05580E-001	-4.38990E-002	-3.23257E-003	2.47642E-004	-2.91863E-002	-2.60299E-002	1.30994E-003	1.84208E-003	-3.40542E-002	2.11875E-003
	54	54	4.99934E-002	-4.78955E-002	0.00000E+000	-2.39446E-003	-4.74937E-001	4.02515E-002	3.21158E+001	11	...........	6.71454E-002	-5.10486E-003	6.04721E-001	5.39295E-001	-2.71100E-002	-3.81539E-002	7.05496E-001	-4.40778E-002	-3.21596E-003	2.44500E-004	-2.89634E-002	-2.58298E-002	1.29845E-003	1.82740E-003	-3.37901E-002	2.11113E-003
	55	55	4.99911E-002	-4.73979E-002	0.00000E+000	-2.36947E-003	-4.70000E-001	4.02633E-002	3.21757E+001	11	...........	6.71779E-002	-5.20611E-003	6.04822E-001	5.39229E-001	-2.71143E-002	-3.81635E-002	7.05473E-001	-4.40081E-002	-3.18409E-003	2.46759E-004	-2.86673E-002	-2.55583E-002	1.28516E-003	1.80887E-003	-3.34380E-002	2.08589E-003
	56	56	4.99860E-002	-4.65087E-002	0.00000E+000	-2.32478E-003	-4.61157E-001	4.02423E-002	3.17500E+001	11	...........	6.71462E-002	-5.14819E-003	6.04754E-001	5.39232E-001	-2.71261E-002	-3.81500E-002	7.05654E-001	-4.39981E-002	-3.12288E-003	2.39436E-004	-2.81263E-002	-2.50790E-002	1.26160E-003	1.77430E-003	-3.28190E-002	2.04629E-003
	57	57	5.00021E-002	-4.60395E-002	0.00000E+000	-2.30207E-003	-4.56494E-001	4.03623E-002	3.22292E+001	11	...........	6.73411E-002	-5.13125E-003	6.04761E-001	5.39361E-001	-2.71194E-002	-3.81626E-002	7.05451E-001	-4.41253E-002	-3.10035E-003	2.36240E-004	-2.78429E-002	-2.48319E-002	1.24857E-003	1.75699E-003	-3.24786E-002	2.03151E-003
	58	58	4.99919E-002	-4.58461E-002	0.00000E+000	-2.29193E-003	-4.54569E-001	4.03487E-002	3.23470E+001	11	...........	6.73251E-002	-5.23681E-003	6.04745E-001	5.39469E-001	-2.71129E-002	-3.81271E-002	7.05518E-001	-4.39917E-002	-3.08659E-003	2.40087E-004	-2.77252E-002	-2.47325E-002	1.24302E-003	1.74798E-003	-3.23452E-002	2.01685E-003
	59	59	4.99909E-002	-4.48302E-002	0.00000E+000	-2.24111E-003	-4.44469E-001	4.03991E-002	3.14356E+001	11	...........	6.74074E-002	-5.30903E-003	6.04800E-001	5.39531E-001	-2.71303E-002	-3.81117E-002	7.05502E-001	-4.39218E-002	-3.02189E-003	2.38005E-004	-2.71133E-002	-2.41873E-002	1.21626E-003	1.70855E-003	-3.16278E-002	1.96902E-003
	60	60	4.99945E-002	-4.40529E-002	0.00000E+000	-2.20240E-003	-4.36733E-001	4.03104E-002	3.18131E+001	11	...........	6.72594E-002	-5.30153E-003	6.04941E-001	5.39575E-001	-2.71164E-002	-3.81075E-002	7.05609E-001	-4.38532E-002	-2.96297E-003	2.33548E-004	-2.66494E-002	-2.37698E-002	1.19455E-003	1.67874E-003	-3.10841E-002	1.93186E-003
	61	61	5.00004E-002	-4.44599E-002	0.00000E+000	-2.22301E-003	-4.40778E-001	4.04795E-002	3.23805E+001	11	...........	6.75483E-002	-5.23819E-003	6.04986E-001	5.39611E-001	-2.71228E-002	-3.81262E-002	7.05618E-001	-4.38804E-002	-3.00319E-003	2.32889E-004	-2.68976E-002	-2.39910E-002	1.20587E-003	1.69509E-003	-3.13717E-002	1.95092E-003
	62	62	4.99885E-002	-4.39670E-002	0.00000E+000	-2.19785E-003	-4.35896E-001	4.05034E-002	3.21431E+001	11	...........	6.75571E-002	-5.37417E-003	6.05139E-001	5.39576E-001	-2.71376E-002	-3.81200E-002	7.05630E-001	-4.37086E-002	-2.97029E-003	2.36286E-004	-2.66062E-002	-2.37236E-002	1.19316E-003	1.67602E-003	-3.10245E-002	1.92174E-003
	63	63	4.99971E-002	-4.35771E-002	0.00000E+000	-2.17873E-003	-4.32009E-001	4.05375E-002	3.23811E+001	11	...........	6.76339E-002	-5.49139E-003	6.05166E-001	5.39507E-001	-2.71450E-002	-3.81168E-002	7.05683E-001	-4.37171E-002	-2.94729E-003	2.39299E-004	-2.63714E-002	-2.35101E-002	1.18290E-003	1.66102E-003	-3.07516E-002	1.90506E-003
	64	64	4.99948E-002	-4.31081E-002	0.00000E+000	-2.15518E-003	-4.27341E-001	4.05688E-002	3.23302E+001	11	...........	6.76808E-002	-5.49111E-003	6.05064E-001	5.39498E-001	-2.71489E-002	-3.81254E-002	7.05581E-001	-4.37519E-002	-2.91759E-003	2.36711E-004	-2.60832E-002	-2.32567E-002	1.17034E-003	1.64351E-003	-3.04162E-002	1.88606E-003
	65	65	4.99943E-002	-4.26455E-002	0.00000E+000	-2.13203E-003	-4.22729E-001	4.06249E-002	3.24479E+001	11	...........	6.77739E-002	-5.45722E-003	6.05127E-001	5.39515E-001	-2.71226E-002	-3.81181E-002	7.05647E-001	-4.38953E-002	-2.89025E-003	2.32726E-004	-2.58059E-002	-2.30079E-002	1.15666E-003	1.62556E-003	-3.00927E-002	1.87194E-003
	66	66	4.99915E-002	-4.22439E-002	0.00000E+000	-2.11184E-003	-4.18742E-001	4.06720E-002	3.24270E+001	11	...........	6.78563E-002	-5.38361E-003	6.05193E-001	5.39532E-001	-2.71122E-002	-3.81503E-002	7.05628E-001	-4.38868E-002	-2.86651E-003	2.27424E-004	-2.55657E-002	-2.27919E-002	1.14532E-003	1.61161E-003	-2.98084E-002	1.85395E-003
	67	67	4.99899E-002	-4.16189E-002	0.00000E+000	-2.08052E-003	-4.12525E-001	4.06810E-002	3.25490E+001	11	...........	6.78656E-002	-5.37875E-003	6.05251E-001	5.39414E-001	-2.71040E-002	-3.81435E-002	7.05520E-001	-4.38618E-002	-2.82449E-003	2.23857E-004	-2.51898E-002	-2.24498E-002	1.12804E-003	1.58749E-003	-2.93629E-002	1.82548E-003
	68	68	4.99956E-002	-4.12853E-002	0.00000E+000	-2.06408E-003	-4.09229E-001	4.07201E-002	3.26241E+001	11	...........	6.79378E-002	-5.32542E-003	6.05227E-001	5.39329E-001	-2.70844E-002	-3.81483E-002	7.05391E-001	-4.39582E-002	-2.80483E-003	2.19861E-004	-2.49870E-002	-2.22663E-002	1.11819E-003	1.57496E-003	-2.91222E-002	1.81483E-003
	69	69	4.99924E-002	-4.07854E-002	0.00000E+000	-2.03896E-003	-4.04270E-001	4.07502E-002	3.27066E+001	11	...........	6.79819E-002	-5.36306E-003	6.05201E-001	5.39370E-001	-2.70928E-002	-3.81678E-002	7.05401E-001	-4.38807E-002	-2.77267E-003	2.18734E-004	-2.46834E-002	-2.19984E-002	1.10499E-003	1.55669E-003	-2.87701E-002	1.78969E-003
	70	70	4.99920E-002	-4.04584E-002	0.00000E+000	-2.02260E-003	-4.01012E-001	4.07916E-002	3.19856E+001	11	...........	6.80485E-002	-5.40500E-003	6.05227E-001	5.39350E-001	-2.70887E-002	-3.81754E-002	7.05452E-001	-4.38314E-002	-2.75313E-003	2.18678E-004	-2.44865E-002	-2.18212E-002	1.09597E-003	1.54452E-003	-2.85415E-002	1.77335E-003
	71	71	5.00006E-002	-3.96281E-002	0.00000E+000	-1.98143E-003	-3.92758E-001	4.07661E-002	3.26288E+001	11	...........	6.79988E-002	-5.27931E-003	6.05342E-001	5.39266E-001	-2.70746E-002	-3.81947E-002	7.05367E-001	-4.38690E-002	-2.69466E-003	2.09209E-004	-2.39885E-002	-2.13701E-002	1.07291E-003	1.51358E-003	-2.79523E-002	1.73845E-003
	72	72	4.99944E-002	-3.97877E-002	0.00000E+000	-1.98916E-003	-3.94348E-001	4.08248E-002	3.28583E+001	11	...........	6.81014E-002	-5.27694E-003	6.05468E-001	5.39285E-001	-2.70828E-002	-3.82053E-002	7.05483E-001	-4.39928E-002	-2.70960E-003	2.09957E-004	-2.40902E-002	-2.14569E-002	1.07756E-003	1.52010E-003	-2.80695E-002	1.75037E-003
	73	73	4.99933E-002	-3.92441E-002	0.00000E+000	-1.96195E-003	-3.88942E-001	4.08073E-002	3.29050E+001	11	...........	6.80846E-002	-5.28486E-003	6.05679E-001	5.39321E-001	-2.70733E-002	-3.81750E-002	7.05514E-001	-4.39336E-002	-2.67192E-003	2.07400E-004	-2.37694E-002	-2.11652E-002	1.06247E-003	1.49815E-003	-2.76873E-002	1.72414E-003
	74	74	4.99939E-002	-3.87702E-002	0.00000E+000	-1.93827E-003	-3.84232E-001	4.08753E-002	3.29174E+001	11	...........	6.82004E-002	-5.15875E-003	6.05794E-001	5.39266E-001	-2.70407E-002	-3.81551E-002	7.05483E-001	-4.37557E-002	-2.64414E-003	2.00006E-004	-2.34867E-002	-2.09075E-002	1.04837E-003	1.47928E-003	-2.73517E-002	1.69642E-003
	75	75	4.99939E-002	-3.82976E-002	0.00000E+000	-1.91465E-003	-3.79535E-001	4.09402E-002	3.26819E+001	11	...........	6.83106E-002	-5.16792E-003	6.05811E-001	5.39241E-001	-2.70301E-002	-3.81482E-002	7.05484E-001	-4.38593E-002	-2.61613E-003	1.97919E-004	-2.32011E-002	-2.06517E-002	1.03519E-003	1.46098E-003	-2.70183E-002	1.67971E-003
	76	76	4.99848E-002	-3.72058E-002	0.00000E+000	-1.85972E-003	-3.68666E-001	4.07470E-002	3.16918E+001	11	...........	6.79729E-002	-5.28694E-003	6.05789E-001	5.39227E-001	-2.70192E-002	-3.81419E-002	7.05409E-001	-4.39026E-002	-2.52899E-003	1.96705E-004	-2.25389E-002	-2.00624E-002	1.00527E-003	1.41910E-003	-2.62453E-002	1.63343E-003
	77	77	5.00064E-002	-3.74120E-002	0.00000E+000	-1.87084E-003	-3.70718E-001	4.10477E-002	3.29428E+001	11	...........	6.84851E-002	-5.21903E-003	6.05745E-001	5.39191E-001	-2.70082E-002	-3.81158E-002	7.05272E-001	-4.40422E-002	-2.56217E-003	1.95254E-004	-2.26621E-002	-2.01722E-002	1.01043E-003	1.42599E-003	-2.63857E-002	1.64771E-003
	78	78	4.99925E-002	-3.71963E-002	0.00000E+000	-1.85953E-003	-3.68572E-001	4.09817E-002	3.31664E+001	11	...........	6.83718E-002	-5.20972E-003	6.05531E-001	5.39107E-001	-2.70032E-002	-3.81289E-002	7.05243E-001	-4.40989E-002	-2.54318E-003	1.93782E-004	-2.25235E-002	-2.00528E-002	1.00442E-003	1.41825E-003	-2.62324E-002	1.64031E-003
	79	79	4.99964E-002	-3.67547E-002	0.00000E+000	-1.83760E-003	-3.64183E-001	4.10024E-002	3.31295E+001	11	...........	6.84022E-002	-5.15611E-003	6.05340E-001	5.39062E-001	-2.70051E-002	-3.81347E-002	7.05388E-001	-4.39804E-002	-2.51410E-003	1.89511E-004	-2.22491E-002	-1.98130E-002	9.92564E-004	1.40163E-003	-2.59263E-002	1.61648E-003
	80	80	4.99820E-002	-3.61944E-002	0.00000E+000	-1.80907E-003	-3.58608E-001	4.10137E-002	3.21906E+001	11	...........	6.84133E-002	-5.08861E-003	6.05303E-001	5.39301E-001	-2.69967E-002	-3.81365E-002	7.05386E-001	-4.39488E-002	-2.47618E-003	1.84179E-004	-2.19086E-002	-1.95197E-002	9.77128E-004	1.38033E-003	-2.55310E-002	1.59070E-003
	81	81	5.00083E-002	-3.56850E-002	0.00000E+000	-1.78455E-003	-3.53544E-001	4.10965E-002	3.28897E+001	11	...........	6.85556E-002	-5.18000E-003	6.05322E-001	5.39392E-001	-2.69760E-002	-3.81289E-002	7.05298E-001	-4.39117E-002	-2.44641E-003	1.84848E-004	-2.16009E-002	-1.92482E-002	9.62638E-004	1.36063E-003	-2.51686E-002	1.56699E-003
	82	82	4.99904E-002	-3.54717E-002	0.00000E+000	-1.77325E-003	-3.51421E-001	4.10324E-002	3.31064E+001	11	...........	6.84433E-002	-5.24569E-003	6.05366E-001	5.39355E-001	-2.69746E-002	-3.81421E-002	7.05286E-001	-4.38860E-002	-2.42780E-003	1.86074E-004	-2.14734E-002	-1.91318E-002	9.56835E-004	1.35296E-003	-2.50177E-002	1.55671E-003
	83	83	4.99933E-002	-3.50103E-002	0.00000E+000	-1.75028E-003	-3.46819E-001	4.10847E-002	3.32240E+001	11	...........	6.85579E-002	-5.29444E-003	6.05388E-001	5.39376E-001	-2.69657E-002	-3.81387E-002	7.05297E-001	-4.39331E-002	-2.40023E-003	1.85360E-004	-2.11948E-002	-1.88837E-002	9.44077E-004	1.33525E-003	-2.46927E-002	1.53811E-003
	84	84	4.99954E-002	-3.46531E-002	0.00000E+000	-1.73249E-003	-3.43282E-001	4.11371E-002	3.33424E+001	11	...........	6.86362E-002	-5.33889E-003	6.05476E-001	5.39360E-001	-2.69617E-002	-3.81235E-002	7.05351E-001	-4.39557E-002	-2.37846E-003	1.85009E-004	-2.09816E-002	-1.86905E-002	9.34304E-004	1.32110E-003	-2.44426E-002	1.52320E-003
	85	85	4.99940E-002	-3.43998E-002	0.00000E+000	-1.71979E-003	-3.40762E-001	4.11484E-002	3.34066E+001	11	...........	6.86640E-002	-5.44847E-003	6.05570E-001	5.39366E-001	-2.69779E-002	-3.80994E-002	7.05471E-001	-4.39681E-002	-2.36203E-003	1.87427E-004	-2.08315E-002	-1.85541E-002	9.28036E-004	1.31061E-003	-2.42681E-002	1.51249E-003
	86	86	4.99955E-002	-3.39963E-002	0.00000E+000	-1.69967E-003	-3.36749E-001	4.11786E-002	3.34610E+001	11	...........	6.87029E-002	-5.43111E-003	6.05670E-001	5.39329E-001	-2.70007E-002	-3.80840E-002	7.05521E-001	-4.39786E-002	-2.33565E-003	1.84638E-004	-2.05905E-002	-1.83352E-002	9.17925E-004	1.29472E-003	-2.39851E-002	1.49511E-003
	87	87	4.99942E-002	-3.35275E-002	0.00000E+000	-1.67618E-003	-3.32087E-001	4.11858E-002	3.34731E+001	11	...........	6.87151E-002	-5.36028E-003	6.05642E-001	5.39204E-001	-2.70226E-002	-3.80849E-002	7.05417E-001	-4.39161E-002	-2.30385E-003	1.79717E-004	-2.03057E-002	-1.80782E-002	9.06003E-004	1.27689E-003	-2.36509E-002	1.47240E-003
	88	88	4.99899E-002	-3.30540E-002	0.00000E+000	-1.65237E-003	-3.27381E-001	4.12407E-002	3.32084E+001	11	...........	6.88062E-002	-5.29167E-003	6.05652E-001	5.39221E-001	-2.70204E-002	-3.81117E-002	7.05535E-001	-4.38643E-002	-2.27432E-003	1.74911E-004	-2.00192E-002	-1.78234E-002	8.93134E-004	1.25974E-003	-2.33208E-002	1.44989E-003
	89	89	4.99911E-002	-3.22497E-002	0.00000E+000	-1.61220E-003	-3.19377E-001	4.11849E-002	3.21677E+001	11	...........	6.86911E-002	-5.38236E-003	6.05686E-001	5.39234E-001	-2.70018E-002	-3.81090E-002	7.05519E-001	-4.37692E-002	-2.21527E-003	1.73580E-004	-1.95332E-002	-1.73902E-002	8.70800E-004	1.22901E-003	-2.27528E-002	1.41154E-003
	90	90	5.00023E-002	-3.18125E-002	0.00000E+000	-1.59070E-003	-3.15034E-001	4.12086E-002	3.27367E+001	11	...........	6.87362E-002	-5.27333E-003	6.05604E-001	5.39267E-001	-2.69906E-002	-3.81240E-002	7.05445E-001	-4.39044E-002	-2.18667E-003	1.67758E-004	-1.92658E-002	-1.71554E-002	8.58637E-004	1.21282E-003	-2.24420E-002	1.39671E-003
	91	91	4.99946E-002	-3.19854E-002	0.00000E+000	-1.59910E-003	-3.16757E-001	4.13508E-002	3.35448E+001	11	...........	6.89894E-002	-5.34917E-003	6.05450E-001	5.39379E-001	-2.70143E-002	-3.81078E-002	7.05561E-001	-4.38440E-002	-2.20665E-003	1.71095E-004	-1.93656E-002	-1.72522E-002	8.64063E-004	1.21889E-003	-2.25676E-002	1.40237E-003
	92	92	4.99953E-002	-3.17083E-002	0.00000E+000	-1.58527E-003	-3.13994E-001	4.13177E-002	3.36454E+001	11	...........	6.89275E-002	-5.36542E-003	6.05455E-001	5.39432E-001	-2.70353E-002	-3.80818E-002	7.05589E-001	-4.38679E-002	-2.18558E-003	1.70128E-004	-1.91980E-002	-1.71045E-002	8.57244E-004	1.20751E-003	-2.23731E-002	1.39098E-003
	93	93	4.99965E-002	-3.13067E-002	0.00000E+000	-1.56523E-003	-3.10001E-001	4.13079E-002	3.36588E+001	11	...........	6.89261E-002	-5.26750E-003	6.05360E-001	5.39434E-001	-2.70482E-002	-3.80899E-002	7.05590E-001	-4.39261E-002	-2.15785E-003	1.64908E-004	-1.89518E-002	-1.68879E-002	8.46789E-004	1.19247E-003	-2.20897E-002	1.37518E-003
	94	94	4.99947E-002	-3.09508E-002	0.00000E+000	-1.54738E-003	-3.06499E-001	4.13414E-002	3.36828E+001	11	...........	6.89631E-002	-5.15278E-003	6.05146E-001	5.39494E-001	-2.70332E-002	-3.80893E-002	7.05458E-001	-4.39586E-002	-2.13446E-003	1.59483E-004	-1.87298E-002	-1.66978E-002	8.36700E-004	1.17890E-003	-2.18345E-002	1.36056E-003
	95	95	4.99978E-002	-3.07249E-002	0.00000E+000	-1.53618E-003	-3.04256E-001	4.13537E-002	3.37750E+001	11	...........	6.89811E-002	-5.25042E-003	6.05156E-001	5.39360E-001	-2.70222E-002	-3.81018E-002	7.05453E-001	-4.39992E-002	-2.11944E-003	1.61319E-004	-1.85934E-002	-1.65718E-002	8.30256E-004	1.17067E-003	-2.16750E-002	1.35187E-003
	96	96	4.99924E-002	-3.04203E-002	0.00000E+000	-1.52078E-003	-3.01220E-001	4.14186E-002	3.35846E+001	11	...........	6.90893E-002	-5.24917E-003	6.05184E-001	5.39367E-001	-2.70415E-002	-3.80833E-002	7.05530E-001	-4.39028E-002	-2.10172E-003	1.59681E-004	-1.84099E-002	-1.64077E-002	8.22611E-004	1.15851E-003	-2.14624E-002	1.33554E-003
	97	97	4.99942E-002	-2.99118E-002	0.00000E+000	-1.49542E-003	-2.96149E-001	4.13827E-002	3.36309E+001	11	...........	6.90522E-002	-5.31000E-003	6.05285E-001	5.39312E-001	-2.70417E-002	-3.80810E-002	7.05401E-001	-4.38196E-002	-2.06547E-003	1.58832E-004	-1.81052E-002	-1.61318E-002	8.08864E-004	1.13907E-003	-2.10998E-002	1.31072E-003
	98	98	4.99910E-002	-2.94454E-002	0.00000E+000	-1.47201E-003	-2.91517E-001	4.13720E-002	3.33555E+001	11	...........	6.90165E-002	-5.31069E-003	6.05234E-001	5.39265E-001	-2.70335E-002	-3.80554E-002	7.05352E-001	-4.38086E-002	-2.03222E-003	1.56376E-004	-1.78214E-002	-1.58789E-002	7.96012E-004	1.12056E-003	-2.07694E-002	1.28996E-003
	99	99	5.00027E-002	-2.94481E-002	0.00000E+000	-1.47248E-003	-2.91556E-001	4.14975E-002	3.38987E+001	11	...........	6.92410E-002	-5.33083E-003	6.05258E-001	5.39198E-001	-2.70297E-002	-3.80554E-002	7.05263E-001	-4.37950E-002	-2.03901E-003	1.56983E-004	-1.78237E-002	-1.58784E-002	7.95974E-004	1.12066E-003	-2.07686E-002	1.28968E-003
	100	100	4.99933E-002	-2.90729E-002	0.00000E+000	-1.45345E-003	-2.87823E-001	4.14412E-002	3.40282E+001	11	...........	6.91429E-002	-5.33639E-003	6.05177E-001	5.39151E-001	-2.70453E-002	-3.80344E-002	7.05386E-001	-4.38682E-002	-2.01018E-003	1.55144E-004	-1.75942E-002	-1.56747E-002	7.86284E-004	1.10577E-003	-2.05076E-002	1.27537E-003
	101	101	4.99934E-002	-2.86639E-002	0.00000E+000	-1.43301E-003	-2.83748E-001	4.14715E-002	3.30652E+001	11	...........	6.91815E-002	-5.34417E-003	6.05219E-001	5.39196E-001	-2.70483E-002	-3.80553E-002	7.05525E-001	-4.38172E-002	-1.98301E-003	1.53185E-004	-1.73480E-002	-1.54555E-002	7.75311E-004	1.09081E-003	-2.02231E-002	1.25597E-003
	102	102	4.99959E-002	-2.79962E-002	0.00000E+000	-1.39970E-003	-2.77118E-001	4.14511E-002	3.38231E+001	11	...........	6.91536E-002	-5.34083E-003	6.05235E-001	5.39021E-001	-2.70614E-002	-3.80569E-002	7.05541E-001	-4.38165E-002	-1.93604E-003	1.49523E-004	-1.69443E-002	-1.50906E-002	7.57617E-004	1.06545E-003	-1.97525E-002	1.22670E-003
	103	103	4.99920E-002	-2.78202E-002	0.00000E+000	-1.39079E-003	-2.75366E-001	4.15532E-002	3.39932E+001	11	...........	6.93236E-002	-5.37708E-003	6.05155E-001	5.38966E-001	-2.70686E-002	-3.80453E-002	7.05670E-001	-4.38329E-002	-1.92860E-003	1.49592E-004	-1.68355E-002	-1.49941E-002	7.53054E-004	1.05843E-003	-1.96319E-002	1.21944E-003
	104	104	4.99964E-002	-2.73647E-002	0.00000E+000	-1.36813E-003	-2.70827E-001	4.15186E-002	3.33074E+001	11	...........	6.92768E-002	-5.43764E-003	6.05110E-001	5.38980E-001	-2.70679E-002	-3.80244E-002	7.05661E-001	-4.38893E-002	-1.89574E-003	1.48799E-004	-1.65586E-002	-1.47490E-002	7.40704E-004	1.04053E-003	-1.93102E-002	1.20102E-003
	105	105	4.99969E-002	-2.69370E-002	0.00000E+000	-1.34677E-003	-2.66581E-001	4.14890E-002	3.37716E+001	11	...........	6.92239E-002	-5.42903E-003	6.05155E-001	5.38910E-001	-2.70633E-002	-3.80218E-002	7.05568E-001	-4.38278E-002	-1.86469E-003	1.46242E-004	-1.63011E-002	-1.45166E-002	7.29006E-004	1.02420E-003	-1.90059E-002	1.18059E-003
	106	106	4.99942E-002	-2.68625E-002	0.00000E+000	-1.34297E-003	-2.65842E-001	4.16251E-002	3.40494E+001	11	...........	6.94500E-002	-5.29958E-003	6.05047E-001	5.38859E-001	-2.70521E-002	-3.80506E-002	7.05397E-001	-4.37878E-002	-1.86560E-003	1.42360E-004	-1.62530E-002	-1.44751E-002	7.26685E-004	1.02213E-003	-1.89487E-002	1.17625E-003
	107	107	4.99962E-002	-2.65258E-002	0.00000E+000	-1.32619E-003	-2.62488E-001	4.16076E-002	3.39824E+001	11	...........	6.94103E-002	-5.21847E-003	6.05100E-001	5.38817E-001	-2.70640E-002	-3.80953E-002	7.05342E-001	-4.38212E-002	-1.84117E-003	1.38424E-004	-1.60508E-002	-1.42926E-002	7.17896E-004	1.01051E-003	-1.87098E-002	1.16240E-003
	108	108	4.99963E-002	-2.63025E-002	0.00000E+000	-1.31503E-003	-2.60268E-001	4.16167E-002	3.41255E+001	11	...........	6.94460E-002	-5.31375E-003	6.04988E-001	5.38865E-001	-2.70672E-002	-3.80986E-002	7.05417E-001	-4.38250E-002	-1.82660E-003	1.39765E-004	-1.59127E-002	-1.41735E-002	7.11936E-004	1.00209E-003	-1.85542E-002	1.15271E-003
	109	109	4.99949E-002	-2.59831E-002	0.00000E+000	-1.29902E-003	-2.57090E-001	4.16196E-002	3.41845E+001	11	...........	6.94665E-002	-5.32514E-003	6.04859E-001	5.38801E-001	-2.70647E-002	-3.81137E-002	7.05510E-001	-4.38679E-002	-1.80496E-003	1.38364E-004	-1.57161E-002	-1.39997E-002	7.03225E-004	9.90313E-004	-1.83313E-002	1.13982E-003
	110	110	4.99995E-002	-2.56870E-002	0.00000E+000	-1.28434E-003	-2.54153E-001	4.16824E-002	3.33224E+001	11	...........	6.95485E-002	-5.32000E-003	6.04787E-001	5.38873E-001	-2.70211E-002	-3.81187E-002	7.05559E-001	-4.38265E-002	-1.78649E-003	1.36655E-004	-1.55352E-002	-1.38420E-002	6.94092E-004	9.79158E-004	-1.81237E-002	1.12577E-003
	111	111	4.99889E-002	-2.49106E-002	0.00000E+000	-1.24525E-003	-2.46416E-001	4.15786E-002	3.38413E+001	11	...........	6.93625E-002	-5.33486E-003	6.04614E-001	5.38798E-001	-2.70101E-002	-3.80918E-002	7.05529E-001	-4.38399E-002	-1.72786E-003	1.32894E-004	-1.50613E-002	-1.34218E-002	6.72838E-004	9.48889E-004	-1.75751E-002	1.09208E-003
	112	112	4.99981E-002	-2.49280E-002	0.00000E+000	-1.24635E-003	-2.46595E-001	4.17115E-002	3.43373E+001	11	...........	6.95924E-002	-5.41736E-003	6.04663E-001	5.38889E-001	-2.70364E-002	-3.81058E-002	7.05477E-001	-4.39153E-002	-1.73480E-003	1.35044E-004	-1.50730E-002	-1.34334E-002	6.73963E-004	9.49902E-004	-1.75861E-002	1.09472E-003
	113	113	4.99963E-002	-2.47270E-002	0.00000E+000	-1.23626E-003	-2.44586E-001	4.16892E-002	3.43886E+001	11	...........	6.95678E-002	-5.40153E-003	6.04782E-001	5.38858E-001	-2.70469E-002	-3.80982E-002	7.05489E-001	-4.38957E-002	-1.72020E-003	1.33564E-004	-1.49544E-002	-1.33244E-002	6.68790E-004	9.42055E-004	-1.74446E-002	1.08541E-003
	114	114	4.99929E-002	-2.43040E-002	0.00000E+000	-1.21503E-003	-2.40397E-001	4.17238E-002	3.43850E+001	11	...........	6.95950E-002	-5.35333E-003	6.04770E-001	5.38940E-001	-2.70293E-002	-3.80971E-002	7.05673E-001	-4.38510E-002	-1.69144E-003	1.30107E-004	-1.46983E-002	-1.30984E-002	6.56920E-004	9.25911E-004	-1.71507E-002	1.06575E-003
	115	115	4.99943E-002	-2.38832E-002	0.00000E+000	-1.19403E-003	-2.36208E-001	4.16909E-002	3.29033E+001	11	...........	6.95560E-002	-5.31944E-003	6.04819E-001	5.38933E-001	-2.70539E-002	-3.80671E-002	7.05542E-001	-4.41217E-002	-1.66122E-003	1.27045E-004	-1.44450E-002	-1.28714E-002	6.46134E-004	9.09164E-004	-1.68506E-002	1.05377E-003
	116	116	5.00014E-002	-2.35941E-002	0.00000E+000	-1.17974E-003	-2.33337E-001	4.17245E-002	3.40711E+001	11	...........	6.96139E-002	-5.28306E-003	6.04857E-001	5.38905E-001	-2.70283E-002	-3.80819E-002	7.05506E-001	-4.41249E-002	-1.64248E-003	1.24649E-004	-1.42711E-002	-1.27150E-002	6.37710E-004	8.98510E-004	-1.66458E-002	1.04109E-003
	117	117	4.99962E-002	-2.36775E-002	0.00000E+000	-1.18379E-003	-2.34162E-001	4.17872E-002	3.44053E+001	11	...........	6.97060E-002	-5.34861E-003	6.04835E-001	5.38901E-001	-2.70344E-002	-3.80633E-002	7.05473E-001	-4.40594E-002	-1.65047E-003	1.26642E-004	-1.43210E-002	-1.27599E-002	6.40109E-004	9.01246E-004	-1.67039E-002	1.04322E-003
	118	118	4.99951E-002	-2.33843E-002	0.00000E+000	-1.16910E-003	-2.31247E-001	4.17762E-002	3.44650E+001	11	...........	6.97017E-002	-5.31056E-003	6.04858E-001	5.39083E-001	-2.70096E-002	-3.80743E-002	7.05598E-001	-4.40003E-002	-1.62993E-003	1.24184E-004	-1.41442E-002	-1.26061E-002	6.31601E-004	8.90342E-004	-1.64999E-002	1.02892E-003
	119	119	4.99970E-002	-2.31108E-002	0.00000E+000	-1.15547E-003	-2.28539E-001	4.17863E-002	3.45186E+001	11	...........	6.97132E-002	-5.37069E-003	6.05020E-001	5.39088E-001	-2.70050E-002	-3.80860E-002	7.05490E-001	-4.40262E-002	-1.61113E-003	1.24121E-004	-1.39825E-002	-1.24587E-002	6.24107E-004	8.80197E-004	-1.63044E-002	1.01748E-003
	120	120	4.99983E-002	-2.28795E-002	0.00000E+000	-1.14394E-003	-2.26232E-001	4.18098E-002	3.45399E+001	11	...........	6.97578E-002	-5.33292E-003	6.04919E-001	5.39165E-001	-2.70017E-002	-3.80821E-002	7.05533E-001	-4.39793E-002	-1.59602E-003	1.22014E-004	-1.38402E-002	-1.23358E-002	6.17784E-004	8.71298E-004	-1.61422E-002	1.00622E-003
	121	121	4.99934E-002	-2.26678E-002	0.00000E+000	-1.13324E-003	-2.24123E-001	4.18388E-002	3.44048E+001	11	...........	6.98121E-002	-5.35972E-003	6.04994E-001	5.39052E-001	-2.70078E-002	-3.80708E-002	7.05658E-001	-4.40043E-002	-1.58249E-003	1.21493E-004	-1.37139E-002	-1.22191E-002	6.12207E-004	8.62982E-004	-1.59957E-002	9.97480E-004
	122	122	4.99951E-002	-2.23006E-002	0.00000E+000	-1.11492E-003	-2.20470E-001	4.18234E-002	3.43308E+001	11	...........	6.97786E-002	-5.42097E-003	6.05156E-001	5.38974E-001	-2.70347E-002	-3.80858E-002	7.05456E-001	-4.40643E-002	-1.55610E-003	1.20891E-004	-1.34953E-002	-1.20194E-002	6.02891E-004	8.49337E-004	-1.57321E-002	9.82661E-004
	123	123	4.99962E-002	-2.19420E-002	0.00000E+000	-1.09702E-003	-2.16904E-001	4.17992E-002	3.43610E+001	11	...........	6.97229E-002	-5.38833E-003	6.05123E-001	5.39059E-001	-2.70244E-002	-3.81017E-002	7.05352E-001	-4.40618E-002	-1.52986E-003	1.18231E-004	-1.32776E-002	-1.18281E-002	5.92972E-004	8.36028E-004	-1.54769E-002	9.66806E-004
	124	124	4.99978E-002	-2.18093E-002	0.00000E+000	-1.09042E-003	-2.15597E-001	4.18990E-002	3.45692E+001	11	...........	6.99053E-002	-5.27250E-003	6.05142E-001	5.39015E-001	-2.70146E-002	-3.81269E-002	7.05269E-001	-4.40204E-002	-1.52459E-003	1.14990E-004	-1.31977E-002	-1.17556E-002	5.89170E-004	8.31522E-004	-1.53814E-002	9.60055E-004
	125	125	4.99957E-002	-2.15665E-002	0.00000E+000	-1.07823E-003	-2.13172E-001	4.18858E-002	3.45915E+001	11	...........	6.98828E-002	-5.24583E-003	6.05208E-001	5.38856E-001	-2.70292E-002	-3.80862E-002	7.05428E-001	-4.39464E-002	-1.50712E-003	1.13134E-004	-1.30522E-002	-1.16212E-002	5.82923E-004	8.21385E-004	-1.52136E-002	9.47768E-004
	126	126	4.99959E-002	-2.12974E-002	0.00000E+000	-1.06478E-003	-2.10494E-001	4.19022E-002	3.46335E+001	11	...........	6.99079E-002	-5.35347E-003	6.05144E-001	5.38776E-001	-2.70265E-002	-3.80464E-002	7.05557E-001	-4.38919E-002	-1.48885E-003	1.14015E-004	-1.28880E-002	-1.14745E-002	5.75594E-004	8.10288E-004	-1.50265E-002	9.34783E-004
	127	127	4.99928E-002	-2.08938E-002	0.00000E+000	-1.04454E-003	-2.06481E-001	4.19204E-002	3.42109E+001	11	...........	6.99367E-002	-5.34403E-003	6.04916E-001	5.38839E-001	-2.70300E-002	-3.80481E-002	7.05640E-001	-4.38811E-002	-1.46124E-003	1.11657E-004	-1.26390E-002	-1.12584E-002	5.64760E-004	7.94969E-004	-1.47435E-002	9.16844E-004
	128	128	4.99926E-002	-2.04349E-002	0.00000E+000	-1.02159E-003	-2.01932E-001	4.18515E-002	3.31468E+001	11	...........	6.98235E-002	-5.36014E-003	6.04934E-001	5.38947E-001	-2.70514E-002	-3.80356E-002	7.05660E-001	-4.37676E-002	-1.42683E-003	1.09534E-004	-1.23617E-002	-1.10133E-002	5.52791E-004	7.77251E-004	-1.44201E-002	8.94386E-004
	129	129	5.00037E-002	-2.03001E-002	0.00000E+000	-1.01508E-003	-2.00595E-001	4.19389E-002	3.41457E+001	11	...........	6.99693E-002	-5.32194E-003	6.04957E-001	5.39031E-001	-2.70319E-002	-3.80258E-002	7.05693E-001	-4.38508E-002	-1.42038E-003	1.08036E-004	-1.22807E-002	-1.09424E-002	5.48752E-004	7.71929E-004	-1.43256E-002	8.90177E-004
	130	130	4.99954E-002	-2.02148E-002	0.00000E+000	-1.01065E-003	-1.99741E-001	4.18795E-002	3.38499E+001	11	...........	6.98835E-002	-5.32431E-003	6.05050E-001	5.39028E-001	-2.70189E-002	-3.80382E-002	7.05624E-001	-4.39618E-002	-1.41268E-003	1.07630E-004	-1.22310E-002	-1.08964E-002	5.46183E-004	7.68936E-004	-1.42641E-002	8.88681E-004
	131	131	4.99967E-002	-1.97820E-002	0.00000E+000	-9.89037E-004	-1.95433E-001	4.19048E-002	3.45393E+001	11	...........	6.99181E-002	-5.34806E-003	6.05168E-001	5.39079E-001	-2.70175E-002	-3.80478E-002	7.05680E-001	-4.38456E-002	-1.38312E-003	1.05795E-004	-1.19715E-002	-1.06641E-002	5.34461E-004	7.52663E-004	-1.39598E-002	8.67355E-004
	132	132	4.99961E-002	-1.97907E-002	0.00000E+000	-9.89460E-004	-1.95521E-001	4.19986E-002	3.47889E+001	11	...........	7.00690E-002	-5.38569E-003	6.05148E-001	5.39076E-001	-2.70268E-002	-3.80764E-002	7.05564E-001	-4.38251E-002	-1.38672E-003	1.06587E-004	-1.19763E-002	-1.06687E-002	5.34880E-004	7.53560E-004	-1.39636E-002	8.67332E-004
	133	133	4.99975E-002	-1.95154E-002	0.00000E+000	-9.75720E-004	-1.92767E-001	4.19535E-002	3.48005E+001	11	...........	7.00026E-002	-5.25403E-003	6.05102E-001	5.39009E-001	-2.70233E-002	-3.80460E-002	7.05560E-001	-4.38810E-002	-1.36613E-003	1.02534E-004	-1.18088E-002	-1.05190E-002	5.27371E-004	7.42482E-004	-1.37693E-002	8.56354E-004
	134	134	4.99961E-002	-1.93103E-002	0.00000E+000	-9.65441E-004	-1.90741E-001	4.19730E-002	3.48050E+001	11	...........	7.00300E-002	-5.17056E-003	6.05082E-001	5.38931E-001	-2.70178E-002	-3.80250E-002	7.05608E-001	-4.38408E-002	-1.35230E-003	9.98450E-005	-1.16843E-002	-1.04069E-002	5.21722E-004	7.34275E-004	-1.36255E-002	8.46580E-004
	135	135	4.99961E-002	-1.90684E-002	0.00000E+000	-9.53348E-004	-1.88340E-001	4.19982E-002	3.48579E+001	11	...........	7.00771E-002	-5.23361E-003	6.05182E-001	5.38835E-001	-2.70462E-002	-3.80369E-002	7.05635E-001	-4.38565E-002	-1.33626E-003	9.97968E-005	-1.15399E-002	-1.02747E-002	5.15730E-004	7.25305E-004	-1.34554E-002	8.36276E-004
	136	136	4.99950E-002	-1.87649E-002	0.00000E+000	-9.38152E-004	-1.85318E-001	4.20171E-002	3.41329E+001	11	...........	7.01011E-002	-5.24000E-003	6.05285E-001	5.38743E-001	-2.70571E-002	-3.80328E-002	7.05582E-001	-4.38692E-002	-1.31544E-003	9.83282E-005	-1.13581E-002	-1.01095E-002	5.07724E-004	7.13683E-004	-1.32402E-002	8.23202E-004
	137	137	4.99979E-002	-1.83312E-002	0.00000E+000	-9.16519E-004	-1.81007E-001	4.18562E-002	3.42447E+001	11	...........	6.98325E-002	-5.37361E-003	6.05351E-001	5.38677E-001	-2.70610E-002	-3.80674E-002	7.05642E-001	-4.39129E-002	-1.28011E-003	9.85045E-005	-1.10968E-002	-9.87457E-003	4.96059E-004	6.97819E-004	-1.29352E-002	8.04975E-004
	138	138	4.99968E-002	-1.84122E-002	0.00000E+000	-9.20549E-004	-1.81806E-001	4.20950E-002	3.48704E+001	11	...........	7.02239E-002	-5.33250E-003	6.05396E-001	5.38572E-001	-2.70899E-002	-3.80857E-002	7.05537E-001	-4.39603E-002	-1.29297E-003	9.81829E-005	-1.11466E-002	-9.91628E-003	4.98783E-004	7.01240E-004	-1.29905E-002	8.09404E-004
	139	139	4.99960E-002	-1.81572E-002	0.00000E+000	-9.07786E-004	-1.79276E-001	4.20180E-002	3.49045E+001	11	...........	7.00797E-002	-5.34722E-003	6.05573E-001	5.38559E-001	-2.70617E-002	-3.80893E-002	7.05638E-001	-4.39429E-002	-1.27245E-003	9.70904E-005	-1.09955E-002	-9.77869E-003	4.91363E-004	6.91594E-004	-1.28124E-002	7.97879E-004
	140	140	4.99992E-002	-1.79599E-002	0.00000E+000	-8.97983E-004	-1.77323E-001	4.20403E-002	3.48931E+001	11	...........	7.01379E-002	-5.32986E-003	6.05624E-001	5.38496E-001	-2.70843E-002	-3.80715E-002	7.05663E-001	-4.38935E-002	-1.25967E-003	9.57240E-005	-1.08770E-002	-9.67136E-003	4.86432E-004	6.83762E-004	-1.26737E-002	7.88324E-004
	141	141	4.99962E-002	-1.78097E-002	0.00000E+000	-8.90419E-004	-1.75824E-001	4.20570E-002	3.48030E+001	11	...........	7.01737E-002	-5.24931E-003	6.05612E-001	5.38382E-001	-2.70794E-002	-3.80567E-002	7.05521E-001	-4.37915E-002	-1.24978E-003	9.34888E-005	-1.07858E-002	-9.58844E-003	4.82278E-004	6.77779E-004	-1.25651E-002	7.79916E-004
	142	142	4.99924E-002	-1.73901E-002	0.00000E+000	-8.69371E-004	-1.71637E-001	4.19867E-002	3.43267E+001	11	...........	7.00619E-002	-5.22903E-003	6.05446E-001	5.38335E-001	-2.71086E-002	-3.80718E-002	7.05515E-001	-4.38206E-002	-1.21838E-003	9.09331E-005	-1.05287E-002	-9.36168E-003	4.71420E-004	6.62071E-004	-1.22689E-002	7.62042E-004
	143	143	5.00009E-002	-1.72838E-002	0.00000E+000	-8.64205E-004	-1.70588E-001	4.20856E-002	3.49428E+001	11	...........	7.02226E-002	-5.24458E-003	6.05446E-001	5.38384E-001	-2.70781E-002	-3.81151E-002	7.05550E-001	-4.39249E-002	-1.21371E-003	9.06462E-005	-1.04644E-002	-9.30531E-003	4.68011E-004	6.58774E-004	-1.21946E-002	7.59188E-004
	144	144	4.99955E-002	-1.71171E-002	0.00000E+000	-8.55776E-004	-1.68924E-001	4.20725E-002	3.50720E+001	11	...........	7.01965E-002	-5.25042E-003	6.05417E-001	5.38419E-001	-2.70629E-002	-3.81167E-002	7.05563E-001	-4.39657E-002	-1.20156E-003	8.98717E-005	-1.03630E-002	-9.21616E-003	4.63238E-004	6.52446E-004	-1.20772E-002	7.52564E-004
	145	145	4.99962E-002	-1.67417E-002	0.00000E+000	-8.37019E-004	-1.65193E-001	4.21022E-002	3.43075E+001	11	...........	7.02501E-002	-5.23153E-003	6.05365E-001	5.38610E-001	-2.70697E-002	-3.81128E-002	7.05567E-001	-4.40467E-002	-1.17610E-003	8.75844E-005	-1.01348E-002	-9.01723E-003	4.53192E-004	6.38071E-004	-1.18124E-002	7.37414E-004
	146	146	4.99952E-002	-1.63728E-002	0.00000E+000	-8.18564E-004	-1.61527E-001	4.19239E-002	3.41117E+001	11	...........	6.99425E-002	-5.25167E-003	6.05215E-001	5.38567E-001	-2.70457E-002	-3.80904E-002	7.05522E-001	-4.39776E-002	-1.14516E-003	8.59847E-005	-9.90908E-003	-8.81788E-003	4.42815E-004	6.23648E-004	-1.15514E-002	7.20039E-004
	147	147	4.99995E-002	-1.63645E-002	0.00000E+000	-8.18217E-004	-1.61448E-001	4.21924E-002	3.46188E+001	11	...........	7.03889E-002	-5.39889E-003	6.05377E-001	5.38633E-001	-2.70512E-002	-3.80886E-002	7.05577E-001	-4.39028E-002	-1.15188E-003	8.83502E-005	-9.90670E-003	-8.81446E-003	4.42681E-004	6.23302E-004	-1.15464E-002	7.18448E-004
	148	148	4.99959E-002	-1.61934E-002	0.00000E+000	-8.09603E-004	-1.59741E-001	4.20927E-002	3.49344E+001	11	...........	7.02115E-002	-5.39778E-003	6.05430E-001	5.38672E-001	-2.70726E-002	-3.80853E-002	7.05543E-001	-4.39003E-002	-1.13696E-003	8.74083E-005	-9.80397E-003	-8.72292E-003	4.38398E-004	6.16730E-004	-1.14251E-002	7.10894E-004
	149	149	4.99981E-002	-1.60783E-002	0.00000E+000	-8.03883E-004	-1.58597E-001	4.21734E-002	3.50186E+001	11	...........	7.03587E-002	-5.41569E-003	6.05214E-001	5.38701E-001	-2.70574E-002	-3.81174E-002	7.05447E-001	-4.39415E-002	-1.13125E-003	8.70750E-005	-9.73080E-003	-8.66137E-003	4.35036E-004	6.12861E-004	-1.13424E-002	7.06504E-004
	150	150	4.99963E-002	-1.58726E-002	0.00000E+000	-7.93570E-004	-1.56550E-001	4.21432E-002	3.50829E+001	11	...........	7.03133E-002	-5.39528E-003	6.05213E-001	5.38803E-001	-2.70717E-002	-3.81329E-002	7.05543E-001	-4.39936E-002	-1.11605E-003	8.56369E-005	-9.60628E-003	-8.55219E-003	4.29697E-004	6.05267E-004	-1.11988E-002	6.98291E-004
	151	151	4.99973E-002	-1.57116E-002	0.00000E+000	-7.85535E-004	-1.54943E-001	4.21749E-002	3.45005E+001	11	...........	7.03592E-002	-5.32528E-003	6.05320E-001	5.38725E-001	-2.70582E-002	-3.81667E-002	7.05549E-001	-4.40568E-002	-1.10545E-003	8.36684E-005	-9.51052E-003	-8.46420E-003	4.25126E-004	5.99658E-004	-1.10853E-002	6.92201E-004
	152	152	4.99967E-002	-1.53488E-002	0.00000E+000	-7.67392E-004	-1.51344E-001	4.20243E-002	3.45814E+001	11	...........	7.01183E-002	-5.26000E-003	6.05385E-001	5.38694E-001	-2.70486E-002	-3.81950E-002	7.05565E-001	-4.39511E-002	-1.07624E-003	8.07349E-005	-9.29196E-003	-8.26834E-003	4.15165E-004	5.86249E-004	-1.08296E-002	6.74599E-004
	153	153	4.99985E-002	-1.54003E-002	0.00000E+000	-7.69992E-004	-1.51864E-001	4.22392E-002	3.49827E+001	11	...........	7.04754E-002	-5.29806E-003	6.05269E-001	5.38650E-001	-2.70408E-002	-3.81943E-002	7.05578E-001	-4.38740E-002	-1.08534E-003	8.15917E-005	-9.32133E-003	-8.29538E-003	4.16437E-004	5.88204E-004	-1.08661E-002	6.75674E-004
	154	154	4.99967E-002	-1.51576E-002	0.00000E+000	-7.57829E-004	-1.49440E-001	4.21437E-002	3.49994E+001	11	...........	7.03225E-002	-5.36931E-003	6.05201E-001	5.38718E-001	-2.70642E-002	-3.81743E-002	7.05611E-001	-4.38421E-002	-1.06592E-003	8.13857E-005	-9.17338E-003	-8.16566E-003	4.10227E-004	5.78630E-004	-1.06953E-002	6.64540E-004
	155	155	4.99970E-002	-1.49718E-002	0.00000E+000	-7.48543E-004	-1.47590E-001	4.21628E-002	3.51174E+001	11	...........	7.03357E-002	-5.30681E-003	6.05155E-001	5.38696E-001	-2.70707E-002	-3.81615E-002	7.05601E-001	-4.38650E-002	-1.05305E-003	7.94522E-005	-9.06023E-003	-8.06522E-003	4.05296E-004	5.71345E-004	-1.05641E-002	6.56736E-004
	156	156	4.99979E-002	-1.48430E-002	0.00000E+000	-7.42118E-004	-1.46308E-001	4.21993E-002	3.51815E+001	11	...........	7.04114E-002	-5.33736E-003	6.05070E-001	5.38529E-001	-2.70662E-002	-3.81500E-002	7.05520E-001	-4.38297E-002	-1.04511E-003	7.92223E-005	-8.98104E-003	-7.99338E-003	4.01744E-004	5.66260E-004	-1.04720E-002	6.50564E-004
	157	157	4.99958E-002	-1.45172E-002	0.00000E+000	-7.25798E-004	-1.43061E-001	4.22178E-002	3.48221E+001	11	...........	7.04339E-002	-5.38583E-003	6.05099E-001	5.38313E-001	-2.70603E-002	-3.81526E-002	7.05573E-001	-4.38203E-002	-1.02250E-003	7.81871E-005	-8.78433E-003	-7.81479E-003	3.92839E-004	5.53869E-004	-1.02429E-002	6.36147E-004
	158	158	4.99971E-002	-1.42274E-002	0.00000E+000	-7.11330E-004	-1.40183E-001	4.20439E-002	3.42455E+001	11	...........	7.01483E-002	-5.25139E-003	6.05307E-001	5.38270E-001	-2.70708E-002	-3.81586E-002	7.05600E-001	-4.38481E-002	-9.98031E-004	7.47138E-005	-8.61196E-003	-7.65820E-003	3.85148E-004	5.42899E-004	-1.00389E-002	6.23845E-004
	159	159	4.99982E-002	-1.42350E-002	0.00000E+000	-7.11722E-004	-1.40256E-001	4.22833E-002	3.50856E+001	11	...........	7.05544E-002	-5.23931E-003	6.05357E-001	5.38255E-001	-2.70493E-002	-3.81632E-002	7.05573E-001	-4.37899E-002	-1.00434E-003	7.45813E-005	-8.61723E-003	-7.66204E-003	3.85046E-004	5.43251E-004	-1.00438E-002	6.23347E-004
	160	160	4.99975E-002	-1.41449E-002	0.00000E+000	-7.07212E-004	-1.39374E-001	4.22137E-002	3.53358E+001	11	...........	7.04340E-002	-5.31486E-003	6.05408E-001	5.38162E-001	-2.70632E-002	-3.81464E-002	7.05658E-001	-4.37911E-002	-9.96285E-004	7.51784E-005	-8.56346E-003	-7.61227E-003	3.82807E-004	5.39578E-004	-9.98149E-003	6.19423E-004
	161	161	4.99964E-002	-1.39457E-002	0.00000E+000	-6.97236E-004	-1.37390E-001	4.22487E-002	3.53617E+001	11	...........	7.04865E-002	-5.31042E-003	6.05306E-001	5.38295E-001	-2.70893E-002	-3.81154E-002	7.05606E-001	-4.37853E-002	-9.82986E-004	7.40576E-005	-8.44144E-003	-7.50691E-003	3.77780E-004	5.31547E-004	-9.84019E-003	6.10618E-004
	162	162	4.99977E-002	-1.37624E-002	0.00000E+000	-6.88086E-004	-1.35563E-001	4.22066E-002	3.53942E+001	11	...........	7.04279E-002	-5.40292E-003	6.05404E-001	5.38371E-001	-2.71049E-002	-3.81235E-002	7.05600E-001	-4.37749E-002	-9.69255E-004	7.43569E-005	-8.33179E-003	-7.40925E-003	3.73027E-004	5.24669E-004	-9.71073E-003	6.02446E-004
	163	163	4.99943E-002	-1.34927E-002	0.00000E+000	-6.74559E-004	-1.32878E-001	4.21903E-002	3.43158E+001	11	...........	7.03857E-002	-5.37806E-003	6.05334E-001	5.38234E-001	-2.70947E-002	-3.81332E-002	7.05507E-001	-4.39037E-002	-9.49695E-004	7.25646E-005	-8.16760E-003	-7.26225E-003	3.65582E-004	5.14521E-004	-9.51921E-003	5.92381E-004
	164	164	5.00004E-002	-1.33879E-002	0.00000E+000	-6.69399E-004	-1.31833E-001	4.22601E-002	3.52471E+001	11	...........	7.05069E-002	-5.39000E-003	6.05273E-001	5.38096E-001	-2.70761E-002	-3.80975E-002	7.05464E-001	-4.39164E-002	-9.43938E-004	7.21606E-005	-8.10331E-003	-7.20396E-003	3.62491E-004	5.10044E-004	-9.44467E-003	5.87947E-004
	165	165	4.99971E-002	-1.32691E-002	0.00000E+000	-6.63415E-004	-1.30653E-001	4.22254E-002	3.53730E+001	11	...........	7.04637E-002	-5.34722E-003	6.05341E-001	5.38100E-001	-2.70786E-002	-3.81106E-002	7.05467E-001	-4.38865E-002	-9.34989E-004	7.09527E-005	-8.03232E-003	-7.14009E-003	3.59308E-004	5.05692E-004	-9.36089E-003	5.82334E-004
	166	166	4.99981E-002	-1.30458E-002	0.00000E+000	-6.52264E-004	-1.28436E-001	4.22177E-002	3.53029E+001	11	...........	7.04306E-002	-5.27264E-003	6.05209E-001	5.38188E-001	-2.70796E-002	-3.81135E-002	7.05320E-001	-4.38560E-002	-9.18822E-004	6.87857E-005	-7.89543E-003	-7.02109E-003	3.53274E-004	4.97220E-004	-9.20146E-003	5.72135E-004
	167	167	4.99978E-002	-1.29782E-002	0.00000E+000	-6.48883E-004	-1.27776E-001	4.22409E-002	3.53142E+001	11	...........	7.04697E-002	-5.28458E-003	6.05286E-001	5.38263E-001	-2.70725E-002	-3.80964E-002	7.05275E-001	-4.39199E-002	-9.14572E-004	6.85845E-005	-7.85553E-003	-6.98570E-003	3.51353E-004	4.94423E-004	-9.15321E-003	5.70002E-004
	168	168	4.99975E-002	-1.28000E-002	0.00000E+000	-6.39969E-004	-1.26003E-001	4.22552E-002	3.53752E+001	11	...........	7.05040E-002	-5.32708E-003	6.05414E-001	5.38383E-001	-2.70664E-002	-3.80924E-002	7.05331E-001	-4.38840E-002	-9.02453E-004	6.81868E-005	-7.74931E-003	-6.89132E-003	3.46451E-004	4.87583E-004	-9.02826E-003	5.61717E-004
	169	169	4.99938E-002	-1.25830E-002	0.00000E+000	-6.29071E-004	-1.23837E-001	4.22956E-002	3.53959E+001	11	...........	7.05611E-002	-5.38153E-003	6.05485E-001	5.38579E-001	-2.70576E-002	-3.80862E-002	7.05466E-001	-4.38597E-002	-8.87870E-004	6.77157E-005	-7.61882E-003	-6.77693E-003	3.40466E-004	4.79239E-004	-8.87688E-003	5.51887E-004
	170	170	4.99951E-002	-1.22767E-002	0.00000E+000	-6.13773E-004	-1.20788E-001	4.21898E-002	3.37864E+001	11	...........	7.03925E-002	-5.40556E-003	6.05536E-001	5.38651E-001	-2.70287E-002	-3.80964E-002	7.05364E-001	-4.39254E-002	-8.64184E-004	6.63621E-005	-7.43395E-003	-6.61283E-003	3.31823E-004	4.67696E-004	-8.65951E-003	5.39257E-004
	171	171	5.00026E-002	-1.21773E-002	0.00000E+000	-6.08895E-004	-1.19799E-001	4.22877E-002	3.49444E+001	11	...........	7.05492E-002	-5.46389E-003	6.05477E-001	5.38729E-001	-2.70271E-002	-3.81057E-002	7.05408E-001	-4.38472E-002	-8.59095E-004	6.65352E-005	-7.37305E-003	-6.56024E-003	3.29116E-004	4.64023E-004	-8.58994E-003	5.33939E-004
	172	172	4.99971E-002	-1.21114E-002	0.00000E+000	-6.05532E-004	-1.19139E-001	4.22501E-002	3.53794E+001	11	...........	7.04849E-002	-5.33792E-003	6.05524E-001	5.38779E-001	-2.70206E-002	-3.81190E-002	7.05418E-001	-4.38382E-002	-8.53667E-004	6.46494E-005	-7.33371E-003	-6.52534E-003	3.27255E-004	4.61673E-004	-8.54357E-003	5.30940E-004
	173	173	4.99982E-002	-1.20107E-002	0.00000E+000	-6.00512E-004	-1.18140E-001	4.23305E-002	3.54329E+001	11	...........	7.06282E-002	-5.35056E-003	6.05526E-001	5.38695E-001	-2.69922E-002	-3.81474E-002	7.05489E-001	-4.37215E-002	-8.48293E-004	6.42639E-005	-7.27279E-003	-6.47010E-003	3.24195E-004	4.58176E-004	-8.47341E-003	5.25126E-004
	174	174	4.99975E-002	-1.18652E-002	0.00000E+000	-5.93231E-004	-1.16693E-001	4.23002E-002	3.54472E+001	11	...........	7.05893E-002	-5.33764E-003	6.05491E-001	5.38761E-001	-2.69712E-002	-3.81499E-002	7.05432E-001	-4.37765E-002	-8.37557E-004	6.33322E-005	-7.18428E-003	-6.39251E-003	3.20020E-004	4.52656E-004	-8.37010E-003	5.19418E-004
	175	175	4.99982E-002	-1.17351E-002	0.00000E+000	-5.86736E-004	-1.15388E-001	4.23054E-002	3.50561E+001	11	...........	7.05881E-002	-5.36181E-003	6.05461E-001	5.38870E-001	-2.69643E-002	-3.81599E-002	7.05371E-001	-4.38199E-002	-8.28361E-004	6.29216E-005	-7.10518E-003	-6.32372E-003	3.16430E-004	4.47812E-004	-8.27764E-003	5.14233E-004
	176	176	4.99980E-002	-1.16178E-002	0.00000E+000	-5.80866E-004	-1.14230E-001	4.22980E-002	3.52667E+001	11	...........	7.05783E-002	-5.37319E-003	6.05448E-001	5.38955E-001	-2.69682E-002	-3.81281E-002	7.05433E-001	-4.38810E-002	-8.19964E-004	6.24246E-005	-7.03397E-003	-6.26147E-003	3.13311E-004	4.42964E-004	-8.19557E-003	5.09800E-004
	177	177	4.99979E-002	-1.15010E-002	0.00000E+000	-5.75024E-004	-1.13078E-001	4.23328E-002	3.52640E+001	11	...........	7.06211E-002	-5.36875E-003	6.05367E-001	5.38924E-001	-2.69656E-002	-3.81281E-002	7.05369E-001	-4.38442E-002	-8.12212E-004	6.17458E-005	-6.96231E-003	-6.19815E-003	3.10130E-004	4.38510E-004	-8.11243E-003	5.04251E-004
	178	178	4.99973E-002	-1.14016E-002	0.00000E+000	-5.70046E-004	-1.12086E-001	4.23650E-002	3.53005E+001	11	...........	7.06863E-002	-5.42681E-003	6.05464E-001	5.38854E-001	-2.69290E-002	-3.81501E-002	7.05363E-001	-4.37550E-002	-8.05933E-004	6.18740E-005	-6.90324E-003	-6.14378E-003	3.07033E-004	4.34971E-004	-8.04223E-003	4.98875E-004
	179	179	4.99973E-002	-1.12338E-002	0.00000E+000	-5.61661E-004	-1.10417E-001	4.23525E-002	3.53481E+001	11	...........	7.06808E-002	-5.30958E-003	6.05375E-001	5.38782E-001	-2.69172E-002	-3.81625E-002	7.05464E-001	-4.37568E-002	-7.94016E-004	5.96469E-005	-6.80067E-003	-6.05258E-003	3.02383E-004	4.28711E-004	-7.92506E-003	4.91556E-004
	180	180	4.99982E-002	-1.11220E-002	0.00000E+000	-5.56082E-004	-1.09305E-001	4.23951E-002	3.53859E+001	11	...........	7.07212E-002	-5.24972E-003	6.05391E-001	5.38835E-001	-2.68956E-002	-3.81669E-002	7.05555E-001	-4.37399E-002	-7.86564E-004	5.83876E-005	-6.73317E-003	-5.99294E-003	2.99133E-004	4.24494E-004	-7.84720E-003	4.86476E-004
	181	181	4.99972E-002	-1.09491E-002	0.00000E+000	-5.47422E-004	-1.07581E-001	4.23915E-002	3.53926E+001	11	...........	7.07151E-002	-5.26431E-003	6.05402E-001	5.38824E-001	-2.68800E-002	-3.81443E-002	7.05612E-001	-4.38393E-002	-7.74264E-004	5.76392E-005	-6.62858E-003	-5.89961E-003	2.94311E-004	4.17644E-004	-7.72578E-003	4.79999E-004
	182	182	4.99986E-002	-1.08420E-002	0.00000E+000	-5.42086E-004	-1.06517E-001	4.23805E-002	3.53978E+001	11	...........	7.07082E-002	-5.27083E-003	6.05333E-001	5.38843E-001	-2.68792E-002	-3.81693E-002	7.05520E-001	-4.39250E-002	-7.66620E-004	5.71465E-005	-6.56304E-003	-5.84215E-003	2.91425E-004	4.13833E-004	-7.64927E-003	4.76236E-004
	183	183	4.99967E-002	-1.07435E-002	0.00000E+000	-5.37141E-004	-1.05534E-001	4.23948E-002	3.45970E+001	11	...........	7.07394E-002	-5.27722E-003	6.05405E-001	5.38848E-001	-2.69050E-002	-3.81653E-002	7.05516E-001	-4.39374E-002	-7.59992E-004	5.66960E-005	-6.50419E-003	-5.78914E-003	2.89055E-004	4.10030E-004	-7.57973E-003	4.72043E-004
	184	184	4.99942E-002	-1.02966E-002	0.00000E+000	-5.14772E-004	-1.01127E-001	4.22518E-002	3.40572E+001	11	...........	7.05018E-002	-5.29431E-003	6.05347E-001	5.38929E-001	-2.69443E-002	-3.81292E-002	7.05446E-001	-4.39690E-002	-7.25931E-004	5.45135E-005	-6.23303E-003	-5.54916E-003	2.77436E-004	3.92602E-004	-7.26372E-003	4.52733E-004
	185	185	5.00021E-002	-1.03628E-002	0.00000E+000	-5.18161E-004	-1.01790E-001	4.24156E-002	3.51385E+001	11	...........	7.07658E-002	-5.24764E-003	6.05332E-001	5.38988E-001	-2.69454E-002	-3.81324E-002	7.05480E-001	-4.39360E-002	-7.33332E-004	5.43802E-005	-6.27293E-003	-5.58542E-003	2.79230E-004	3.95158E-004	-7.31075E-003	4.55300E-004
	186	186	4.99981E-002	-1.03089E-002	0.00000E+000	-5.15427E-004	-1.01261E-001	4.23439E-002	3.54786E+001	11	...........	7.06417E-002	-5.30861E-003	6.05496E-001	5.39094E-001	-2.69506E-002	-3.81364E-002	7.05464E-001	-4.38418E-002	-7.28240E-004	5.47261E-005	-6.24201E-003	-5.55748E-003	2.77831E-004	3.93145E-004	-7.27257E-003	4.51962E-004
	187	187	4.99978E-002	-1.01893E-002	0.00000E+000	-5.09445E-004	-1.00067E-001	4.24040E-002	3.55090E+001	11	...........	7.07494E-002	-5.26917E-003	6.05510E-001	5.39086E-001	-2.69356E-002	-3.81131E-002	7.05535E-001	-4.38560E-002	-7.20890E-004	5.36893E-005	-6.16975E-003	-5.49293E-003	2.74456E-004	3.88347E-004	-7.18894E-003	4.46863E-004
	188	188	4.99974E-002	-1.00623E-002	0.00000E+000	-5.03090E-004	-9.88020E-002	4.23992E-002	3.53646E+001	11	...........	7.07371E-002	-5.28361E-003	6.05406E-001	5.39184E-001	-2.69432E-002	-3.81353E-002	7.05492E-001	-4.39656E-002	-7.11781E-004	5.31655E-005	-6.09180E-003	-5.42545E-003	2.71112E-004	3.83730E-004	-7.09891E-003	4.42396E-004
	189	189	4.99987E-002	-9.93584E-003	0.00000E+000	-4.96779E-004	-9.75430E-002	4.23682E-002	3.50904E+001	11	...........	7.06901E-002	-5.23903E-003	6.05349E-001	5.39218E-001	-2.69128E-002	-3.81381E-002	7.05499E-001	-4.38969E-002	-7.02366E-004	5.20541E-005	-6.01465E-003	-5.35759E-003	2.67401E-004	3.78933E-004	-7.00972E-003	4.36153E-004
	190	190	4.99979E-002	-9.86581E-003	0.00000E+000	-4.93270E-004	-9.68463E-002	4.24146E-002	3.54184E+001	11	...........	7.07710E-002	-5.23986E-003	6.05407E-001	5.39157E-001	-2.68989E-002	-3.81390E-002	7.05459E-001	-4.37086E-002	-6.98213E-004	5.16955E-005	-5.97283E-003	-5.31922E-003	2.65379E-004	3.76272E-004	-6.95993E-003	4.31221E-004
	191	191	4.99980E-002	-9.75608E-003	0.00000E+000	-4.87785E-004	-9.57503E-002	4.24158E-002	3.54146E+001	11	...........	7.07667E-002	-5.26000E-003	6.05498E-001	5.39085E-001	-2.69018E-002	-3.81576E-002	7.05472E-001	-4.37850E-002	-6.90406E-004	5.13170E-005	-5.90729E-003	-5.25936E-003	2.62456E-004	3.72269E-004	-6.88264E-003	4.27170E-004
	192	192	4.99980E-002	-9.61444E-003	0.00000E+000	-4.80703E-004	-9.43420E-002	4.24057E-002	3.53425E+001	11	...........	7.07578E-002	-5.18514E-003	6.05579E-001	5.39142E-001	-2.69183E-002	-3.81731E-002	7.05420E-001	-4.38800E-002	-6.80297E-004	4.98522E-005	-5.82230E-003	-5.18355E-003	2.58805E-004	3.67013E-004	-6.78222E-003	4.21882E-004
	193	193	4.99975E-002	-9.52146E-003	0.00000E+000	-4.76049E-004	-9.34170E-002	4.24474E-002	3.54714E+001	11	...........	7.08114E-002	-5.24139E-003	6.05739E-001	5.39202E-001	-2.69281E-002	-3.81551E-002	7.05442E-001	-4.38558E-002	-6.74228E-004	4.99057E-005	-5.76753E-003	-5.13399E-003	2.56395E-004	3.63293E-004	-6.71684E-003	4.17572E-004
	194	194	4.99981E-002	-9.39952E-003	0.00000E+000	-4.69958E-004	-9.21987E-002	4.24495E-002	3.55719E+001	11	...........	7.08217E-002	-5.30375E-003	6.05669E-001	5.39238E-001	-2.69125E-002	-3.81336E-002	7.05362E-001	-4.38260E-002	-6.65690E-004	4.98527E-005	-5.69300E-003	-5.06858E-003	2.52965E-004	3.58438E-004	-6.63007E-003	4.11943E-004
	195	195	4.99983E-002	-9.31918E-003	0.00000E+000	-4.65943E-004	-9.13960E-002	4.24402E-002	3.55768E+001	11	...........	7.08060E-002	-5.29458E-003	6.05538E-001	5.39204E-001	-2.69168E-002	-3.81247E-002	7.05463E-001	-4.38374E-002	-6.59853E-004	4.93412E-005	-5.64311E-003	-5.02494E-003	2.50842E-004	3.55291E-004	-6.57434E-003	4.08528E-004
	196	196	4.99961E-002	-9.18462E-003	0.00000E+000	-4.59195E-004	-9.00557E-002	4.23977E-002	3.55903E+001	11	...........	7.08376E-002	-5.24556E-003	6.05412E-001	5.39159E-001	-2.69174E-002	-3.81339E-002	7.05482E-001	-4.37538E-002	-6.50617E-004	4.81784E-005	-5.56048E-003	-4.95197E-003	2.47226E-004	3.50245E-004	-6.47958E-003	4.01861E-004
	197	197	4.99947E-002	-8.95301E-003	0.00000E+000	-4.47603E-004	-8.77633E-002	4.24272E-002	3.37549E+001	11	...........	7.07758E-002	-5.24097E-003	6.05377E-001	5.38896E-001	-2.69437E-002	-3.81354E-002	7.05619E-001	-4.37806E-002	-6.33657E-004	4.69225E-005	-5.41995E-003	-4.82474E-003	2.41228E-004	3.41427E-004	-6.31742E-003	3.91968E-004
	198	198	5.00032E-002	-8.83061E-003	0.00000E+000	-4.41559E-004	-8.65480E-002	4.24158E-002	3.50923E+001	11	...........	7.07561E-002	-5.24556E-003	6.05353E-001	5.38837E-001	-2.69481E-002	-3.81061E-002	7.05693E-001	-4.39097E-002	-6.24820E-004	4.63215E-005	-5.34563E-003	-4.75826E-003	2.37968E-004	3.36500E-004	-6.23170E-003	3.87750E-004
	199	199	4.99980E-002	-8.87914E-003	0.00000E+000	-4.43940E-004	-8.70317E-002	4.24038E-002	3.56313E+001	11	...........	7.07453E-002	-5.34347E-003	6.05346E-001	5.38780E-001	-2.69496E-002	-3.80976E-002	7.05807E-001	-4.40022E-002	-6.28157E-004	4.74454E-005	-5.37495E-003	-4.78390E-003	2.39289E-004	3.38274E-004	-6.26696E-003	3.90702E-004
	200	200	4.99979E-002	-8.78421E-003	0.00000E+000	-4.39192E-004	-8.60847E-002	4.24397E-002	3.49427E+001	11	...........	7.08061E-002	-5.36292E-003	6.05336E-001	5.38830E-001	-2.69379E-002	-3.80975E-002	7.05787E-001	-4.40475E-002	-6.21975E-004	4.71090E-005	-5.31740E-003	-4.73319E-003	2.36628E-004	3.34656E-004	-6.19978E-003	3.86922E-004
	201	201	4.99979E-002	-8.58474E-003	0.00000E+000	-4.29219E-004	-8.40990E-002	4.23510E-002	3.49746E+001	11	...........	7.06328E-002	-5.34236E-003	6.05220E-001	5.38857E-001	-2.69612E-002	-3.80746E-002	7.05675E-001	-4.40365E-002	-6.06364E-004	4.58628E-005	-5.19566E-003	-4.62595E-003	2.31455E-004	3.26861E-004	-6.05804E-003	3.78042E-004
	202	202	4.99987E-002	-8.55303E-003	0.00000E+000	-4.27640E-004	-8.37800E-002	4.25319E-002	3.55574E+001	11	...........	7.09537E-002	-5.39542E-003	6.05192E-001	5.38775E-001	-2.69542E-002	-3.80703E-002	7.05603E-001	-4.40200E-002	-6.06869E-004	4.61471E-005	-5.17623E-003	-4.60815E-003	2.30540E-004	3.25616E-004	-6.03504E-003	3.76504E-004
	203	203	4.99987E-002	-8.49926E-003	0.00000E+000	-4.24952E-004	-8.32423E-002	4.24366E-002	3.56723E+001	11	...........	7.08008E-002	-5.29972E-003	6.05196E-001	5.38796E-001	-2.69603E-002	-3.80571E-002	7.05547E-001	-4.40342E-002	-6.01754E-004	4.50437E-005	-5.14371E-003	-4.57936E-003	2.29142E-004	3.23457E-004	-5.99662E-003	3.74258E-004
	204	204	4.99980E-002	-8.42077E-003	0.00000E+000	-4.21021E-004	-8.24637E-002	4.24777E-002	3.56836E+001	11	...........	7.08689E-002	-5.24250E-003	6.05207E-001	5.38797E-001	-2.69787E-002	-3.80742E-002	7.05664E-001	-4.40029E-002	-5.96770E-004	4.41459E-005	-5.09631E-003	-4.53709E-003	2.27182E-004	3.20614E-004	-5.94223E-003	3.70538E-004
	205	205	4.99981E-002	-8.31165E-003	0.00000E+000	-4.15567E-004	-8.13820E-002	4.24626E-002	3.57117E+001	11	...........	7.08262E-002	-5.27903E-003	6.05230E-001	5.38740E-001	-2.69486E-002	-3.80732E-002	7.05737E-001	-4.39010E-002	-5.88683E-004	4.38774E-005	-5.03046E-003	-4.47782E-003	2.23987E-004	3.16451E-004	-5.86584E-003	3.64889E-004
	206	206	4.99984E-002	-8.24794E-003	0.00000E+000	-4.12384E-004	-8.07497E-002	4.24908E-002	3.57732E+001	11	...........	7.08897E-002	-5.36847E-003	6.05365E-001	5.38651E-001	-2.69732E-002	-3.80835E-002	7.05822E-001	-4.39539E-002	-5.84694E-004	4.42788E-005	-4.99301E-003	-4.44276E-003	2.22473E-004	3.14110E-004	-5.82158E-003	3.62529E-004
	207	207	4.99987E-002	-8.15372E-003	0.00000E+000	-4.07676E-004	-7.98080E-002	4.24737E-002	3.50121E+001	11	...........	7.08586E-002	-5.37889E-003	6.05592E-001	5.38620E-001	-2.69901E-002	-3.80694E-002	7.05758E-001	-4.39587E-002	-5.77761E-004	4.38580E-005	-4.93783E-003	-4.39175E-003	2.20070E-004	3.10408E-004	-5.75456E-003	3.58427E-004
	208	208	4.99980E-002	-7.99589E-003	0.00000E+000	-3.99779E-004	-7.82363E-002	4.23880E-002	3.54544E+001	11	...........	7.07165E-002	-5.46222E-003	6.05680E-001	5.38851E-001	-2.70274E-002	-3.80569E-002	7.05808E-001	-4.39462E-002	-5.65442E-004	4.36753E-005	-4.84295E-003	-4.30860E-003	2.16108E-004	3.04299E-004	-5.64357E-003	3.51390E-004
	209	209	4.99976E-002	-7.96520E-003	0.00000E+000	-3.98241E-004	-7.79303E-002	4.25237E-002	3.56811E+001	11	...........	7.09424E-002	-5.40292E-003	6.05817E-001	5.38785E-001	-2.70294E-002	-3.80678E-002	7.05701E-001	-4.38847E-002	-5.65070E-004	4.30353E-005	-4.82545E-003	-4.29153E-003	2.15295E-004	3.03217E-004	-5.62105E-003	3.49551E-004
	210	210	4.99981E-002	-7.77973E-003	0.00000E+000	-3.88972E-004	-7.61080E-002	4.25002E-002	3.48263E+001	11	...........	7.09006E-002	-5.32611E-003	6.05801E-001	5.38751E-001	-2.70247E-002	-3.80586E-002	7.05660E-001	-4.38424E-002	-5.51587E-004	4.14357E-005	-4.71297E-003	-4.19134E-003	2.10245E-004	2.96086E-004	-5.48985E-003	3.41082E-004
	211	211	4.99985E-002	-7.67423E-003	0.00000E+000	-3.83700E-004	-7.50543E-002	4.23517E-002	3.47902E+001	11	...........	7.06636E-002	-5.29972E-003	6.05883E-001	5.38667E-001	-2.70022E-002	-3.80456E-002	7.05711E-001	-4.39453E-002	-5.42289E-004	4.06713E-005	-4.64969E-003	-4.13386E-003	2.07221E-004	2.91971E-004	-5.41579E-003	3.37246E-004
	212	212	4.99987E-002	-7.68904E-003	0.00000E+000	-3.84442E-004	-7.51983E-002	4.25614E-002	3.55043E+001	11	...........	7.10121E-002	-5.38792E-003	6.05874E-001	5.38651E-001	-2.69910E-002	-3.80407E-002	7.05663E-001	-4.39515E-002	-5.46015E-004	4.14279E-005	-4.65859E-003	-4.14171E-003	2.07535E-004	2.92497E-004	-5.42587E-003	3.37945E-004
	213	213	4.99987E-002	-7.60711E-003	0.00000E+000	-3.80346E-004	-7.43843E-002	4.24905E-002	3.51938E+001	11	...........	7.08928E-002	-5.40167E-003	6.05913E-001	5.38499E-001	-2.70296E-002	-3.80254E-002	7.05621E-001	-4.39718E-002	-5.39289E-004	4.10911E-005	-4.60925E-003	-4.09642E-003	2.05617E-004	2.89264E-004	-5.36774E-003	3.34499E-004
	214	214	4.99985E-002	-7.52300E-003	0.00000E+000	-3.76139E-004	-7.35467E-002	4.24962E-002	3.53951E+001	11	...........	7.09049E-002	-5.37389E-003	6.05997E-001	5.38520E-001	-2.70236E-002	-3.80350E-002	7.05606E-001	-4.41014E-002	-5.33417E-004	4.04278E-005	-4.55892E-003	-4.05128E-003	2.03299E-004	2.86137E-004	-5.30827E-003	3.31775E-004
	215	215	4.99985E-002	-7.47989E-003	0.00000E+000	-3.73983E-004	-7.31190E-002	4.25480E-002	3.56216E+001	11	...........	7.09864E-002	-5.41167E-003	6.05837E-001	5.38557E-001	-2.70051E-002	-3.80217E-002	7.05649E-001	-4.40506E-002	-5.30971E-004	4.04787E-005	-4.53160E-003	-4.02835E-003	2.01996E-004	2.84398E-004	-5.27818E-003	3.29493E-004
	216	216	4.99982E-002	-7.39845E-003	0.00000E+000	-3.69910E-004	-7.23070E-002	4.25122E-002	3.56443E+001	11	...........	7.09322E-002	-5.36458E-003	6.05931E-001	5.38637E-001	-2.70197E-002	-3.80061E-002	7.05691E-001	-4.39878E-002	-5.24789E-004	3.96896E-005	-4.48295E-003	-3.98508E-003	1.99904E-004	2.81186E-004	-5.22102E-003	3.25442E-004
	217	217	4.99978E-002	-7.26769E-003	0.00000E+000	-3.63369E-004	-7.10057E-002	4.25701E-002	3.52828E+001	11	...........	7.10211E-002	-5.38528E-003	6.05713E-001	5.38668E-001	-2.70025E-002	-3.80029E-002	7.05725E-001	-4.39354E-002	-5.16159E-004	3.91385E-005	-4.40213E-003	-3.91487E-003	1.96246E-004	2.76193E-004	-5.12899E-003	3.19309E-004
	218	218	4.99960E-002	-7.11206E-003	0.00000E+000	-3.55575E-004	-6.94543E-002	4.23753E-002	3.42046E+001	11	...........	7.07046E-002	-5.47153E-003	6.05718E-001	5.38769E-001	-2.70039E-002	-3.80149E-002	7.05628E-001	-4.40121E-002	-5.02856E-004	3.89139E-005	-4.30791E-003	-3.83176E-003	1.92053E-004	2.70364E-004	-5.01847E-003	3.13017E-004
	219	219	5.00010E-002	-7.08741E-003	0.00000E+000	-3.54377E-004	-6.92077E-002	4.26121E-002	3.54920E+001	11	...........	7.10962E-002	-5.42139E-003	6.05772E-001	5.38888E-001	-2.70132E-002	-3.80018E-002	7.05680E-001	-4.39996E-002	-5.03888E-004	3.84236E-005	-4.29336E-003	-3.81932E-003	1.91454E-004	2.69334E-004	-5.00144E-003	3.11843E-004
	220	220	4.99983E-002	-7.07449E-003	0.00000E+000	-3.53713E-004	-6.90797E-002	4.25041E-002	3.57295E+001	11	...........	7.09174E-002	-5.37333E-003	6.05820E-001	5.38867E-001	-2.70181E-002	-3.80290E-002	7.05768E-001	-4.39232E-002	-5.01704E-004	3.80136E-005	-4.28587E-003	-3.81221E-003	1.91139E-004	2.69036E-004	-4.99295E-003	3.10734E-004
	221	221	4.99986E-002	-7.00240E-003	0.00000E+000	-3.50110E-004	-6.83677E-002	4.25319E-002	3.57684E+001	11	...........	7.09608E-002	-5.35444E-003	6.05959E-001	5.38870E-001	-2.70258E-002	-3.80432E-002	7.05753E-001	-4.38357E-002	-4.96896E-004	3.74939E-005	-4.24316E-003	-3.77338E-003	1.89246E-004	2.66394E-004	-4.94196E-003	3.06955E-004
	222	222	4.99982E-002	-6.93106E-003	0.00000E+000	-3.46541E-004	-6.76550E-002	4.25375E-002	3.58182E+001	11	...........	7.09551E-002	-5.27014E-003	6.05987E-001	5.38776E-001	-2.70442E-002	-3.80244E-002	7.05607E-001	-4.38304E-002	-4.91794E-004	3.65276E-005	-4.20013E-003	-3.73429E-003	1.87445E-004	2.63550E-004	-4.89060E-003	3.03791E-004
	223	223	4.99987E-002	-6.83232E-003	0.00000E+000	-3.41608E-004	-6.66660E-002	4.25204E-002	3.49835E+001	11	...........	7.09389E-002	-5.30236E-003	6.05947E-001	5.38673E-001	-2.70297E-002	-3.80400E-002	7.05614E-001	-4.40479E-002	-4.84677E-004	3.62274E-005	-4.14003E-003	-3.68039E-003	1.84676E-004	2.59902E-004	-4.82099E-003	3.00950E-004
	224	224	4.99989E-002	-6.73318E-003	0.00000E+000	-3.36652E-004	-6.56770E-002	4.24463E-002	3.55731E+001	11	...........	7.08161E-002	-5.33931E-003	6.05786E-001	5.38506E-001	-2.70119E-002	-3.80526E-002	7.05544E-001	-4.39961E-002	-4.76818E-004	3.59505E-005	-4.07887E-003	-3.62586E-003	1.81876E-004	2.56215E-004	-4.75056E-003	2.96234E-004
	225	225	4.99984E-002	-6.70952E-003	0.00000E+000	-3.35466E-004	-6.54413E-002	4.25802E-002	3.58770E+001	11	...........	7.10376E-002	-5.30917E-003	6.05742E-001	5.38348E-001	-2.69871E-002	-3.80178E-002	7.05414E-001	-4.39606E-002	-4.76629E-004	3.56220E-005	-4.06424E-003	-3.61206E-003	1.81070E-004	2.55081E-004	-4.73299E-003	2.94954E-004
	226	226	4.99980E-002	-6.61413E-003	0.00000E+000	-3.30693E-004	-6.44850E-002	4.24748E-002	3.57952E+001	11	...........	7.08593E-002	-5.32458E-003	6.05702E-001	5.38353E-001	-2.69642E-002	-3.80156E-002	7.05541E-001	-4.39179E-002	-4.68673E-004	3.52175E-005	-4.00619E-003	-3.56073E-003	1.78344E-004	2.51440E-004	-4.66654E-003	2.90479E-004
	227	227	4.99987E-002	-6.56053E-003	0.00000E+000	-3.28018E-004	-6.39413E-002	4.25250E-002	3.58794E+001	11	...........	7.09383E-002	-5.24778E-003	6.05623E-001	5.38305E-001	-2.69822E-002	-3.80354E-002	7.05617E-001	-4.38607E-002	-4.65393E-004	3.44282E-005	-3.97321E-003	-3.53157E-003	1.77018E-004	2.49533E-004	-4.62922E-003	2.87750E-004
	228	228	4.99985E-002	-6.48839E-003	0.00000E+000	-3.24410E-004	-6.32443E-002	4.25319E-002	3.59570E+001	11	...........	7.09489E-002	-5.25778E-003	6.05627E-001	5.38326E-001	-2.69732E-002	-3.80172E-002	7.05644E-001	-4.38126E-002	-4.60344E-004	3.41145E-005	-3.92955E-003	-3.49287E-003	1.75013E-004	2.46671E-004	-4.57850E-003	2.84274E-004
	229	229	4.99983E-002	-6.39610E-003	0.00000E+000	-3.19794E-004	-6.23353E-002	4.25695E-002	3.47152E+001	11	...........	7.10143E-002	-5.27417E-003	6.05655E-001	5.38296E-001	-2.69656E-002	-3.80010E-002	7.05567E-001	-4.38810E-002	-4.54214E-004	3.37341E-005	-3.87383E-003	-3.44300E-003	1.72474E-004	2.43058E-004	-4.51288E-003	2.80667E-004
	230	230	4.99989E-002	-6.25733E-003	0.00000E+000	-3.12860E-004	-6.09500E-002	4.24230E-002	3.52816E+001	11	...........	7.07837E-002	-5.18556E-003	6.05573E-001	5.38317E-001	-2.69656E-002	-3.80010E-002	7.05617E-001	-4.38956E-002	-4.42918E-004	3.24477E-005	-3.78927E-003	-3.36843E-003	1.68732E-004	2.37785E-004	-4.41528E-003	2.74669E-004
	231	231	4.99988E-002	-6.27255E-003	0.00000E+000	-3.13620E-004	-6.11057E-002	4.25613E-002	3.58065E+001	11	...........	7.10211E-002	-5.26889E-003	6.05655E-001	5.38228E-001	-2.69760E-002	-3.80465E-002	7.05600E-001	-4.38800E-002	-4.45483E-004	3.30494E-005	-3.79900E-003	-3.37606E-003	1.69208E-004	2.38649E-004	-4.42591E-003	2.75239E-004
	232	232	4.99985E-002	-6.22624E-003	0.00000E+000	-3.11303E-004	-6.06433E-002	4.25462E-002	3.59019E+001	11	...........	7.09872E-002	-5.26264E-003	6.05777E-001	5.38189E-001	-2.69860E-002	-3.80478E-002	7.05662E-001	-4.37307E-002	-4.41983E-004	3.27664E-005	-3.77171E-003	-3.35089E-003	1.68021E-004	2.36894E-004	-4.39362E-003	2.72278E-004
	233	233	4.99985E-002	-6.16829E-003	0.00000E+000	-3.08405E-004	-6.00683E-002	4.25695E-002	3.56970E+001	11	...........	7.10244E-002	-5.28000E-003	6.05926E-001	5.38317E-001	-2.69874E-002	-3.80597E-002	7.05667E-001	-4.38325E-002	-4.38099E-004	3.25685E-005	-3.73752E-003	-3.32050E-003	1.66466E-004	2.34763E-004	-4.35276E-003	2.70371E-004
	234	234	4.99987E-002	-6.08879E-003	0.00000E+000	-3.04432E-004	-5.92777E-002	4.25351E-002	3.57414E+001	11	...........	7.09672E-002	-5.19694E-003	6.05940E-001	5.38378E-001	-2.69712E-002	-3.80240E-002	7.05560E-001	-4.39310E-002	-4.32105E-004	3.16431E-005	-3.68944E-003	-3.27807E-003	1.64222E-004	2.31520E-004	-4.29601E-003	2.67487E-004
	235	235	4.99987E-002	-6.03372E-003	0.00000E+000	-3.01679E-004	-5.87313E-002	4.25458E-002	3.58237E+001	11	...........	7.09840E-002	-5.24847E-003	6.05948E-001	5.38408E-001	-2.69617E-002	-3.80200E-002	7.05496E-001	-4.38907E-002	-4.28298E-004	3.16678E-005	-3.65613E-003	-3.24861E-003	1.62679E-004	2.29402E-004	-4.25677E-003	2.64824E-004
	236	236	4.99984E-002	-5.98319E-003	0.00000E+000	-2.99150E-004	-5.82240E-002	4.25713E-002	3.58870E+001	11	...........	7.10387E-002	-5.20194E-003	6.05887E-001	5.38297E-001	-2.69958E-002	-3.79936E-002	7.05562E-001	-4.38846E-002	-4.25039E-004	3.11242E-005	-3.62514E-003	-3.22074E-003	1.61521E-004	2.27323E-004	-4.22151E-003	2.62570E-004
	237	237	4.99987E-002	-5.90928E-003	0.00000E+000	-2.95456E-004	-5.74863E-002	4.25850E-002	3.59099E+001	11	...........	7.10542E-002	-5.20292E-003	6.05951E-001	5.38231E-001	-2.70119E-002	-3.79962E-002	7.05634E-001	-4.37911E-002	-4.19879E-004	3.07455E-005	-3.58073E-003	-3.18055E-003	1.59621E-004	2.24530E-004	-4.16979E-003	2.58774E-004
	238	238	4.99987E-002	-5.87340E-003	0.00000E+000	-2.93662E-004	-5.71317E-002	4.25870E-002	3.58906E+001	11	...........	7.10768E-002	-5.25639E-003	6.05863E-001	5.38204E-001	-2.70018E-002	-3.80004E-002	7.05497E-001	-4.37311E-002	-4.17462E-004	3.08729E-005	-3.55847E-003	-3.16109E-003	1.58592E-004	2.23192E-004	-4.14367E-003	2.56850E-004
	239	239	4.99988E-002	-5.80894E-003	0.00000E+000	-2.90440E-004	-5.64903E-002	4.26004E-002	3.59530E+001	11	...........	7.10710E-002	-5.29028E-003	6.06005E-001	5.38136E-001	-2.70006E-002	-3.80143E-002	7.05598E-001	-4.37733E-002	-4.12847E-004	3.07309E-005	-3.52025E-003	-3.12600E-003	1.56845E-004	2.20823E-004	-4.09877E-003	2.54277E-004
	240	240	4.99986E-002	-5.74651E-003	0.00000E+000	-2.87317E-004	-5.58717E-002	4.26207E-002	3.57248E+001	11	...........	7.11196E-002	-5.31542E-003	6.06049E-001	5.38147E-001	-2.70258E-002	-3.80400E-002	7.05663E-001	-4.38331E-002	-4.08689E-004	3.05451E-005	-3.48266E-003	-3.09246E-003	1.55304E-004	2.18597E-004	-4.05510E-003	2.51887E-004
	241	241	4.99977E-002	-5.59922E-003	0.00000E+000	-2.79948E-004	-5.44060E-002	4.24413E-002	3.45422E+001	11	...........	7.07726E-002	-5.32847E-003	6.06048E-001	5.38336E-001	-2.70292E-002	-3.80331E-002	7.05559E-001	-4.38147E-002	-3.96271E-004	2.98353E-005	-3.39340E-003	-3.01426E-003	1.51342E-004	2.12955E-004	-3.95058E-003	2.45328E-004
	242	242	4.99993E-002	-5.61972E-003	0.00000E+000	-2.80982E-004	-5.46057E-002	4.26933E-002	3.59608E+001	11	...........	7.12456E-002	-5.27236E-003	6.06140E-001	5.38428E-001	-2.70394E-002	-3.80219E-002	7.05441E-001	-4.38486E-002	-4.00380E-004	2.96292E-005	-3.40634E-003	-3.02581E-003	1.51954E-004	2.13672E-004	-3.96437E-003	2.46417E-004
	243	243	4.99986E-002	-5.57035E-003	0.00000E+000	-2.78510E-004	-5.41160E-002	4.25070E-002	3.61592E+001	11	...........	7.09162E-002	-5.37250E-003	6.06074E-001	5.38377E-001	-2.70422E-002	-3.80072E-002	7.05411E-001	-4.38489E-002	-3.95028E-004	2.99267E-005	-3.37605E-003	-2.99894E-003	1.50635E-004	2.11713E-004	-3.92938E-003	2.44254E-004
	244	244	4.99989E-002	-5.51322E-003	0.00000E+000	-2.75655E-004	-5.35440E-002	4.25545E-002	3.60929E+001	11	...........	7.10076E-002	-5.38125E-003	6.06036E-001	5.38420E-001	-2.70415E-002	-3.79861E-002	7.05426E-001	-4.38972E-002	-3.91480E-004	2.96680E-005	-3.34121E-003	-2.96843E-003	1.49086E-004	2.09426E-004	-3.88917E-003	2.42015E-004
	245	245	4.99988E-002	-5.44411E-003	0.00000E+000	-2.72199E-004	-5.28580E-002	4.25772E-002	3.59030E+001	11	...........	7.10311E-002	-5.40861E-003	6.06028E-001	5.38242E-001	-2.70329E-002	-3.79768E-002	7.05401E-001	-4.39218E-002	-3.86701E-004	2.94451E-005	-3.29929E-003	-2.93025E-003	1.47170E-004	2.06750E-004	-3.84029E-003	2.39115E-004
	246	246	4.99988E-002	-5.39144E-003	0.00000E+000	-2.69565E-004	-5.23363E-002	4.25253E-002	3.54445E+001	11	...........	7.09443E-002	-5.46625E-003	6.05956E-001	5.38283E-001	-2.70335E-002	-3.79772E-002	7.05475E-001	-4.39124E-002	-3.82492E-004	2.94709E-005	-3.26698E-003	-2.90212E-003	1.45749E-004	2.04752E-004	-3.80353E-003	2.36751E-004
	247	247	4.99986E-002	-5.35791E-003	0.00000E+000	-2.67888E-004	-5.19983E-002	4.25838E-002	3.59015E+001	11	...........	7.10601E-002	-5.37417E-003	6.05954E-001	5.38464E-001	-2.70432E-002	-3.79786E-002	7.05370E-001	-4.39792E-002	-3.80734E-004	2.87943E-005	-3.24665E-003	-2.88504E-003	1.44895E-004	2.03486E-004	-3.77931E-003	2.35636E-004
	248	248	4.99989E-002	-5.30466E-003	0.00000E+000	-2.65227E-004	-5.14687E-002	4.25792E-002	3.58987E+001	11	...........	7.10299E-002	-5.34778E-003	6.06058E-001	5.38652E-001	-2.70482E-002	-3.79819E-002	7.05379E-001	-4.39457E-002	-3.76789E-004	2.83682E-005	-3.21494E-003	-2.85737E-003	1.43482E-004	2.01481E-004	-3.74179E-003	2.33117E-004
	249	249	4.99986E-002	-5.26298E-003	0.00000E+000	-2.63142E-004	-5.10680E-002	4.26650E-002	3.60380E+001	11	...........	7.11850E-002	-5.31139E-003	6.06100E-001	5.38800E-001	-2.70614E-002	-3.80132E-002	7.05362E-001	-4.39513E-002	-3.74645E-004	2.79537E-005	-3.18989E-003	-2.83569E-003	1.42423E-004	2.00063E-004	-3.71230E-003	2.31314E-004
	250	250	4.99987E-002	-5.20356E-003	0.00000E+000	-2.60171E-004	-5.04870E-002	4.26081E-002	3.60571E+001	11	...........	7.10922E-002	-5.34847E-003	6.05948E-001	5.38832E-001	-2.70796E-002	-3.80032E-002	7.05402E-001	-4.39444E-002	-3.69933E-004	2.78311E-005	-3.15309E-003	-2.80385E-003	1.40910E-004	1.97752E-004	-3.67060E-003	2.28668E-004
	251	251	4.99988E-002	-5.14621E-003	0.00000E+000	-2.57304E-004	-4.99147E-002	4.26318E-002	3.60155E+001	11	...........	7.11082E-002	-5.35875E-003	6.06070E-001	5.38908E-001	-2.70619E-002	-3.80271E-002	7.05374E-001	-4.38982E-002	-3.65938E-004	2.75773E-005	-3.11897E-003	-2.77334E-003	1.39267E-004	1.95695E-004	-3.63000E-003	2.25909E-004
	252	252	4.99985E-002	-5.11956E-003	0.00000E+000	-2.55970E-004	-4.96477E-002	4.26253E-002	3.59663E+001	11	...........	7.11333E-002	-5.40847E-003	6.06184E-001	5.38928E-001	-2.70674E-002	-3.80510E-002	7.05452E-001	-4.40183E-002	-3.64171E-004	2.76890E-005	-3.10339E-003	-2.75908E-003	1.38573E-004	1.94804E-004	-3.61160E-003	2.25354E-004
	253	252.727	4.99984E-002	-5.06452E-003	0.00000E+000	-2.53218E-004	-4.91055E-002	4.26265E-002	3.43291E+001	11	...........	7.11217E-002	-5.31518E-003	6.06151E-001	5.38862E-001	-2.70707E-002	-3.80508E-002	7.05352E-001	-4.40988E-002	-3.60198E-004	2.69188E-005	-3.06987E-003	-2.72908E-003	1.37100E-004	1.92709E-004	-3.57227E-003	2.23339E-004
STARTTIMEOFFSET	QUANT	620280.2	Start Time Offset (s)
