EXPLAIN
TAG	PWR800_DISCHARGE
TITLE	LABEL	PWR Discharge	Test Identifier
DATE	LABEL	10/15/2022	Date
TIME	LABEL	4:35:46	Time
NOTES	NOTES	1	Notes...
	
PSTAT	PSTAT	REF3000-21114	Potentiostat
CAPACITY	QUANT	5.30000E-002	Capacity (A-hr)
CELLTYPE	SELECTOR	1	Cell Type
WORKINGCONNECTION	SELECTOR	0	Working Connection
MAXDISCHARGETIME	VARIABLEANDUNITS	7.20000E+003	s	2.00000E+000	hour(s)	Max Discharge Time
DISCHARGEMODE	MULTIPARAM	0	1.00000E-001	Discharge Mode	Constant Current	Amp(s)
VOLTAGEFINISH	TWOPARAM	T	5.00000E-003	7.20000E+003	Voltage Finish	I (A) <	Max Time(s)
SAMPLETIME	QUANT	1.00000E+000	Sample Period (s)
DISCHARGESTOPAT1	MULTIPARAM	1	5.00000E-002	Stop At 1	|Voltage| < Limit	V
DISCHARGESTOPAT2	MULTIPARAM	0	0.00000E+000	Stop At 2	None	N/A
AESELECTOR	AESELECTOR	0x1	T	Set Limits	AE Channels
AESBHCSELECTOR	TOGGLE	F	Save Both Half Cells
IRCOMP	TOGGLE	F	IR Measure
EOC	QUANT	0.5674363	Open Circuit (V)
SEQUENCER	TOGGLE	TRUE	Run as Sequence
PSTATMODEL	IQUANT	5	Pstat Model
PSTATSECTION	LABEL	REF3000-21114	Pstat Section
PSTATSERIALNO	LABEL	21114	Pstat Serial Number
CTRLMODE	IQUANT	0	Control Mode
ELECTROMETER	IQUANT	0	RE=0 or CS=1
IESTAB	IQUANT	0	I/E Stability
CASPEED	IQUANT	4	Control Amp Speed
CONVENTION	IQUANT	1	Current Convention
ICHRANGE	IQUANT	2	Ich Range
ICHRANGEMODE	TOGGLE	T	Ich Auto Range
ICHOFFSETENABLE	TOGGLE	F	Ich Offset Enable
ICHOFFSET	QUANT	0	Ich Offset (V)
ICHFILTER	IQUANT	1	Ich Filter
VCHRANGE	IQUANT	3	Vch Range
VCHRANGEMODE	TOGGLE	T	Vch Auto Range
VCHOFFSETENABLE	TOGGLE	F	Vch Offset Enable
VCHOFFSET	QUANT	0	Vch Offset (V)
VCHFILTER	IQUANT	1	Vch Filter
ACHRANGE	IQUANT	2	Ach Range
ACHOFFSETENABLE	TOGGLE	F	Ach Offset Enable
ACHOFFSET	QUANT	0	Ach Offset (V)
ACHFILTER	IQUANT	1	Ach Filter
IERANGELOWERLIMIT	IQUANT	9	I/E Range Lower Limit
IERANGEMODE	TOGGLE	F	I/E AutoRange
IERANGE	IQUANT	9	I/E Range
POSFEEDENABLE	TOGGLE	F	Positive Feedback IR Comp
POSFEEDRESISTANCE	QUANT	0	Positive Feedback Resistance (ohm)
ACHSELECT	IQUANT	1	Ach Select
SENSECABLEID	IQUANT	13	Sense Cable ID
PWRCABLEID	IQUANT	13	Power Cable ID
DCCALDATE	LABEL		DC Calibration Date
ACCALDATE	LABEL		AC Calibration Date
THERMOSELECT	IQUANT	1	Thermo Select
FRAMEWORKVERSION	LABEL	7.8.6	Framework Version
INSTRUMENTVERSION	LABEL	4.50	Instrument Version
COMPLIANCEVOLTAGE	IQUANT	0	Compliance Voltage
CURVE	TABLE	218
	Pt	T	Vf	Im	Vu	Pwr	Sig	Ach	Temp	IERange	Over	Vf1	Vf2	Vf3	Vf4	Vf5	Vf6	Vf7	Vf8	Pwr1	Pwr2	Pwr3	Pwr4	Pwr5	Pwr6	Pwr7	Pwr8
	#	s	V	A	V	W	V	V	deg C	#	bits	V	V	V	V	V	V	V	V	W	W	W	W	W	W	W	W
	0	1	3.38275E-001	-1.00087E-001	0.00000E+000	-3.38567E-002	-9.94000E-001	3.61781E-002	3.07923E+001	11	...........	6.00999E-002	-4.50958E-003	5.95541E-001	5.81688E-001	-2.79493E-002	-3.78756E-002	6.92466E-001	-4.29492E-002	-6.01519E-003	4.51349E-004	-5.96057E-002	-5.82192E-002	2.79735E-003	3.79083E-003	-6.93065E-002	4.29863E-003
	1	2	2.49367E-001	-1.00087E-001	0.00000E+000	-2.49584E-002	-9.94000E-001	3.62005E-002	3.01670E+001	11	...........	6.01222E-002	-4.40917E-003	5.95578E-001	5.81668E-001	-2.79569E-002	-3.78835E-002	6.92576E-001	-4.29058E-002	-6.01746E-003	4.41300E-004	-5.96097E-002	-5.82175E-002	2.79813E-003	3.79164E-003	-6.93179E-002	4.29432E-003
	2	3	1.80969E-001	-1.00087E-001	0.00000E+000	-1.81127E-002	-9.94000E-001	3.61622E-002	2.88285E+001	11	...........	6.00810E-002	-4.52069E-003	5.95589E-001	5.81547E-001	-2.79556E-002	-3.78764E-002	6.92523E-001	-4.30193E-002	-6.01335E-003	4.52465E-004	-5.96110E-002	-5.82055E-002	2.79800E-003	3.79095E-003	-6.93128E-002	4.30569E-003
	3	4	1.23622E-001	-1.00087E-001	0.00000E+000	-1.23730E-002	-9.94000E-001	3.60663E-002	2.81502E+001	11	...........	6.00383E-002	-4.48917E-003	5.95723E-001	5.81582E-001	-2.80092E-002	-3.78921E-002	6.92540E-001	-4.30219E-002	-6.00908E-003	4.49309E-004	-5.96244E-002	-5.82091E-002	2.80337E-003	3.79252E-003	-6.93145E-002	4.30596E-003
	4	5	7.75493E-002	-1.00088E-001	0.00000E+000	-7.76173E-003	-9.94000E-001	3.61458E-002	2.83457E+001	11	...........	6.00735E-002	-4.42208E-003	5.95957E-001	5.81528E-001	-2.79353E-002	-3.78894E-002	6.92513E-001	-4.30910E-002	-6.01261E-003	4.42596E-004	-5.96480E-002	-5.82038E-002	2.79598E-003	3.79227E-003	-6.93121E-002	4.31288E-003
	5	5.19333	5.39035E-002	-1.00088E-001	0.00000E+000	-5.39507E-003	-9.94000E-001	3.61888E-002	2.82117E+001	11	...........	6.01121E-002	-4.32471E-003	5.95925E-001	5.81522E-001	-2.79102E-002	-3.79239E-002	6.92359E-001	-4.30582E-002	-6.01648E-003	4.32851E-004	-5.96448E-002	-5.82032E-002	2.79347E-003	3.79571E-003	-6.92967E-002	4.30960E-003
	6	6	4.96830E-002	-8.97422E-002	0.00000E+000	-4.45866E-003	-8.91109E-001	3.62238E-002	2.84366E+001	11	...........	6.01477E-002	-4.30131E-003	5.95972E-001	5.81452E-001	-2.79566E-002	-3.78786E-002	6.92321E-001	-4.29928E-002	-5.39779E-003	3.86009E-004	-5.34838E-002	-5.21808E-002	2.50889E-003	3.39931E-003	-6.21304E-002	3.85827E-003
	7	7	4.98344E-002	-7.56994E-002	0.00000E+000	-3.77244E-003	-7.51484E-001	3.63287E-002	2.90737E+001	11	...........	6.03074E-002	-4.43528E-003	5.95830E-001	5.81316E-001	-2.79532E-002	-3.79119E-002	6.92403E-001	-4.29918E-002	-4.56523E-003	3.35748E-004	-4.51040E-002	-4.40053E-002	2.11604E-003	2.86991E-003	-5.24145E-002	3.25446E-003
	8	8	4.98884E-002	-6.67418E-002	0.00000E+000	-3.32964E-003	-6.62432E-001	3.63683E-002	2.88617E+001	11	...........	6.03565E-002	-4.65208E-003	5.95808E-001	5.81270E-001	-2.79987E-002	-3.79250E-002	6.92400E-001	-4.30208E-002	-4.02830E-003	3.10488E-004	-3.97653E-002	-3.87950E-002	1.86869E-003	2.53118E-003	-4.62120E-002	2.87129E-003
	9	9	4.99217E-002	-6.14282E-002	0.00000E+000	-3.06660E-003	-6.09587E-001	3.63552E-002	2.92979E+001	11	...........	6.03590E-002	-4.60972E-003	5.95742E-001	5.81154E-001	-2.79399E-002	-3.79361E-002	6.92372E-001	-4.30401E-002	-3.70775E-003	2.83167E-004	-3.65954E-002	-3.56992E-002	1.71630E-003	2.33035E-003	-4.25312E-002	2.64388E-003
	10	10	4.99304E-002	-5.88452E-002	0.00000E+000	-2.93817E-003	-5.83916E-001	3.66549E-002	3.00597E+001	11	...........	6.08269E-002	-4.66028E-003	5.95993E-001	5.81247E-001	-2.79599E-002	-3.79217E-002	6.92275E-001	-4.30335E-002	-3.57938E-003	2.74235E-004	-3.50713E-002	-3.42036E-002	1.64530E-003	2.23151E-003	-4.07371E-002	2.53231E-003
	11	11	4.99423E-002	-5.61056E-002	0.00000E+000	-2.80204E-003	-5.56671E-001	3.66519E-002	2.98194E+001	11	...........	6.08389E-002	-4.62347E-003	5.95991E-001	5.81250E-001	-2.79574E-002	-3.79099E-002	6.92270E-001	-4.30344E-002	-3.41340E-003	2.59403E-004	-3.34384E-002	-3.26114E-002	1.56856E-003	2.12696E-003	-3.88402E-002	2.41447E-003
	12	12	4.99598E-002	-5.37870E-002	0.00000E+000	-2.68719E-003	-5.33617E-001	3.66314E-002	3.03918E+001	11	...........	6.08018E-002	-4.73125E-003	5.96101E-001	5.81300E-001	-2.80249E-002	-3.79208E-002	6.92371E-001	-4.30907E-002	-3.27034E-003	2.54479E-004	-3.20624E-002	-3.12664E-002	1.50737E-003	2.03965E-003	-3.72405E-002	2.31772E-003
	13	13	4.99539E-002	-5.28552E-002	0.00000E+000	-2.64032E-003	-5.24336E-001	3.67174E-002	3.00945E+001	11	...........	6.09494E-002	-4.70639E-003	5.96048E-001	5.81358E-001	-2.79671E-002	-3.79474E-002	6.92384E-001	-4.31107E-002	-3.22149E-003	2.48757E-004	-3.15042E-002	-3.07278E-002	1.47820E-003	2.00571E-003	-3.65961E-002	2.27862E-003
	14	14	4.99600E-002	-5.10994E-002	0.00000E+000	-2.55293E-003	-5.06912E-001	3.67697E-002	3.06270E+001	11	...........	6.10212E-002	-4.61722E-003	5.96113E-001	5.81400E-001	-2.79193E-002	-3.79692E-002	6.92399E-001	-4.31128E-002	-3.11815E-003	2.35937E-004	-3.04611E-002	-2.97092E-002	1.42666E-003	1.94020E-003	-3.53812E-002	2.20304E-003
	15	15	4.99639E-002	-5.05077E-002	0.00000E+000	-2.52356E-003	-5.01008E-001	3.68329E-002	3.05486E+001	11	...........	6.11182E-002	-4.58639E-003	5.96267E-001	5.81396E-001	-2.79293E-002	-3.79892E-002	6.92371E-001	-4.31053E-002	-3.08694E-003	2.31648E-004	-3.01161E-002	-2.93650E-002	1.41065E-003	1.91875E-003	-3.49701E-002	2.17715E-003
	16	16	4.99557E-002	-4.87564E-002	0.00000E+000	-2.43566E-003	-4.83613E-001	3.69082E-002	3.02650E+001	11	...........	6.12314E-002	-4.56514E-003	5.96435E-001	5.81308E-001	-2.79429E-002	-3.79817E-002	6.92387E-001	-4.31950E-002	-2.98542E-003	2.22580E-004	-2.90801E-002	-2.83425E-002	1.36240E-003	1.85185E-003	-3.37583E-002	2.10603E-003
	17	17	4.99653E-002	-4.80181E-002	0.00000E+000	-2.39924E-003	-4.76262E-001	3.69099E-002	3.03726E+001	11	...........	6.12067E-002	-4.57903E-003	5.96536E-001	5.81049E-001	-2.80128E-002	-3.79801E-002	6.92382E-001	-4.30497E-002	-2.93903E-003	2.19876E-004	-2.86445E-002	-2.79009E-002	1.34512E-003	1.82373E-003	-3.32469E-002	2.06717E-003
	18	18	4.99629E-002	-4.78596E-002	0.00000E+000	-2.39121E-003	-4.74687E-001	3.71482E-002	3.11972E+001	11	...........	6.16154E-002	-4.76083E-003	5.96565E-001	5.81038E-001	-2.79776E-002	-3.79687E-002	6.92424E-001	-4.31493E-002	-2.94889E-003	2.27852E-004	-2.85513E-002	-2.78082E-002	1.33900E-003	1.81717E-003	-3.31391E-002	2.06511E-003
	19	19	4.99583E-002	-4.71294E-002	0.00000E+000	-2.35450E-003	-4.67437E-001	3.71725E-002	3.11365E+001	11	...........	6.16451E-002	-4.78153E-003	5.96416E-001	5.81006E-001	-2.79554E-002	-3.79675E-002	6.92488E-001	-4.30386E-002	-2.90530E-003	2.25351E-004	-2.81087E-002	-2.73825E-002	1.31752E-003	1.78939E-003	-3.26366E-002	2.02838E-003
	20	20	4.99735E-002	-4.64991E-002	0.00000E+000	-2.32373E-003	-4.61163E-001	3.71003E-002	3.09912E+001	11	...........	6.17354E-002	-4.68653E-003	5.96357E-001	5.81044E-001	-2.79643E-002	-3.79693E-002	6.92395E-001	-4.31775E-002	-2.87064E-003	2.17920E-004	-2.77301E-002	-2.70180E-002	1.30032E-003	1.76554E-003	-3.21958E-002	2.00772E-003
	21	21	4.99561E-002	-4.57614E-002	0.00000E+000	-2.28606E-003	-4.53821E-001	3.70213E-002	3.08384E+001	11	...........	6.17806E-002	-4.73792E-003	5.96328E-001	5.80978E-001	-2.80129E-002	-3.80121E-002	6.92429E-001	-4.31572E-002	-2.82716E-003	2.16814E-004	-2.72888E-002	-2.65864E-002	1.28191E-003	1.73949E-003	-3.16865E-002	1.97493E-003
	22	22	4.99666E-002	-4.48687E-002	0.00000E+000	-2.24193E-003	-4.44948E-001	3.71458E-002	3.15149E+001	11	...........	6.19821E-002	-4.77847E-003	5.96333E-001	5.80710E-001	-2.80651E-002	-3.79932E-002	6.92445E-001	-4.31647E-002	-2.78106E-003	2.14404E-004	-2.67567E-002	-2.60557E-002	1.25925E-003	1.70471E-003	-3.10691E-002	1.93674E-003
	23	23	4.99560E-002	-4.42355E-002	0.00000E+000	-2.20983E-003	-4.38654E-001	3.70812E-002	3.06476E+001	11	...........	6.19156E-002	-4.61486E-003	5.96260E-001	5.80359E-001	-2.80150E-002	-3.79747E-002	6.92435E-001	-4.31768E-002	-2.73887E-003	2.04141E-004	-2.63759E-002	-2.56725E-002	1.23926E-003	1.67983E-003	-3.06302E-002	1.90995E-003
	24	24	4.99830E-002	-4.36931E-002	0.00000E+000	-2.18391E-003	-4.33265E-001	3.72305E-002	3.11283E+001	11	...........	6.21083E-002	-4.53514E-003	5.96328E-001	5.80312E-001	-2.79387E-002	-3.79624E-002	6.92459E-001	-4.31679E-002	-2.71371E-003	1.98154E-004	-2.60554E-002	-2.53556E-002	1.22073E-003	1.65869E-003	-3.02557E-002	1.88614E-003
	25	25	4.99597E-002	-4.35283E-002	0.00000E+000	-2.17467E-003	-4.31627E-001	3.72902E-002	3.12819E+001	11	...........	6.22579E-002	-4.55264E-003	5.96163E-001	5.80309E-001	-2.79729E-002	-3.79854E-002	6.92520E-001	-4.31994E-002	-2.70998E-003	1.98169E-004	-2.59500E-002	-2.52599E-002	1.21761E-003	1.65344E-003	-3.01443E-002	1.88040E-003
	26	26	4.99653E-002	-4.27122E-002	0.00000E+000	-2.13413E-003	-4.23484E-001	3.73432E-002	3.15513E+001	11	...........	6.23156E-002	-4.65292E-003	5.96136E-001	5.80294E-001	-2.79471E-002	-3.80111E-002	6.92448E-001	-4.32154E-002	-2.66164E-003	1.98736E-004	-2.54623E-002	-2.47856E-002	1.19368E-003	1.62354E-003	-2.95760E-002	1.84583E-003
	27	27	4.99616E-002	-4.24112E-002	0.00000E+000	-2.11893E-003	-4.20503E-001	3.74985E-002	3.17202E+001	11	...........	6.25761E-002	-4.73278E-003	5.96007E-001	5.80324E-001	-2.80411E-002	-3.80025E-002	6.92430E-001	-4.32275E-002	-2.65393E-003	2.00723E-004	-2.52774E-002	-2.46123E-002	1.18926E-003	1.61173E-003	-2.93668E-002	1.83333E-003
	28	28	4.99621E-002	-4.13172E-002	0.00000E+000	-2.06429E-003	-4.09633E-001	3.73821E-002	3.03766E+001	11	...........	6.23954E-002	-4.70778E-003	5.96093E-001	5.80394E-001	-2.80265E-002	-3.80124E-002	6.92497E-001	-4.32350E-002	-2.57800E-003	1.94512E-004	-2.46289E-002	-2.39803E-002	1.15798E-003	1.57056E-003	-2.86120E-002	1.78635E-003
	29	29	4.99715E-002	-4.06042E-002	0.00000E+000	-2.02906E-003	-4.02561E-001	3.73682E-002	3.13139E+001	11	...........	6.23282E-002	-4.59611E-003	5.96294E-001	5.80512E-001	-2.79621E-002	-3.80301E-002	6.92504E-001	-4.32054E-002	-2.53079E-003	1.86622E-004	-2.42121E-002	-2.35713E-002	1.13538E-003	1.54418E-003	-2.81186E-002	1.75432E-003
	30	30	4.99718E-002	-4.08240E-002	0.00000E+000	-2.04005E-003	-4.04761E-001	3.75451E-002	3.19615E+001	11	...........	6.26128E-002	-4.76472E-003	5.96271E-001	5.80471E-001	-2.79828E-002	-3.80649E-002	6.92462E-001	-4.32660E-002	-2.55610E-003	1.94515E-004	-2.43421E-002	-2.36971E-002	1.14237E-003	1.55396E-003	-2.82690E-002	1.76629E-003
	31	31	4.99539E-002	-4.05050E-002	0.00000E+000	-2.02338E-003	-4.01575E-001	3.75666E-002	3.13442E+001	11	...........	6.26412E-002	-4.75875E-003	5.96152E-001	5.80220E-001	-2.79672E-002	-3.80565E-002	6.92447E-001	-4.32304E-002	-2.53728E-003	1.92753E-004	-2.41471E-002	-2.35018E-002	1.13281E-003	1.54148E-003	-2.80476E-002	1.75105E-003
	32	32	4.99789E-002	-3.97030E-002	0.00000E+000	-1.98431E-003	-3.93592E-001	3.75193E-002	3.17960E+001	11	...........	6.25936E-002	-4.72736E-003	5.96181E-001	5.80242E-001	-2.80165E-002	-3.80594E-002	6.92375E-001	-4.31808E-002	-2.48516E-003	1.87691E-004	-2.36702E-002	-2.30374E-002	1.11234E-003	1.51108E-003	-2.74894E-002	1.71441E-003
	33	33	4.99626E-002	-3.94993E-002	0.00000E+000	-1.97349E-003	-3.91582E-001	3.75718E-002	3.13772E+001	11	...........	6.26511E-002	-4.63931E-003	5.96231E-001	5.80246E-001	-2.80525E-002	-3.80522E-002	6.92506E-001	-4.33157E-002	-2.47468E-003	1.83249E-004	-2.35507E-002	-2.29193E-002	1.10806E-003	1.50304E-003	-2.73535E-002	1.71094E-003
	34	34	4.99669E-002	-3.86447E-002	0.00000E+000	-1.93095E-003	-3.83082E-001	3.75360E-002	3.17827E+001	11	...........	6.25850E-002	-4.63944E-003	5.96083E-001	5.80330E-001	-2.80307E-002	-3.80365E-002	6.92497E-001	-4.32164E-002	-2.41858E-003	1.79290E-004	-2.30354E-002	-2.24267E-002	1.08324E-003	1.46991E-003	-2.67613E-002	1.67008E-003
	35	35	4.99701E-002	-3.85477E-002	0.00000E+000	-1.92623E-003	-3.82119E-001	3.75946E-002	3.21346E+001	11	...........	6.26685E-002	-4.72694E-003	5.96195E-001	5.80433E-001	-2.79699E-002	-3.80189E-002	6.92377E-001	-4.31133E-002	-2.41572E-003	1.82213E-004	-2.29819E-002	-2.23744E-002	1.07817E-003	1.46554E-003	-2.66895E-002	1.66192E-003
	36	36	4.99608E-002	-3.79787E-002	0.00000E+000	-1.89745E-003	-3.76452E-001	3.76274E-002	3.14811E+001	11	...........	6.27162E-002	-4.80903E-003	5.96201E-001	5.80434E-001	-2.79568E-002	-3.79903E-002	6.92404E-001	-4.30458E-002	-2.38188E-003	1.82641E-004	-2.26430E-002	-2.20442E-002	1.06176E-003	1.44282E-003	-2.62966E-002	1.63483E-003
	37	37	4.99686E-002	-3.69059E-002	0.00000E+000	-1.84413E-003	-3.65787E-001	3.75608E-002	3.12624E+001	11	...........	6.26422E-002	-4.70222E-003	5.96226E-001	5.80545E-001	-2.80025E-002	-3.80150E-002	6.92357E-001	-4.31719E-002	-2.31187E-003	1.73540E-004	-2.20043E-002	-2.14255E-002	1.03346E-003	1.40298E-003	-2.55520E-002	1.59330E-003
	38	38	4.99704E-002	-3.72272E-002	0.00000E+000	-1.86026E-003	-3.68981E-001	3.76580E-002	3.24126E+001	11	...........	6.27812E-002	-4.65014E-003	5.96373E-001	5.80496E-001	-2.80951E-002	-3.79850E-002	6.92341E-001	-4.31990E-002	-2.33717E-003	1.73112E-004	-2.22013E-002	-2.16103E-002	1.04590E-003	1.41408E-003	-2.57739E-002	1.60818E-003
	39	39	4.99667E-002	-3.68568E-002	0.00000E+000	-1.84161E-003	-3.65303E-001	3.76428E-002	3.21312E+001	11	...........	6.27439E-002	-4.52681E-003	5.96292E-001	5.80486E-001	-2.80554E-002	-3.79954E-002	6.92363E-001	-4.32137E-002	-2.31254E-003	1.66844E-004	-2.19774E-002	-2.13949E-002	1.03403E-003	1.40039E-003	-2.55183E-002	1.59272E-003
	40	40	4.99610E-002	-3.60946E-002	0.00000E+000	-1.80332E-003	-3.57711E-001	3.76404E-002	3.17749E+001	11	...........	6.27383E-002	-4.57042E-003	5.96231E-001	5.80487E-001	-2.80135E-002	-3.80161E-002	6.92319E-001	-4.32351E-002	-2.26451E-003	1.64967E-004	-2.15207E-002	-2.09525E-002	1.01113E-003	1.37218E-003	-2.49890E-002	1.56055E-003
	41	41	4.99704E-002	-3.56633E-002	0.00000E+000	-1.78211E-003	-3.53425E-001	3.77159E-002	3.13984E+001	11	...........	6.28846E-002	-4.64625E-003	5.96338E-001	5.80355E-001	-2.80606E-002	-3.80312E-002	6.92234E-001	-4.31928E-002	-2.24267E-003	1.65701E-004	-2.12674E-002	-2.06974E-002	1.00073E-003	1.35632E-003	-2.46874E-002	1.54040E-003
	42	42	4.99650E-002	-3.48802E-002	0.00000E+000	-1.74279E-003	-3.45625E-001	3.76002E-002	3.17377E+001	11	...........	6.27112E-002	-4.55708E-003	5.96378E-001	5.80159E-001	-2.81050E-002	-3.80171E-002	6.92294E-001	-4.32114E-002	-2.18738E-003	1.58952E-004	-2.08018E-002	-2.02360E-002	9.80307E-004	1.32604E-003	-2.41473E-002	1.50722E-003
	43	43	4.99728E-002	-3.50888E-002	0.00000E+000	-1.75348E-003	-3.47685E-001	3.77234E-002	3.20403E+001	11	...........	6.28974E-002	-4.69500E-003	5.96265E-001	5.80139E-001	-2.80676E-002	-3.80332E-002	6.92342E-001	-4.31857E-002	-2.20699E-003	1.64742E-004	-2.09222E-002	-2.03564E-002	9.84860E-004	1.33454E-003	-2.42935E-002	1.51533E-003
	44	44	4.99647E-002	-3.45024E-002	0.00000E+000	-1.72390E-003	-3.41885E-001	3.77217E-002	3.24493E+001	11	...........	6.28915E-002	-4.73958E-003	5.96030E-001	5.80240E-001	-2.80143E-002	-3.80478E-002	6.92232E-001	-4.31637E-002	-2.16991E-003	1.63527E-004	-2.05645E-002	-2.00197E-002	9.66560E-004	1.31274E-003	-2.38836E-002	1.48925E-003
	45	45	4.99673E-002	-3.42179E-002	0.00000E+000	-1.70978E-003	-3.39057E-001	3.77738E-002	3.20414E+001	11	...........	6.29889E-002	-4.63889E-003	5.95978E-001	5.80223E-001	-2.80412E-002	-3.80321E-002	6.92280E-001	-4.31947E-002	-2.15535E-003	1.58733E-004	-2.03931E-002	-1.98540E-002	9.59513E-004	1.30138E-003	-2.36884E-002	1.47803E-003
	46	46	4.99615E-002	-3.32530E-002	0.00000E+000	-1.66137E-003	-3.29462E-001	3.76835E-002	3.18251E+001	11	...........	6.28257E-002	-4.61250E-003	5.95867E-001	5.80213E-001	-2.80926E-002	-3.80379E-002	6.92269E-001	-4.32069E-002	-2.08915E-003	1.53380E-004	-1.98144E-002	-1.92939E-002	9.34166E-004	1.26488E-003	-2.30200E-002	1.43676E-003
	47	47	4.99723E-002	-3.32420E-002	0.00000E+000	-1.66118E-003	-3.29354E-001	3.77752E-002	3.18298E+001	11	...........	6.30017E-002	-4.52681E-003	5.95884E-001	5.80180E-001	-2.80571E-002	-3.80210E-002	6.92308E-001	-4.31196E-002	-2.09430E-003	1.50480E-004	-1.98084E-002	-1.92863E-002	9.32672E-004	1.26389E-003	-2.30137E-002	1.43338E-003
	48	48	4.99736E-002	-3.29996E-002	0.00000E+000	-1.64911E-003	-3.26937E-001	3.78045E-002	3.26546E+001	11	...........	6.30365E-002	-4.60278E-003	5.96091E-001	5.80146E-001	-2.79744E-002	-3.80335E-002	6.92239E-001	-4.31901E-002	-2.08018E-003	1.51890E-004	-1.96707E-002	-1.91446E-002	9.23144E-004	1.25509E-003	-2.28436E-002	1.42526E-003
	49	49	4.99666E-002	-3.27609E-002	0.00000E+000	-1.63695E-003	-3.24557E-001	3.78080E-002	3.25030E+001	11	...........	6.30587E-002	-4.56708E-003	5.96153E-001	5.80258E-001	-2.79656E-002	-3.80724E-002	6.92335E-001	-4.32329E-002	-2.06586E-003	1.49622E-004	-1.95305E-002	-1.90097E-002	9.16175E-004	1.24728E-003	-2.26815E-002	1.41635E-003
	50	50	4.99599E-002	-3.18745E-002	0.00000E+000	-1.59245E-003	-3.15743E-001	3.77508E-002	3.20888E+001	11	...........	6.29407E-002	-4.45903E-003	5.96208E-001	5.80382E-001	-2.80039E-002	-3.80683E-002	6.92356E-001	-4.32306E-002	-2.00620E-003	1.42129E-004	-1.90038E-002	-1.84994E-002	8.92609E-004	1.21341E-003	-2.20685E-002	1.37795E-003
	51	51	4.99669E-002	-3.15675E-002	0.00000E+000	-1.57733E-003	-3.12694E-001	3.78712E-002	3.20809E+001	11	...........	6.31576E-002	-4.55597E-003	5.96272E-001	5.80348E-001	-2.80564E-002	-3.80769E-002	6.92205E-001	-4.32915E-002	-1.99373E-003	1.43821E-004	-1.88228E-002	-1.83201E-002	8.85670E-004	1.20199E-003	-2.18512E-002	1.36661E-003
	52	52	4.99736E-002	-3.14873E-002	0.00000E+000	-1.57353E-003	-3.11897E-001	3.78842E-002	3.24831E+001	11	...........	6.31933E-002	-4.64847E-003	5.96304E-001	5.80308E-001	-2.79796E-002	-3.80569E-002	6.92288E-001	-4.33457E-002	-1.98979E-003	1.46368E-004	-1.87760E-002	-1.82723E-002	8.81001E-004	1.19831E-003	-2.17983E-002	1.36484E-003
	53	53	4.99653E-002	-3.11011E-002	0.00000E+000	-1.55398E-003	-3.08064E-001	3.78441E-002	3.22335E+001	11	...........	6.31242E-002	-4.68597E-003	5.96234E-001	5.80496E-001	-2.79417E-002	-3.80358E-002	6.92285E-001	-4.32642E-002	-1.96323E-003	1.45739E-004	-1.85436E-002	-1.80541E-002	8.69017E-004	1.18296E-003	-2.15308E-002	1.34556E-003
	54	54	4.99691E-002	-3.08021E-002	0.00000E+000	-1.53915E-003	-3.05116E-001	3.79692E-002	3.26016E+001	11	...........	6.33164E-002	-4.58000E-003	5.96375E-001	5.80632E-001	-2.79739E-002	-3.80533E-002	6.92370E-001	-4.32167E-002	-1.95027E-003	1.41073E-004	-1.83696E-002	-1.78847E-002	8.61653E-004	1.17212E-003	-2.13264E-002	1.33116E-003
	55	55	4.99613E-002	-2.99301E-002	0.00000E+000	-1.49535E-003	-2.96423E-001	3.78547E-002	3.14730E+001	11	...........	6.31160E-002	-4.65347E-003	5.96391E-001	5.80717E-001	-2.79572E-002	-3.80726E-002	6.92387E-001	-4.30914E-002	-1.88907E-003	1.39279E-004	-1.78500E-002	-1.73809E-002	8.36762E-004	1.13952E-003	-2.07232E-002	1.28973E-003
	56	56	4.99782E-002	-2.96774E-002	0.00000E+000	-1.48322E-003	-2.93909E-001	3.79092E-002	3.22081E+001	11	...........	6.32397E-002	-4.66583E-003	5.96465E-001	5.80788E-001	-2.80115E-002	-3.80536E-002	6.92216E-001	-4.31299E-002	-1.87679E-003	1.38470E-004	-1.77015E-002	-1.72363E-002	8.31310E-004	1.12933E-003	-2.05432E-002	1.27998E-003
	57	57	4.99650E-002	-2.98259E-002	0.00000E+000	-1.49025E-003	-2.95383E-001	3.80138E-002	3.28458E+001	11	...........	6.34140E-002	-4.71889E-003	5.96457E-001	5.80867E-001	-2.80435E-002	-3.80461E-002	6.92230E-001	-4.31857E-002	-1.89138E-003	1.40745E-004	-1.77899E-002	-1.73249E-002	8.36421E-004	1.13476E-003	-2.06464E-002	1.28805E-003
	58	58	4.99635E-002	-2.93132E-002	0.00000E+000	-1.46459E-003	-2.90311E-001	3.80066E-002	3.16985E+001	11	...........	6.33885E-002	-4.77306E-003	5.96513E-001	5.80949E-001	-2.80383E-002	-3.80285E-002	6.92217E-001	-4.31375E-002	-1.85812E-003	1.39913E-004	-1.74857E-002	-1.70295E-002	8.21893E-004	1.11474E-003	-2.02911E-002	1.26450E-003
	59	59	4.99736E-002	-2.87471E-002	0.00000E+000	-1.43660E-003	-2.84679E-001	3.80628E-002	3.27557E+001	11	...........	6.34846E-002	-4.77639E-003	5.96447E-001	5.81208E-001	-2.79422E-002	-3.80351E-002	6.92265E-001	-4.32240E-002	-1.82500E-003	1.37307E-004	-1.71461E-002	-1.67080E-002	8.03258E-004	1.09340E-003	-1.99006E-002	1.24256E-003
	60	60	4.99670E-002	-2.85790E-002	0.00000E+000	-1.42801E-003	-2.83005E-001	3.80128E-002	3.32254E+001	11	...........	6.34167E-002	-4.73361E-003	5.96461E-001	5.81252E-001	-2.79485E-002	-3.80283E-002	6.92311E-001	-4.31858E-002	-1.81238E-003	1.35282E-004	-1.70462E-002	-1.66116E-002	7.98739E-004	1.08681E-003	-1.97855E-002	1.23421E-003
	61	61	4.99623E-002	-2.80912E-002	0.00000E+000	-1.40350E-003	-2.78160E-001	3.80423E-002	3.19265E+001	11	...........	6.34560E-002	-4.78542E-003	5.96403E-001	5.81268E-001	-2.79501E-002	-3.80371E-002	6.92389E-001	-4.31585E-002	-1.78255E-003	1.34428E-004	-1.67537E-002	-1.63285E-002	7.85152E-004	1.06851E-003	-1.94500E-002	1.21237E-003
	62	62	4.99759E-002	-2.75559E-002	0.00000E+000	-1.37713E-003	-2.72825E-001	3.79687E-002	3.21493E+001	11	...........	6.33332E-002	-4.69042E-003	5.96418E-001	5.81191E-001	-2.79203E-002	-3.80387E-002	6.92308E-001	-4.31965E-002	-1.74521E-003	1.29249E-004	-1.64349E-002	-1.60153E-002	7.69370E-004	1.04819E-003	-1.90772E-002	1.19032E-003
	63	63	4.99681E-002	-2.76386E-002	0.00000E+000	-1.38105E-003	-2.73652E-001	3.81612E-002	3.30680E+001	11	...........	6.36500E-002	-4.73986E-003	5.96422E-001	5.80998E-001	-2.79540E-002	-3.80422E-002	6.92264E-001	-4.31536E-002	-1.75920E-003	1.31003E-004	-1.64843E-002	-1.60580E-002	7.72610E-004	1.05143E-003	-1.91332E-002	1.19271E-003
	64	64	4.99681E-002	-2.73386E-002	0.00000E+000	-1.36606E-003	-2.70643E-001	3.81331E-002	3.30403E+001	11	...........	6.36064E-002	-4.75931E-003	5.96413E-001	5.81085E-001	-2.80214E-002	-3.80292E-002	6.92302E-001	-4.32029E-002	-1.73891E-003	1.30113E-004	-1.63051E-002	-1.58861E-002	7.66065E-004	1.03966E-003	-1.89266E-002	1.18111E-003
	65	65	4.99666E-002	-2.67420E-002	0.00000E+000	-1.33621E-003	-2.64731E-001	3.80462E-002	3.25706E+001	11	...........	6.34533E-002	-4.74542E-003	5.96371E-001	5.81143E-001	-2.80040E-002	-3.79950E-002	6.92260E-001	-4.32515E-002	-1.69687E-003	1.26902E-004	-1.59482E-002	-1.55409E-002	7.48884E-004	1.01606E-003	-1.85124E-002	1.15663E-003
	66	66	4.99644E-002	-2.65097E-002	0.00000E+000	-1.32454E-003	-2.62430E-001	3.82157E-002	3.30374E+001	11	...........	6.37549E-002	-4.72056E-003	5.96450E-001	5.81132E-001	-2.79462E-002	-3.79821E-002	6.92335E-001	-4.33390E-002	-1.69012E-003	1.25141E-004	-1.58117E-002	-1.54056E-002	7.40847E-004	1.00689E-003	-1.83536E-002	1.14891E-003
	67	67	4.99682E-002	-2.59113E-002	0.00000E+000	-1.29474E-003	-2.56467E-001	3.80005E-002	3.17880E+001	11	...........	6.33656E-002	-4.73000E-003	5.96538E-001	5.81138E-001	-2.79147E-002	-3.79899E-002	6.92295E-001	-4.33661E-002	-1.64188E-003	1.22560E-004	-1.54570E-002	-1.50580E-002	7.23306E-004	9.84365E-004	-1.79382E-002	1.12367E-003
	68	68	4.99779E-002	-2.58803E-002	0.00000E+000	-1.29345E-003	-2.56168E-001	3.82097E-002	3.29573E+001	11	...........	6.37301E-002	-4.62847E-003	5.96649E-001	5.81253E-001	-2.79036E-002	-3.79876E-002	6.92317E-001	-4.32800E-002	-1.64936E-003	1.19786E-004	-1.54415E-002	-1.50430E-002	7.22155E-004	9.83133E-004	-1.79174E-002	1.12010E-003
	69	69	4.99632E-002	-2.57388E-002	0.00000E+000	-1.28599E-003	-2.54760E-001	3.81544E-002	3.29443E+001	11	...........	6.36392E-002	-4.58181E-003	5.96774E-001	5.81310E-001	-2.79144E-002	-3.79571E-002	6.92328E-001	-4.32744E-002	-1.63799E-003	1.17930E-004	-1.53602E-002	-1.49622E-002	7.18483E-004	9.76969E-004	-1.78197E-002	1.11383E-003
	70	70	4.99708E-002	-2.53535E-002	0.00000E+000	-1.26694E-003	-2.50932E-001	3.82776E-002	3.32011E+001	11	...........	6.38507E-002	-4.73319E-003	5.96556E-001	5.81340E-001	-2.79437E-002	-3.79712E-002	6.92362E-001	-4.32642E-002	-1.61884E-003	1.20003E-004	-1.51248E-002	-1.47390E-002	7.08473E-004	9.62706E-004	-1.75538E-002	1.09690E-003
	71	71	4.99683E-002	-2.51574E-002	0.00000E+000	-1.25707E-003	-2.48973E-001	3.81827E-002	3.34970E+001	11	...........	6.36983E-002	-4.65444E-003	5.96680E-001	5.81213E-001	-2.79496E-002	-3.79742E-002	6.92303E-001	-4.32025E-002	-1.60248E-003	1.17094E-004	-1.50109E-002	-1.46218E-002	7.03138E-004	9.55330E-004	-1.74165E-002	1.08686E-003
	72	72	4.99630E-002	-2.46233E-002	0.00000E+000	-1.23025E-003	-2.43656E-001	3.81400E-002	3.20219E+001	11	...........	6.36271E-002	-4.73333E-003	5.96826E-001	5.81314E-001	-2.79433E-002	-3.79904E-002	6.92315E-001	-4.31251E-002	-1.56671E-003	1.16550E-004	-1.46958E-002	-1.43139E-002	6.88057E-004	9.35450E-004	-1.70471E-002	1.06188E-003
	73	73	4.99673E-002	-2.42317E-002	0.00000E+000	-1.21079E-003	-2.39775E-001	3.82143E-002	3.25458E+001	11	...........	6.37514E-002	-4.64319E-003	5.96836E-001	5.81317E-001	-2.79581E-002	-3.79639E-002	6.92320E-001	-4.31025E-002	-1.54480E-003	1.12512E-004	-1.44624E-002	-1.40863E-002	6.77471E-004	9.19929E-004	-1.67761E-002	1.04445E-003
	74	74	4.99797E-002	-2.43255E-002	0.00000E+000	-1.21578E-003	-2.40694E-001	3.82807E-002	3.35350E+001	11	...........	6.38531E-002	-4.62292E-003	5.96954E-001	5.81283E-001	-2.79878E-002	-3.79390E-002	6.92402E-001	-4.31674E-002	-1.55326E-003	1.12455E-004	-1.45212E-002	-1.41400E-002	6.80816E-004	9.22884E-004	-1.68430E-002	1.05007E-003
	75	75	4.99675E-002	-2.40355E-002	0.00000E+000	-1.20099E-003	-2.37825E-001	3.82401E-002	3.34094E+001	11	...........	6.37943E-002	-4.65653E-003	5.97063E-001	5.81295E-001	-2.80087E-002	-3.79397E-002	6.92347E-001	-4.31411E-002	-1.53333E-003	1.11922E-004	-1.43507E-002	-1.39717E-002	6.73205E-004	9.11901E-004	-1.66409E-002	1.03692E-003
	76	76	4.99638E-002	-2.34666E-002	0.00000E+000	-1.17248E-003	-2.32169E-001	3.82212E-002	3.29315E+001	11	...........	6.37401E-002	-4.66306E-003	5.97059E-001	5.81567E-001	-2.80161E-002	-3.79607E-002	6.92388E-001	-4.32018E-002	-1.49576E-003	1.09426E-004	-1.40110E-002	-1.36474E-002	6.57443E-004	8.90809E-004	-1.62480E-002	1.01380E-003
	77	77	4.99739E-002	-2.33027E-002	0.00000E+000	-1.16453E-003	-2.30542E-001	3.83033E-002	3.27013E+001	11	...........	6.38717E-002	-4.76167E-003	5.97057E-001	5.81716E-001	-2.80486E-002	-3.79572E-002	6.92264E-001	-4.32814E-002	-1.48838E-003	1.10960E-004	-1.39131E-002	-1.35556E-002	6.53609E-004	8.84507E-004	-1.61316E-002	1.00857E-003
	78	78	4.99700E-002	-2.30781E-002	0.00000E+000	-1.15321E-003	-2.28309E-001	3.82523E-002	3.35159E+001	11	...........	6.37926E-002	-4.81722E-003	5.96999E-001	5.81616E-001	-2.80350E-002	-3.79585E-002	6.92292E-001	-4.32611E-002	-1.47221E-003	1.11172E-004	-1.37776E-002	-1.34226E-002	6.46994E-004	8.76008E-004	-1.59768E-002	9.98383E-004
	79	79	4.99663E-002	-2.29726E-002	0.00000E+000	-1.14786E-003	-2.27257E-001	3.83568E-002	3.37036E+001	11	...........	6.39833E-002	-4.75208E-003	5.97116E-001	5.81647E-001	-2.80661E-002	-3.79257E-002	6.92316E-001	-4.32232E-002	-1.46986E-003	1.09168E-004	-1.37173E-002	-1.33619E-002	6.44752E-004	8.71253E-004	-1.59043E-002	9.92950E-004
	80	80	4.99680E-002	-2.25614E-002	0.00000E+000	-1.12735E-003	-2.23161E-001	3.83545E-002	3.36836E+001	11	...........	6.39807E-002	-4.69681E-003	5.97070E-001	5.81732E-001	-2.80814E-002	-3.79301E-002	6.92329E-001	-4.31389E-002	-1.44349E-003	1.05966E-004	-1.34707E-002	-1.31247E-002	6.33555E-004	8.55757E-004	-1.56199E-002	9.73273E-004
	81	81	4.99655E-002	-2.19497E-002	0.00000E+000	-1.09673E-003	-2.17071E-001	3.82037E-002	3.18552E+001	11	...........	6.37311E-002	-4.75139E-003	5.97019E-001	5.81805E-001	-2.81019E-002	-3.79375E-002	6.92316E-001	-4.32151E-002	-1.39888E-003	1.04292E-004	-1.31044E-002	-1.27705E-002	6.16830E-004	8.32718E-004	-1.51961E-002	9.48560E-004
	82	82	4.99784E-002	-2.19596E-002	0.00000E+000	-1.09750E-003	-2.17165E-001	3.83881E-002	3.34600E+001	11	...........	6.40718E-002	-4.75681E-003	5.96866E-001	5.81677E-001	-2.80951E-002	-3.79306E-002	6.92379E-001	-4.31090E-002	-1.40699E-003	1.04458E-004	-1.31069E-002	-1.27734E-002	6.16958E-004	8.32940E-004	-1.52044E-002	9.46657E-004
	83	83	4.99659E-002	-2.19181E-002	0.00000E+000	-1.09516E-003	-2.16757E-001	3.84404E-002	3.36404E+001	11	...........	6.41349E-002	-4.83625E-003	5.96880E-001	5.81432E-001	-2.80258E-002	-3.79194E-002	6.92341E-001	-4.31586E-002	-1.40572E-003	1.06002E-004	-1.30825E-002	-1.27439E-002	6.14274E-004	8.31124E-004	-1.51748E-002	9.45956E-004
	84	84	4.99670E-002	-2.13822E-002	0.00000E+000	-1.06841E-003	-2.11433E-001	3.83611E-002	3.34907E+001	11	...........	6.39876E-002	-4.72958E-003	5.96828E-001	5.81366E-001	-2.79972E-002	-3.79283E-002	6.92251E-001	-4.31782E-002	-1.36820E-003	1.01129E-004	-1.27615E-002	-1.24309E-002	5.98642E-004	8.10991E-004	-1.48018E-002	9.23245E-004
	85	85	4.99636E-002	-2.11121E-002	0.00000E+000	-1.05483E-003	-2.08744E-001	3.84007E-002	3.27402E+001	11	...........	6.40744E-002	-4.66972E-003	5.96703E-001	5.81403E-001	-2.80142E-002	-3.78994E-002	6.92265E-001	-4.32061E-002	-1.35274E-003	9.85875E-005	-1.25976E-002	-1.22746E-002	5.91437E-004	8.00135E-004	-1.46151E-002	9.12170E-004
	86	86	4.99775E-002	-2.08975E-002	0.00000E+000	-1.04440E-003	-2.06619E-001	3.83867E-002	3.33113E+001	11	...........	6.40401E-002	-4.59847E-003	5.96576E-001	5.81438E-001	-2.80028E-002	-3.79129E-002	6.92289E-001	-4.32104E-002	-1.33828E-003	9.60964E-005	-1.24669E-002	-1.21506E-002	5.85187E-004	7.92284E-004	-1.44671E-002	9.02988E-004
	87	87	4.99686E-002	-2.08686E-002	0.00000E+000	-1.04277E-003	-2.06326E-001	3.84202E-002	3.40717E+001	11	...........	6.42067E-002	-4.58944E-003	5.96532E-001	5.81404E-001	-2.80136E-002	-3.79092E-002	6.92289E-001	-4.31600E-002	-1.33990E-003	9.57751E-005	-1.24487E-002	-1.21331E-002	5.84603E-004	7.91109E-004	-1.44471E-002	9.00687E-004
	88	88	4.99614E-002	-2.05028E-002	0.00000E+000	-1.02435E-003	-2.02701E-001	3.84584E-002	3.30946E+001	11	...........	6.41597E-002	-4.76347E-003	5.96443E-001	5.81322E-001	-2.80750E-002	-3.79222E-002	6.92417E-001	-4.32308E-002	-1.31545E-003	9.76644E-005	-1.22287E-002	-1.19187E-002	5.75615E-004	7.77511E-004	-1.41965E-002	8.86352E-004
	89	89	4.99738E-002	-1.99748E-002	0.00000E+000	-9.98217E-004	-1.97448E-001	3.84682E-002	3.31085E+001	11	...........	6.41661E-002	-4.63819E-003	5.96418E-001	5.81449E-001	-2.80733E-002	-3.79236E-002	6.92452E-001	-4.32800E-002	-1.28171E-003	9.26471E-005	-1.19133E-002	-1.16143E-002	5.60760E-004	7.57517E-004	-1.38316E-002	8.64510E-004
	90	90	4.99695E-002	-1.96367E-002	0.00000E+000	-9.81238E-004	-1.94075E-001	3.82997E-002	3.26198E+001	11	...........	6.38844E-002	-4.60639E-003	5.96456E-001	5.81507E-001	-2.80547E-002	-3.79454E-002	6.92372E-001	-4.32118E-002	-1.25448E-003	9.04545E-005	-1.17124E-002	-1.14189E-002	5.50903E-004	7.45124E-004	-1.35959E-002	8.48539E-004
	91	91	4.99705E-002	-1.97541E-002	0.00000E+000	-9.87120E-004	-1.95246E-001	3.86113E-002	3.34966E+001	11	...........	6.44017E-002	-4.68736E-003	5.96332E-001	5.81559E-001	-2.79982E-002	-3.79506E-002	6.92404E-001	-4.32251E-002	-1.27219E-003	9.25944E-005	-1.17800E-002	-1.14882E-002	5.53078E-004	7.49677E-004	-1.36778E-002	8.53872E-004
	92	92	4.99721E-002	-1.95525E-002	0.00000E+000	-9.77080E-004	-1.93226E-001	3.85496E-002	3.35722E+001	11	...........	6.43229E-002	-4.62639E-003	5.96225E-001	5.81482E-001	-2.79781E-002	-3.79410E-002	6.92399E-001	-4.31456E-002	-1.25768E-003	9.04576E-005	-1.16577E-002	-1.13694E-002	5.47042E-004	7.41842E-004	-1.35381E-002	8.43604E-004
	93	93	4.99678E-002	-1.91551E-002	0.00000E+000	-9.57137E-004	-1.89298E-001	3.84862E-002	3.38257E+001	11	...........	6.42132E-002	-4.60014E-003	5.96329E-001	5.81409E-001	-2.79850E-002	-3.79593E-002	6.92384E-001	-4.31432E-002	-1.23001E-003	8.81160E-005	-1.14227E-002	-1.11369E-002	5.36055E-004	7.27114E-004	-1.32627E-002	8.26411E-004
	94	94	4.99632E-002	-1.87972E-002	0.00000E+000	-9.39166E-004	-1.85741E-001	3.85012E-002	3.24778E+001	11	...........	6.42240E-002	-4.64917E-003	5.96474E-001	5.81277E-001	-2.79729E-002	-3.79733E-002	6.92288E-001	-4.32267E-002	-1.20723E-003	8.73911E-005	-1.12120E-002	-1.09264E-002	5.25812E-004	7.13791E-004	-1.30130E-002	8.12539E-004
	95	95	4.99743E-002	-1.87102E-002	0.00000E+000	-9.35031E-004	-1.84870E-001	3.85854E-002	3.33104E+001	11	...........	6.43549E-002	-4.65194E-003	5.96393E-001	5.81355E-001	-2.80421E-002	-3.79671E-002	6.92263E-001	-4.31861E-002	-1.20409E-003	8.70389E-005	-1.11587E-002	-1.08773E-002	5.24674E-004	7.10373E-004	-1.29524E-002	8.08022E-004
	96	96	4.99730E-002	-1.86373E-002	0.00000E+000	-9.31363E-004	-1.84154E-001	3.85460E-002	3.38566E+001	11	...........	6.43217E-002	-4.62806E-003	5.96321E-001	5.81353E-001	-2.80379E-002	-3.79708E-002	6.92287E-001	-4.31835E-002	-1.19878E-003	8.62546E-005	-1.11138E-002	-1.08349E-002	5.22552E-004	7.07675E-004	-1.29024E-002	8.04824E-004
	97	97	4.99700E-002	-1.83972E-002	0.00000E+000	-9.19306E-004	-1.81757E-001	3.85413E-002	3.40625E+001	11	...........	6.43119E-002	-4.54153E-003	5.96358E-001	5.81273E-001	-2.79574E-002	-3.79671E-002	6.92260E-001	-4.31933E-002	-1.18316E-003	8.35512E-005	-1.09713E-002	-1.06938E-002	5.14336E-004	6.98487E-004	-1.27356E-002	7.94635E-004
	98	98	4.99687E-002	-1.81853E-002	0.00000E+000	-9.08696E-004	-1.79652E-001	3.86066E-002	3.36931E+001	11	...........	6.44085E-002	-4.61611E-003	5.96383E-001	5.81403E-001	-2.79510E-002	-3.79532E-002	6.92251E-001	-4.31376E-002	-1.17129E-003	8.39453E-005	-1.08454E-002	-1.05730E-002	5.08296E-004	6.90190E-004	-1.25888E-002	7.84470E-004
	99	99	4.99668E-002	-1.77883E-002	0.00000E+000	-8.88824E-004	-1.75713E-001	3.85070E-002	3.28826E+001	11	...........	6.42364E-002	-4.48903E-003	5.96336E-001	5.81439E-001	-2.79167E-002	-3.79947E-002	6.92332E-001	-4.30983E-002	-1.14266E-003	7.98521E-005	-1.06078E-002	-1.03428E-002	4.96590E-004	6.75861E-004	-1.23154E-002	7.66646E-004
	100	100	4.99743E-002	-1.76655E-002	0.00000E+000	-8.82823E-004	-1.74491E-001	3.86345E-002	3.38568E+001	11	...........	6.44460E-002	-4.53736E-003	5.96361E-001	5.81568E-001	-2.80174E-002	-3.79989E-002	6.92332E-001	-4.31715E-002	-1.13847E-003	8.01549E-005	-1.05350E-002	-1.02737E-002	4.94941E-004	6.71270E-004	-1.22304E-002	7.62648E-004
	101	101	4.99671E-002	-1.75272E-002	0.00000E+000	-8.75783E-004	-1.73111E-001	3.85897E-002	3.37121E+001	11	...........	6.43726E-002	-4.54208E-003	5.96310E-001	5.81766E-001	-2.80101E-002	-3.79457E-002	6.92307E-001	-4.31701E-002	-1.12827E-003	7.96100E-005	-1.04516E-002	-1.01967E-002	4.90940E-004	6.65082E-004	-1.21342E-002	7.56652E-004
	102	102	4.99718E-002	-1.73241E-002	0.00000E+000	-8.65717E-004	-1.71091E-001	3.86922E-002	3.39698E+001	11	...........	6.45339E-002	-4.55486E-003	5.96200E-001	5.81699E-001	-2.79299E-002	-3.79072E-002	6.92294E-001	-4.31719E-002	-1.11799E-003	7.89089E-005	-1.03286E-002	-1.00774E-002	4.83860E-004	6.56709E-004	-1.19934E-002	7.47915E-004
	103	103	4.99639E-002	-1.69421E-002	0.00000E+000	-8.46495E-004	-1.67284E-001	3.85979E-002	3.31380E+001	11	...........	6.43957E-002	-4.46264E-003	5.96194E-001	5.81883E-001	-2.79706E-002	-3.79218E-002	6.92317E-001	-4.31953E-002	-1.09100E-003	7.56067E-005	-1.01008E-002	-9.85834E-003	4.73881E-004	6.42477E-004	-1.17293E-002	7.31820E-004
	104	104	4.99756E-002	-1.67220E-002	0.00000E+000	-8.35695E-004	-1.65081E-001	3.85323E-002	3.31893E+001	11	...........	6.42742E-002	-4.40833E-003	5.96199E-001	5.81786E-001	-2.79653E-002	-3.79290E-002	6.92345E-001	-4.30603E-002	-1.07480E-003	7.37163E-005	-9.96966E-003	-9.72866E-003	4.67637E-004	6.34251E-004	-1.15774E-002	7.20056E-004
	105	105	4.99715E-002	-1.68208E-002	0.00000E+000	-8.40560E-004	-1.66043E-001	3.87181E-002	3.43181E+001	11	...........	6.46105E-002	-4.56500E-003	5.96282E-001	5.81701E-001	-2.80544E-002	-3.79412E-002	6.92350E-001	-4.32174E-002	-1.08680E-003	7.67869E-005	-1.00299E-002	-9.78468E-003	4.71898E-004	6.38202E-004	-1.16459E-002	7.26950E-004
	106	106	4.99683E-002	-1.66012E-002	0.00000E+000	-8.29533E-004	-1.63911E-001	3.86632E-002	3.40001E+001	11	...........	6.44935E-002	-4.60583E-003	5.96139E-001	5.81628E-001	-2.79965E-002	-3.79540E-002	6.92425E-001	-4.32606E-002	-1.07067E-003	7.64622E-005	-9.89661E-003	-9.65570E-003	4.64775E-004	6.30081E-004	-1.14951E-002	7.18176E-004
	107	107	4.99714E-002	-1.62371E-002	0.00000E+000	-8.11390E-004	-1.60281E-001	3.86099E-002	3.37227E+001	11	...........	6.44014E-002	-4.65778E-003	5.96188E-001	5.81648E-001	-2.79764E-002	-3.79618E-002	6.92471E-001	-4.32936E-002	-1.04569E-003	7.56287E-005	-9.68036E-003	-9.44426E-003	4.54255E-004	6.16389E-004	-1.12437E-002	7.02962E-004
	108	108	4.99683E-002	-1.61131E-002	0.00000E+000	-8.05143E-004	-1.59043E-001	3.87681E-002	3.33177E+001	11	...........	6.46511E-002	-4.69444E-003	5.96250E-001	5.81661E-001	-2.79987E-002	-3.79678E-002	6.92447E-001	-4.31925E-002	-1.04173E-003	7.56420E-005	-9.60743E-003	-9.37236E-003	4.51146E-004	6.11778E-004	-1.11575E-002	6.95964E-004
	109	109	4.99691E-002	-1.57096E-002	0.00000E+000	-7.84996E-004	-1.55021E-001	3.85165E-002	3.34480E+001	11	...........	6.42624E-002	-4.46375E-003	5.96240E-001	5.81670E-001	-2.80714E-002	-3.79704E-002	6.92367E-001	-4.31932E-002	-1.00954E-003	7.01238E-005	-9.36671E-003	-9.13782E-003	4.40991E-004	5.96501E-004	-1.08768E-002	6.78549E-004
	110	110	4.99726E-002	-1.57858E-002	0.00000E+000	-7.88857E-004	-1.55783E-001	3.87674E-002	3.41389E+001	11	...........	6.46750E-002	-4.45667E-003	5.96244E-001	5.81843E-001	-2.79974E-002	-3.79806E-002	6.92359E-001	-4.31829E-002	-1.02095E-003	7.03521E-005	-9.41219E-003	-9.18486E-003	4.41961E-004	5.99554E-004	-1.09295E-002	6.81677E-004
	111	111	4.99679E-002	-1.56151E-002	0.00000E+000	-7.80255E-004	-1.54087E-001	3.87460E-002	3.39150E+001	11	...........	6.46456E-002	-4.59264E-003	5.96270E-001	5.81948E-001	-2.80143E-002	-3.80042E-002	6.92321E-001	-4.31843E-002	-1.00945E-003	7.17146E-005	-9.31083E-003	-9.08720E-003	4.37447E-004	5.93440E-004	-1.08107E-002	6.74328E-004
	112	112	4.99722E-002	-1.53597E-002	0.00000E+000	-7.67557E-004	-1.51551E-001	3.87279E-002	3.42570E+001	11	...........	6.46147E-002	-4.69111E-003	5.96354E-001	5.81959E-001	-2.80865E-002	-3.80076E-002	6.92295E-001	-4.32265E-002	-9.92462E-004	7.20540E-005	-9.15982E-003	-8.93871E-003	4.31400E-004	5.83786E-004	-1.06334E-002	6.63946E-004
	113	113	4.99700E-002	-1.52095E-002	0.00000E+000	-7.60020E-004	-1.50065E-001	3.87655E-002	3.39249E+001	11	...........	6.46712E-002	-4.79792E-003	5.96557E-001	5.81945E-001	-2.80029E-002	-3.79986E-002	6.92337E-001	-4.31464E-002	-9.83618E-004	7.29740E-005	-9.07335E-003	-8.85110E-003	4.25911E-004	5.77940E-004	-1.05301E-002	6.56236E-004
	114	114	4.99682E-002	-1.47911E-002	0.00000E+000	-7.39084E-004	-1.45888E-001	3.84489E-002	3.30624E+001	11	...........	6.41410E-002	-4.64250E-003	5.96594E-001	5.81952E-001	-2.79885E-002	-3.79579E-002	6.92317E-001	-4.30171E-002	-9.48715E-004	6.86677E-005	-8.82428E-003	-8.60771E-003	4.13980E-004	5.61439E-004	-1.02401E-002	6.36270E-004
	115	115	4.99741E-002	-1.48983E-002	0.00000E+000	-7.44531E-004	-1.46948E-001	3.89006E-002	3.42865E+001	11	...........	6.49106E-002	-4.57097E-003	5.96649E-001	5.82084E-001	-2.80847E-002	-3.79315E-002	6.92309E-001	-4.31303E-002	-9.67060E-004	6.80999E-005	-8.88908E-003	-8.67209E-003	4.18416E-004	5.65117E-004	-1.03143E-002	6.42570E-004
	116	116	4.99696E-002	-1.46656E-002	0.00000E+000	-7.32833E-004	-1.44633E-001	3.86495E-002	3.39306E+001	11	...........	6.44857E-002	-4.65542E-003	5.96575E-001	5.82184E-001	-2.80156E-002	-3.79346E-002	6.92263E-001	-4.31976E-002	-9.45720E-004	6.82744E-005	-8.74911E-003	-8.53807E-003	4.10864E-004	5.56333E-004	-1.01524E-002	6.33518E-004
	117	117	4.99702E-002	-1.45786E-002	0.00000E+000	-7.28494E-004	-1.43761E-001	3.88672E-002	3.41309E+001	11	...........	6.48646E-002	-4.67431E-003	5.96513E-001	5.82134E-001	-2.80286E-002	-3.79451E-002	6.92340E-001	-4.31779E-002	-9.45633E-004	6.81447E-005	-8.69631E-003	-8.48669E-003	4.08617E-004	5.53186E-004	-1.00933E-002	6.29473E-004
	118	118	4.99680E-002	-1.41900E-002	0.00000E+000	-7.09044E-004	-1.39897E-001	3.87040E-002	3.35098E+001	11	...........	6.45643E-002	-4.72792E-003	5.96477E-001	5.82242E-001	-2.81294E-002	-3.79524E-002	6.92365E-001	-4.31611E-002	-9.16165E-004	6.70890E-005	-8.46399E-003	-8.26200E-003	3.99156E-004	5.38543E-004	-9.82463E-003	6.12455E-004
	119	119	4.99715E-002	-1.40538E-002	0.00000E+000	-7.02287E-004	-1.38565E-001	3.87392E-002	3.38007E+001	11	...........	6.46151E-002	-4.53431E-003	5.96511E-001	5.82264E-001	-2.80389E-002	-3.79546E-002	6.92388E-001	-4.31425E-002	-9.08085E-004	6.37240E-005	-8.38322E-003	-8.18300E-003	3.94052E-004	5.33404E-004	-9.73065E-003	6.06314E-004
	120	120	4.99721E-002	-1.40462E-002	0.00000E+000	-7.01920E-004	-1.38492E-001	3.88450E-002	3.41721E+001	11	...........	6.47785E-002	-4.57014E-003	5.96605E-001	5.82351E-001	-2.80661E-002	-3.79654E-002	6.92437E-001	-4.31736E-002	-9.09894E-004	6.41933E-005	-8.38006E-003	-8.17984E-003	3.94223E-004	5.33271E-004	-9.72615E-003	6.06427E-004
	121	121	4.99695E-002	-1.38071E-002	0.00000E+000	-6.89936E-004	-1.36111E-001	3.87122E-002	3.40363E+001	11	...........	6.45944E-002	-4.65028E-003	5.96713E-001	5.82310E-001	-2.81042E-002	-3.79393E-002	6.92361E-001	-4.31289E-002	-8.91865E-004	6.42071E-005	-8.23891E-003	-8.04004E-003	3.88038E-004	5.23833E-004	-9.55952E-003	5.95487E-004
	122	122	4.99703E-002	-1.36998E-002	0.00000E+000	-6.84584E-004	-1.35035E-001	3.89112E-002	3.44982E+001	11	...........	6.49180E-002	-4.75944E-003	5.96800E-001	5.82267E-001	-2.80057E-002	-3.79369E-002	6.92309E-001	-4.31836E-002	-8.89365E-004	6.52035E-005	-8.17605E-003	-7.97694E-003	3.83673E-004	5.19729E-004	-9.48451E-003	5.91608E-004
	123	123	4.99692E-002	-1.34741E-002	0.00000E+000	-6.73292E-004	-1.32804E-001	3.87836E-002	3.32741E+001	11	...........	6.47029E-002	-4.70181E-003	5.96653E-001	5.82328E-001	-2.79928E-002	-3.79567E-002	6.92332E-001	-4.32872E-002	-8.71815E-004	6.33527E-005	-8.03937E-003	-7.84636E-003	3.77178E-004	5.11433E-004	-9.32857E-003	5.83258E-004
	124	124	4.99721E-002	-1.32869E-002	0.00000E+000	-6.63974E-004	-1.30935E-001	3.87895E-002	3.42755E+001	11	...........	6.47261E-002	-4.67792E-003	5.96805E-001	5.82319E-001	-2.80701E-002	-3.79386E-002	6.92391E-001	-4.33537E-002	-8.60010E-004	6.21550E-005	-7.92970E-003	-7.73722E-003	3.72965E-004	5.04087E-004	-9.19974E-003	5.76037E-004
	125	125	4.99701E-002	-1.32118E-002	0.00000E+000	-6.60196E-004	-1.30179E-001	3.88676E-002	3.47318E+001	11	...........	6.48333E-002	-4.59236E-003	5.96930E-001	5.82200E-001	-2.80022E-002	-3.79149E-002	6.92489E-001	-4.32390E-002	-8.56567E-004	6.06735E-005	-7.88654E-003	-7.69193E-003	3.69961E-004	5.00925E-004	-9.14904E-003	5.71267E-004
	126	126	4.99697E-002	-1.30734E-002	0.00000E+000	-6.53275E-004	-1.28812E-001	3.88351E-002	3.38879E+001	11	...........	6.47936E-002	-4.57194E-003	5.96958E-001	5.82136E-001	-2.79958E-002	-3.79422E-002	6.92446E-001	-4.32233E-002	-8.47074E-004	5.97710E-005	-7.80428E-003	-7.61051E-003	3.66001E-004	4.96035E-004	-9.05264E-003	5.65077E-004
	127	127	4.99716E-002	-1.27768E-002	0.00000E+000	-6.38478E-004	-1.25873E-001	3.88174E-002	3.42143E+001	11	...........	6.47574E-002	-4.58125E-003	5.97099E-001	5.82207E-001	-2.80729E-002	-3.79532E-002	6.92395E-001	-4.32029E-002	-8.27392E-004	5.85337E-005	-7.62902E-003	-7.43875E-003	3.58682E-004	4.84921E-004	-8.84660E-003	5.51995E-004
	128	128	4.99709E-002	-1.26419E-002	0.00000E+000	-6.31727E-004	-1.24527E-001	3.87014E-002	3.36324E+001	11	...........	6.45658E-002	-4.78625E-003	5.97145E-001	5.82372E-001	-2.80787E-002	-3.79619E-002	6.92397E-001	-4.30996E-002	-8.16235E-004	6.05073E-005	-7.54904E-003	-7.36229E-003	3.54969E-004	4.79911E-004	-8.75321E-003	5.44860E-004
	129	129	4.99707E-002	-1.26282E-002	0.00000E+000	-6.31041E-004	-1.24389E-001	3.89546E-002	3.45249E+001	11	...........	6.49696E-002	-4.84639E-003	5.97176E-001	5.82500E-001	-2.80022E-002	-3.79387E-002	6.92466E-001	-4.30703E-002	-8.20450E-004	6.12013E-005	-7.54127E-003	-7.35594E-003	3.53618E-004	4.79099E-004	-8.74462E-003	5.43901E-004
	130	130	4.99709E-002	-1.24803E-002	0.00000E+000	-6.23654E-004	-1.22912E-001	3.88830E-002	3.47748E+001	11	...........	6.48718E-002	-4.73847E-003	5.97129E-001	5.82489E-001	-2.80167E-002	-3.79076E-002	6.92578E-001	-4.31196E-002	-8.09622E-004	5.91378E-005	-7.45238E-003	-7.26966E-003	3.49658E-004	4.73100E-004	-8.64361E-003	5.38147E-004
	131	131	4.99676E-002	-1.22227E-002	0.00000E+000	-6.10739E-004	-1.20347E-001	3.88627E-002	3.35161E+001	11	...........	6.48450E-002	-4.74319E-003	5.97002E-001	5.82562E-001	-2.80994E-002	-3.78725E-002	6.92547E-001	-4.32399E-002	-7.92582E-004	5.79747E-005	-7.29699E-003	-7.12049E-003	3.43451E-004	4.62905E-004	-8.46480E-003	5.28508E-004
	132	132	4.99707E-002	-1.19494E-002	0.00000E+000	-5.97120E-004	-1.17618E-001	3.87745E-002	3.34992E+001	11	...........	6.46811E-002	-4.53917E-003	5.96866E-001	5.82385E-001	-2.81111E-002	-3.78797E-002	6.92471E-001	-4.31685E-002	-7.72900E-004	5.42403E-005	-7.13218E-003	-6.95914E-003	3.35911E-004	4.52640E-004	-8.27460E-003	5.15837E-004
	133	133	4.99736E-002	-1.19875E-002	0.00000E+000	-5.99059E-004	-1.17996E-001	3.89724E-002	3.44062E+001	11	...........	6.50236E-002	-4.58347E-003	5.96942E-001	5.82246E-001	-2.80250E-002	-3.79143E-002	6.92386E-001	-4.32179E-002	-7.79471E-004	5.49444E-005	-7.15585E-003	-6.97968E-003	3.35950E-004	4.54498E-004	-8.29998E-003	5.18075E-004
	134	134	4.99691E-002	-1.18797E-002	0.00000E+000	-5.93616E-004	-1.16922E-001	3.88748E-002	3.37831E+001	11	...........	6.48476E-002	-4.53042E-003	5.96985E-001	5.82277E-001	-2.80189E-002	-3.78865E-002	6.92451E-001	-4.30883E-002	-7.70368E-004	5.38198E-005	-7.09198E-003	-6.91725E-003	3.32855E-004	4.50079E-004	-8.22609E-003	5.11875E-004
	135	135	4.99713E-002	-1.17377E-002	0.00000E+000	-5.86549E-004	-1.15505E-001	3.89725E-002	3.44898E+001	11	...........	6.50081E-002	-4.49625E-003	5.97007E-001	5.82451E-001	-2.80625E-002	-3.78735E-002	6.92370E-001	-4.31012E-002	-7.63047E-004	5.27758E-005	-7.00751E-003	-6.83665E-003	3.29390E-004	4.44549E-004	-8.12686E-003	5.05911E-004
	136	136	4.99682E-002	-1.15606E-002	0.00000E+000	-5.77663E-004	-1.13756E-001	3.89457E-002	3.36064E+001	11	...........	6.49696E-002	-4.57625E-003	5.97037E-001	5.82543E-001	-2.81262E-002	-3.78758E-002	6.92449E-001	-4.30657E-002	-7.51088E-004	5.29043E-005	-6.90212E-003	-6.73455E-003	3.25157E-004	4.37868E-004	-8.00514E-003	4.97866E-004
	137	137	4.99755E-002	-1.13670E-002	0.00000E+000	-5.68071E-004	-1.11841E-001	3.88023E-002	3.43002E+001	11	...........	6.47050E-002	-4.66500E-003	5.97171E-001	5.82542E-001	-2.80968E-002	-3.79060E-002	6.92409E-001	-4.31693E-002	-7.35501E-004	5.30270E-005	-6.78804E-003	-6.62175E-003	3.19376E-004	4.30877E-004	-7.87061E-003	4.90705E-004
	138	138	4.99688E-002	-1.14277E-002	0.00000E+000	-5.71031E-004	-1.12453E-001	3.90253E-002	3.42504E+001	11	...........	6.50993E-002	-4.81264E-003	5.97177E-001	5.82404E-001	-2.80093E-002	-3.78919E-002	6.92336E-001	-4.31904E-002	-7.43938E-004	5.49976E-005	-6.82439E-003	-6.65555E-003	3.20083E-004	4.33019E-004	-7.91183E-003	4.93569E-004
	139	139	4.99722E-002	-1.12038E-002	0.00000E+000	-5.59878E-004	-1.10219E-001	3.89473E-002	3.42606E+001	11	...........	6.49714E-002	-4.72958E-003	5.96935E-001	5.82054E-001	-2.80018E-002	-3.78803E-002	6.92390E-001	-4.31472E-002	-7.27925E-004	5.29892E-005	-6.68793E-003	-6.52120E-003	3.13726E-004	4.24402E-004	-7.75739E-003	4.83412E-004
	140	140	4.99688E-002	-1.10049E-002	0.00000E+000	-5.49902E-004	-1.08237E-001	3.89023E-002	3.44457E+001	11	...........	6.48804E-002	-4.78403E-003	5.96738E-001	5.81929E-001	-2.80375E-002	-3.78933E-002	6.92367E-001	-4.32262E-002	-7.14003E-004	5.26478E-005	-6.56705E-003	-6.40408E-003	3.08550E-004	4.17013E-004	-7.61944E-003	4.75701E-004
	141	141	4.99721E-002	-1.09159E-002	0.00000E+000	-5.45491E-004	-1.07352E-001	3.89739E-002	3.39715E+001	11	...........	6.50294E-002	-4.79333E-003	5.96504E-001	5.81980E-001	-2.81393E-002	-3.79201E-002	6.92355E-001	-4.31914E-002	-7.09855E-004	5.23235E-005	-6.51138E-003	-6.35283E-003	3.07166E-004	4.13932E-004	-7.55767E-003	4.71473E-004
	142	142	4.99726E-002	-1.08493E-002	0.00000E+000	-5.42168E-004	-1.06691E-001	3.89292E-002	3.47163E+001	11	...........	6.49336E-002	-4.76569E-003	5.96501E-001	5.81915E-001	-2.81389E-002	-3.79257E-002	6.92420E-001	-4.31714E-002	-7.04485E-004	5.17045E-005	-6.47163E-003	-6.31338E-003	3.05287E-004	4.11467E-004	-7.51227E-003	4.68380E-004
	143	143	4.99697E-002	-1.07860E-002	0.00000E+000	-5.38973E-004	-1.06058E-001	3.90159E-002	3.50374E+001	11	...........	6.50879E-002	-4.57069E-003	5.96525E-001	5.81941E-001	-2.80531E-002	-3.79593E-002	6.92357E-001	-4.31624E-002	-7.02038E-004	4.92995E-005	-6.43411E-003	-6.27681E-003	3.02580E-004	4.09429E-004	-7.46776E-003	4.65549E-004
	144	144	4.99680E-002	-1.05727E-002	0.00000E+000	-5.28298E-004	-1.03945E-001	3.89462E-002	3.37417E+001	11	...........	6.49857E-002	-4.47847E-003	5.96523E-001	5.81848E-001	-2.80301E-002	-3.79449E-002	6.92331E-001	-4.31207E-002	-6.87076E-004	4.73497E-005	-6.30688E-003	-6.15172E-003	2.96355E-004	4.01181E-004	-7.31983E-003	4.55903E-004
	145	145	4.99727E-002	-1.03679E-002	0.00000E+000	-5.18110E-004	-1.01939E-001	3.89701E-002	3.43101E+001	11	...........	6.50094E-002	-4.47083E-003	5.96495E-001	5.81801E-001	-2.80582E-002	-3.79476E-002	6.92369E-001	-4.30511E-002	-6.74009E-004	4.63530E-005	-6.18438E-003	-6.03203E-003	2.90904E-004	3.93436E-004	-7.17839E-003	4.46348E-004
	146	146	4.99731E-002	-1.03835E-002	0.00000E+000	-5.18894E-004	-1.02085E-001	3.89774E-002	3.42165E+001	11	...........	6.50346E-002	-4.49611E-003	5.96560E-001	5.81616E-001	-2.81247E-002	-3.79229E-002	6.92388E-001	-4.31289E-002	-6.75284E-004	4.66852E-005	-6.19435E-003	-6.03918E-003	2.92032E-004	3.93771E-004	-7.18938E-003	4.47827E-004
	147	147	4.99705E-002	-1.02432E-002	0.00000E+000	-5.11857E-004	-1.00705E-001	3.89083E-002	3.49347E+001	11	...........	6.49011E-002	-4.52222E-003	5.96676E-001	5.81666E-001	-2.81222E-002	-3.78964E-002	6.92316E-001	-4.30801E-002	-6.64794E-004	4.63219E-005	-6.11186E-003	-5.95811E-003	2.88061E-004	3.88179E-004	-7.09151E-003	4.41278E-004
	148	148	4.99700E-002	-1.01799E-002	0.00000E+000	-5.08688E-004	-1.00071E-001	3.90632E-002	3.45458E+001	11	...........	6.51560E-002	-4.59625E-003	5.96647E-001	5.81787E-001	-2.80774E-002	-3.79132E-002	6.92401E-001	-4.32086E-002	-6.63280E-004	4.67892E-005	-6.07379E-003	-5.92251E-003	2.85824E-004	3.85952E-004	-7.04855E-003	4.39858E-004
	149	149	4.99699E-002	-9.93207E-003	0.00000E+000	-4.96304E-004	-9.76020E-002	3.89570E-002	3.35361E+001	11	...........	6.49730E-002	-4.60917E-003	5.96869E-001	5.81780E-001	-2.80404E-002	-3.79328E-002	6.92363E-001	-4.31704E-002	-6.45317E-004	4.57786E-005	-5.92815E-003	-5.77828E-003	2.78499E-004	3.76751E-004	-6.87660E-003	4.28772E-004
	150	150	4.99722E-002	-9.86028E-003	0.00000E+000	-4.92740E-004	-9.68760E-002	3.90145E-002	3.45167E+001	11	...........	6.50882E-002	-4.71625E-003	5.96733E-001	5.82034E-001	-2.80232E-002	-3.79101E-002	6.92304E-001	-4.32078E-002	-6.41788E-004	4.65036E-005	-5.88395E-003	-5.73902E-003	2.76317E-004	3.73805E-004	-6.82632E-003	4.26041E-004
	151	151	4.99724E-002	-9.82712E-003	0.00000E+000	-4.91085E-004	-9.65560E-002	3.90707E-002	3.46816E+001	11	...........	6.51793E-002	-4.72375E-003	5.96700E-001	5.82113E-001	-2.80396E-002	-3.79104E-002	6.92349E-001	-4.32031E-002	-6.40525E-004	4.64208E-005	-5.86384E-003	-5.72050E-003	2.75548E-004	3.72550E-004	-6.80379E-003	4.24561E-004
	152	152	4.99706E-002	-9.63722E-003	0.00000E+000	-4.81577E-004	-9.46633E-002	3.89500E-002	3.43313E+001	11	...........	6.49767E-002	-4.59472E-003	5.96708E-001	5.82051E-001	-2.80722E-002	-3.78865E-002	6.92358E-001	-4.32787E-002	-6.26194E-004	4.42803E-005	-5.75060E-003	-5.60935E-003	2.70538E-004	3.65121E-004	-6.67240E-003	4.17087E-004
	153	153	4.99714E-002	-9.59634E-003	0.00000E+000	-4.79543E-004	-9.42440E-002	3.91411E-002	3.46179E+001	11	...........	6.52958E-002	-4.76639E-003	5.96672E-001	5.81985E-001	-2.81000E-002	-3.79261E-002	6.92234E-001	-4.32515E-002	-6.26601E-004	4.57399E-005	-5.72587E-003	-5.58493E-003	2.69657E-004	3.63952E-004	-6.64292E-003	4.15057E-004
	154	154	4.99717E-002	-9.43819E-003	0.00000E+000	-4.71642E-004	-9.26740E-002	3.88881E-002	3.43616E+001	11	...........	6.48878E-002	-4.57167E-003	5.96642E-001	5.82004E-001	-2.80969E-002	-3.79314E-002	6.92243E-001	-4.32237E-002	-6.12423E-004	4.31482E-005	-5.63122E-003	-5.49307E-003	2.65184E-004	3.58004E-004	-6.53352E-003	4.07954E-004
	155	155	4.99702E-002	-9.41364E-003	0.00000E+000	-4.70401E-004	-9.24267E-002	3.91192E-002	3.49135E+001	11	...........	6.52829E-002	-4.53194E-003	5.96686E-001	5.82042E-001	-2.80364E-002	-3.79072E-002	6.92254E-001	-4.32447E-002	-6.14550E-004	4.26621E-005	-5.61699E-003	-5.47913E-003	2.63924E-004	3.56845E-004	-6.51663E-003	4.07090E-004
	156	156	4.99704E-002	-9.25041E-003	0.00000E+000	-4.62246E-004	-9.08000E-002	3.89952E-002	3.43953E+001	11	...........	6.50460E-002	-4.60819E-003	5.96693E-001	5.81943E-001	-2.80135E-002	-3.78969E-002	6.92278E-001	-4.33718E-002	-6.01702E-004	4.26277E-005	-5.51966E-003	-5.38321E-003	2.59136E-004	3.50562E-004	-6.40385E-003	4.01207E-004
	157	157	4.99722E-002	-9.17390E-003	0.00000E+000	-4.58440E-004	-9.00467E-002	3.90878E-002	3.41264E+001	11	...........	6.52153E-002	-4.66611E-003	5.96701E-001	5.81966E-001	-2.80261E-002	-3.78737E-002	6.92296E-001	-4.33254E-002	-5.98278E-004	4.28064E-005	-5.47407E-003	-5.33890E-003	2.57109E-004	3.47450E-004	-6.35105E-003	3.97463E-004
	158	158	4.99719E-002	-9.06142E-003	0.00000E+000	-4.52816E-004	-8.88867E-002	3.89931E-002	3.48343E+001	11	...........	6.50726E-002	-4.77083E-003	5.96639E-001	5.82068E-001	-2.80317E-002	-3.78769E-002	6.92357E-001	-4.33106E-002	-5.89650E-004	4.32305E-005	-5.40639E-003	-5.27436E-003	2.54007E-004	3.43219E-004	-6.27373E-003	3.92455E-004
	159	159	4.99712E-002	-9.03558E-003	0.00000E+000	-4.51519E-004	-8.86400E-002	3.91403E-002	3.49817E+001	11	...........	6.52943E-002	-4.85389E-003	5.96669E-001	5.82267E-001	-2.80665E-002	-3.78868E-002	6.92325E-001	-4.32314E-002	-5.89972E-004	4.38577E-005	-5.39125E-003	-5.26112E-003	2.53597E-004	3.42329E-004	-6.25555E-003	3.90620E-004
	160	160	4.99705E-002	-8.87712E-003	0.00000E+000	-4.43594E-004	-8.71140E-002	3.89890E-002	3.42613E+001	11	...........	6.50346E-002	-4.77944E-003	5.96765E-001	5.82506E-001	-2.81146E-002	-3.78839E-002	6.92245E-001	-4.32096E-002	-5.77320E-004	4.24277E-005	-5.29755E-003	-5.17097E-003	2.49576E-004	3.36300E-004	-6.14514E-003	3.83577E-004
	161	161	4.99721E-002	-8.76301E-003	0.00000E+000	-4.37906E-004	-8.59727E-002	3.91444E-002	3.42975E+001	11	...........	6.52861E-002	-4.72819E-003	5.96946E-001	5.82691E-001	-2.81143E-002	-3.78574E-002	6.92258E-001	-4.31653E-002	-5.72102E-004	4.14332E-005	-5.23104E-003	-5.10612E-003	2.46366E-004	3.31744E-004	-6.06626E-003	3.78258E-004
	162	162	4.99714E-002	-8.64745E-003	0.00000E+000	-4.32125E-004	-8.48227E-002	3.89251E-002	3.43230E+001	11	...........	6.49310E-002	-4.63208E-003	5.97020E-001	5.82755E-001	-2.81185E-002	-3.78489E-002	6.92260E-001	-4.30868E-002	-5.61488E-004	4.00557E-005	-5.16270E-003	-5.03934E-003	2.43153E-004	3.27296E-004	-5.98629E-003	3.72591E-004
	163	163	4.99705E-002	-8.64334E-003	0.00000E+000	-4.31912E-004	-8.47880E-002	3.92286E-002	3.51687E+001	11	...........	6.54511E-002	-4.74736E-003	5.97119E-001	5.82872E-001	-2.81139E-002	-3.78356E-002	6.92355E-001	-4.32204E-002	-5.65716E-004	4.10331E-005	-5.16110E-003	-5.03796E-003	2.42998E-004	3.27026E-004	-5.98426E-003	3.73569E-004
	164	164	4.99712E-002	-8.55048E-003	0.00000E+000	-4.27278E-004	-8.38620E-002	3.91179E-002	3.48296E+001	11	...........	6.52876E-002	-4.93125E-003	5.97140E-001	5.82848E-001	-2.80997E-002	-3.78349E-002	6.92411E-001	-4.32301E-002	-5.58241E-004	4.21645E-005	-5.10584E-003	-4.98363E-003	2.40266E-004	3.23506E-004	-5.92045E-003	3.69638E-004
	165	165	4.99705E-002	-8.37015E-003	0.00000E+000	-4.18261E-004	-8.20720E-002	3.91262E-002	3.38633E+001	11	...........	6.52657E-002	-4.84625E-003	5.97187E-001	5.82727E-001	-2.80837E-002	-3.78608E-002	6.92435E-001	-4.31074E-002	-5.46284E-004	4.05638E-005	-4.99855E-003	-4.87751E-003	2.35065E-004	3.16901E-004	-5.79579E-003	3.60815E-004
	166	166	4.99726E-002	-8.22690E-003	0.00000E+000	-4.11120E-004	-8.06353E-002	3.89897E-002	3.44107E+001	11	...........	6.50299E-002	-4.70722E-003	5.97281E-001	5.82746E-001	-2.80875E-002	-3.78586E-002	6.92279E-001	-4.30778E-002	-5.34994E-004	3.87258E-005	-4.91377E-003	-4.79419E-003	2.31073E-004	3.11459E-004	-5.69531E-003	3.54397E-004
	167	167	4.99725E-002	-8.30937E-003	0.00000E+000	-4.15240E-004	-8.14547E-002	3.91995E-002	3.50048E+001	11	...........	6.53842E-002	-4.71097E-003	5.97371E-001	5.82762E-001	-2.80907E-002	-3.78868E-002	6.92261E-001	-4.31654E-002	-5.43301E-004	3.91452E-005	-4.96378E-003	-4.84239E-003	2.33416E-004	3.14815E-004	-5.75225E-003	3.58677E-004
	168	168	4.99704E-002	-8.16830E-003	0.00000E+000	-4.08173E-004	-8.00527E-002	3.90691E-002	3.48196E+001	11	...........	6.51707E-002	-4.80361E-003	5.97344E-001	5.82792E-001	-2.80810E-002	-3.78756E-002	6.92324E-001	-4.31428E-002	-5.32334E-004	3.92373E-005	-4.87928E-003	-4.76042E-003	2.29374E-004	3.09379E-004	-5.65511E-003	3.52403E-004
	169	169	4.99709E-002	-8.06600E-003	0.00000E+000	-4.03065E-004	-7.90347E-002	3.91827E-002	3.42247E+001	11	...........	6.53589E-002	-4.66847E-003	5.97512E-001	5.82705E-001	-2.80936E-002	-3.78717E-002	6.92413E-001	-4.30899E-002	-5.27185E-004	3.76559E-005	-4.81953E-003	-4.70010E-003	2.26603E-004	3.05473E-004	-5.58500E-003	3.47563E-004
	170	170	4.99715E-002	-7.91259E-003	0.00000E+000	-3.95404E-004	-7.75040E-002	3.91211E-002	3.43965E+001	11	...........	6.52628E-002	-4.72042E-003	5.97546E-001	5.82633E-001	-2.80771E-002	-3.78965E-002	6.92337E-001	-4.29079E-002	-5.16398E-004	3.73507E-005	-4.72814E-003	-4.61014E-003	2.22163E-004	2.99860E-004	-5.47818E-003	3.39513E-004
	171	171	4.99714E-002	-7.85624E-003	0.00000E+000	-3.92587E-004	-7.69587E-002	3.90172E-002	3.41738E+001	11	...........	6.51082E-002	-4.65750E-003	5.97624E-001	5.82608E-001	-2.80762E-002	-3.78993E-002	6.92257E-001	-4.30075E-002	-5.11506E-004	3.65904E-005	-4.69508E-003	-4.57711E-003	2.20574E-004	2.97746E-004	-5.43854E-003	3.37877E-004
	172	172	4.99726E-002	-7.84275E-003	0.00000E+000	-3.91922E-004	-7.68260E-002	3.92047E-002	3.47230E+001	11	...........	6.53999E-002	-4.63083E-003	5.97709E-001	5.82604E-001	-2.80707E-002	-3.79014E-002	6.92209E-001	-4.29528E-002	-5.12914E-004	3.63184E-005	-4.68768E-003	-4.56921E-003	2.20151E-004	2.97251E-004	-5.42882E-003	3.36868E-004
	173	173	4.99711E-002	-7.73504E-003	0.00000E+000	-3.86529E-004	-7.57573E-002	3.90965E-002	3.45467E+001	11	...........	6.52340E-002	-4.62444E-003	5.97847E-001	5.82459E-001	-2.80918E-002	-3.79008E-002	6.92340E-001	-4.29967E-002	-5.04588E-004	3.57703E-005	-4.62437E-003	-4.50534E-003	2.17291E-004	2.93164E-004	-5.35527E-003	3.32581E-004
	174	174	4.99715E-002	-7.66379E-003	0.00000E+000	-3.82971E-004	-7.50540E-002	3.90448E-002	3.49694E+001	11	...........	6.53978E-002	-4.67653E-003	5.97636E-001	5.82329E-001	-2.80732E-002	-3.78921E-002	6.92366E-001	-4.31147E-002	-5.01195E-004	3.58399E-005	-4.58015E-003	-4.46285E-003	2.15147E-004	2.90397E-004	-5.30615E-003	3.30422E-004
	175	175	4.99715E-002	-7.56685E-003	0.00000E+000	-3.78127E-004	-7.40820E-002	3.91827E-002	3.44902E+001	11	...........	6.53574E-002	-4.51556E-003	5.97690E-001	5.82475E-001	-2.80364E-002	-3.79042E-002	6.92395E-001	-4.31351E-002	-4.94549E-004	3.41685E-005	-4.52263E-003	-4.40750E-003	2.12147E-004	2.86815E-004	-5.23925E-003	3.26397E-004
	176	176	4.99714E-002	-7.41482E-003	0.00000E+000	-3.70529E-004	-7.25647E-002	3.89249E-002	3.36410E+001	11	...........	6.49354E-002	-4.68694E-003	5.97887E-001	5.82541E-001	-2.80157E-002	-3.79178E-002	6.92388E-001	-4.31883E-002	-4.81484E-004	3.47528E-005	-4.43322E-003	-4.31943E-003	2.07731E-004	2.81153E-004	-5.13393E-003	3.20233E-004
	177	177	4.99721E-002	-7.41628E-003	0.00000E+000	-3.70607E-004	-7.25760E-002	3.92466E-002	3.45487E+001	11	...........	6.54751E-002	-4.79611E-003	5.97946E-001	5.82482E-001	-2.80090E-002	-3.79254E-002	6.92404E-001	-4.32299E-002	-4.85582E-004	3.55693E-005	-4.43454E-003	-4.31985E-003	2.07723E-004	2.81266E-004	-5.13506E-003	3.20605E-004
	178	178	4.99716E-002	-7.40754E-003	0.00000E+000	-3.70167E-004	-7.25060E-002	3.92747E-002	3.52856E+001	11	...........	6.55211E-002	-4.73306E-003	5.97662E-001	5.82467E-001	-2.80119E-002	-3.79392E-002	6.92353E-001	-4.32615E-002	-4.85350E-004	3.50603E-005	-4.42721E-003	-4.31465E-003	2.07500E-004	2.81036E-004	-5.12863E-003	3.20461E-004
	179	179	4.99714E-002	-7.30293E-003	0.00000E+000	-3.64938E-004	-7.14500E-002	3.92013E-002	3.47595E+001	11	...........	6.53822E-002	-4.70958E-003	5.97590E-001	5.82426E-001	-2.80219E-002	-3.79328E-002	6.92325E-001	-4.30418E-002	-4.77482E-004	3.43938E-005	-4.36416E-003	-4.25342E-003	2.04642E-004	2.77020E-004	-5.05600E-003	3.14331E-004
	180	180	4.99718E-002	-7.22877E-003	0.00000E+000	-3.61235E-004	-7.07187E-002	3.91520E-002	3.46675E+001	11	...........	6.53085E-002	-4.82625E-003	5.97540E-001	5.82535E-001	-2.79910E-002	-3.79329E-002	6.92410E-001	-4.31143E-002	-4.72100E-004	3.48878E-005	-4.31948E-003	-4.21101E-003	2.02340E-004	2.74208E-004	-5.00527E-003	3.11663E-004
	181	181	4.99703E-002	-7.08554E-003	0.00000E+000	-3.54067E-004	-6.92840E-002	3.90935E-002	3.46588E+001	11	...........	6.52250E-002	-4.66306E-003	5.97466E-001	5.82615E-001	-2.79793E-002	-3.78854E-002	6.92375E-001	-4.31404E-002	-4.62154E-004	3.30403E-005	-4.23337E-003	-4.12814E-003	1.98248E-004	2.68439E-004	-4.90585E-003	3.05673E-004
	182	182	4.99713E-002	-7.01735E-003	0.00000E+000	-3.50666E-004	-6.86100E-002	3.91587E-002	3.40413E+001	11	...........	6.53333E-002	-4.58153E-003	5.97415E-001	5.82653E-001	-2.79585E-002	-3.78690E-002	6.92359E-001	-4.30832E-002	-4.58467E-004	3.21502E-005	-4.19227E-003	-4.08868E-003	1.96194E-004	2.65740E-004	-4.85852E-003	3.02330E-004
	183	183	4.99735E-002	-7.02831E-003	0.00000E+000	-3.51230E-004	-6.87180E-002	3.92650E-002	3.50247E+001	11	...........	6.55089E-002	-4.59264E-003	5.97576E-001	5.82705E-001	-2.80197E-002	-3.78853E-002	6.92290E-001	-4.32118E-002	-4.60417E-004	3.22785E-005	-4.19995E-003	-4.09543E-003	1.96931E-004	2.66270E-004	-4.86563E-003	3.03706E-004
	184	184	4.99712E-002	-6.92667E-003	0.00000E+000	-3.46134E-004	-6.76967E-002	3.91217E-002	3.47757E+001	11	...........	6.52478E-002	-4.68375E-003	5.97598E-001	5.82686E-001	-2.80664E-002	-3.78764E-002	6.92385E-001	-4.32629E-002	-4.51949E-004	3.24428E-005	-4.13936E-003	-4.03607E-003	1.94406E-004	2.62357E-004	-4.79592E-003	2.99668E-004
	185	185	4.99715E-002	-6.87083E-003	0.00000E+000	-3.43346E-004	-6.71320E-002	3.92587E-002	3.51433E+001	11	...........	6.54801E-002	-4.65069E-003	5.97334E-001	5.82728E-001	-2.80897E-002	-3.78946E-002	6.92384E-001	-4.31287E-002	-4.49903E-004	3.19541E-005	-4.10418E-003	-4.00383E-003	1.93000E-004	2.60367E-004	-4.75726E-003	2.96330E-004
	186	186	4.99712E-002	-6.78961E-003	0.00000E+000	-3.39285E-004	-6.63440E-002	3.92328E-002	3.42698E+001	11	...........	6.54256E-002	-4.56653E-003	5.97332E-001	5.82835E-001	-2.80729E-002	-3.78890E-002	6.92555E-001	-4.31103E-002	-4.44214E-004	3.10049E-005	-4.05565E-003	-3.95722E-003	1.90604E-004	2.57252E-004	-4.70218E-003	2.92702E-004
	187	187	4.99715E-002	-6.68046E-003	0.00000E+000	-3.33832E-004	-6.52353E-002	3.91109E-002	3.46714E+001	11	...........	6.52428E-002	-4.36903E-003	5.97503E-001	5.82792E-001	-2.80808E-002	-3.78794E-002	6.92461E-001	-4.31481E-002	-4.35851E-004	2.91871E-005	-3.99159E-003	-3.89332E-003	1.87593E-004	2.53052E-004	-4.62595E-003	2.88249E-004
	188	188	4.99726E-002	-6.71032E-003	0.00000E+000	-3.35332E-004	-6.55447E-002	3.92384E-002	3.54354E+001	11	...........	6.54579E-002	-4.58597E-003	5.97538E-001	5.82772E-001	-2.80844E-002	-3.78997E-002	6.92402E-001	-4.31131E-002	-4.39244E-004	3.07734E-005	-4.00968E-003	-3.91059E-003	1.88456E-004	2.54319E-004	-4.64624E-003	2.89303E-004
	189	189	4.99696E-002	-6.63802E-003	0.00000E+000	-3.31700E-004	-6.47867E-002	3.92582E-002	3.41794E+001	11	...........	6.54896E-002	-4.65153E-003	5.97516E-001	5.82748E-001	-2.81157E-002	-3.79125E-002	6.92395E-001	-4.31097E-002	-4.34721E-004	3.08770E-005	-3.96633E-003	-3.86830E-003	1.86633E-004	2.51664E-004	-4.59613E-003	2.86163E-004
	190	190	4.99724E-002	-6.48889E-003	0.00000E+000	-3.24265E-004	-6.33200E-002	3.91937E-002	3.45425E+001	11	...........	6.53814E-002	-4.67347E-003	5.97681E-001	5.82643E-001	-2.81037E-002	-3.79410E-002	6.92320E-001	-4.30557E-002	-4.24252E-004	3.03256E-005	-3.87828E-003	-3.78070E-003	1.82362E-004	2.46195E-004	-4.49239E-003	2.79383E-004
	191	191	4.99722E-002	-6.41296E-003	0.00000E+000	-3.20470E-004	-6.26100E-002	3.91742E-002	3.48773E+001	11	...........	6.53468E-002	-4.62833E-003	5.97756E-001	5.82509E-001	-2.81221E-002	-3.79439E-002	6.92323E-001	-4.31664E-002	-4.19067E-004	2.96813E-005	-3.83339E-003	-3.73561E-003	1.80346E-004	2.43333E-004	-4.43984E-003	2.76824E-004
	192	192	4.99718E-002	-6.36966E-003	0.00000E+000	-3.18303E-004	-6.21773E-002	3.90897E-002	3.40908E+001	11	...........	6.52125E-002	-4.55792E-003	5.97825E-001	5.82528E-001	-2.81107E-002	-3.79019E-002	6.92436E-001	-4.32210E-002	-4.15381E-004	2.90324E-005	-3.80794E-003	-3.71050E-003	1.79055E-004	2.41422E-004	-4.41058E-003	2.75303E-004
	193	193	4.99704E-002	-6.35971E-003	0.00000E+000	-3.17797E-004	-6.20707E-002	3.93858E-002	3.43147E+001	11	...........	6.56980E-002	-4.57333E-003	5.97909E-001	5.82381E-001	-2.81004E-002	-3.79008E-002	6.92451E-001	-4.31939E-002	-4.17820E-004	2.90851E-005	-3.80253E-003	-3.70378E-003	1.78710E-004	2.41038E-004	-4.40379E-003	2.74700E-004
	194	194	4.99726E-002	-6.24611E-003	0.00000E+000	-3.12134E-004	-6.09453E-002	3.92323E-002	3.51188E+001	11	...........	6.54469E-002	-4.58667E-003	5.97978E-001	5.82377E-001	-2.80996E-002	-3.78764E-002	6.92388E-001	-4.31797E-002	-4.08789E-004	2.86488E-005	-3.73504E-003	-3.63759E-003	1.75513E-004	2.36580E-004	-4.32473E-003	2.69705E-004
	195	195	4.99710E-002	-6.17335E-003	0.00000E+000	-3.08488E-004	-6.02120E-002	3.92360E-002	3.36163E+001	11	...........	6.54532E-002	-4.69042E-003	5.97912E-001	5.82403E-001	-2.80897E-002	-3.78943E-002	6.92421E-001	-4.32162E-002	-4.04065E-004	2.89556E-005	-3.69112E-003	-3.59538E-003	1.73408E-004	2.33935E-004	-4.27456E-003	2.66789E-004
	196	196	4.99729E-002	-6.09270E-003	0.00000E+000	-3.04470E-004	-5.94213E-002	3.92036E-002	3.47114E+001	11	...........	6.54185E-002	-4.63861E-003	5.98000E-001	5.82216E-001	-2.80825E-002	-3.79089E-002	6.92361E-001	-4.31849E-002	-3.98575E-004	2.82617E-005	-3.64344E-003	-3.54727E-003	1.71098E-004	2.30968E-004	-4.21835E-003	2.63112E-004
	197	197	4.99723E-002	-6.11768E-003	0.00000E+000	-3.05714E-004	-5.96733E-002	3.93082E-002	3.50960E+001	11	...........	6.55767E-002	-4.73833E-003	5.98062E-001	5.82237E-001	-2.80856E-002	-3.79239E-002	6.92354E-001	-4.31001E-002	-4.01177E-004	2.89876E-005	-3.65875E-003	-3.56194E-003	1.71818E-004	2.32006E-004	-4.23560E-003	2.63673E-004
	198	198	4.99712E-002	-6.02729E-003	0.00000E+000	-3.01191E-004	-5.87707E-002	3.92133E-002	3.44835E+001	11	...........	6.54074E-002	-4.66028E-003	5.97958E-001	5.82323E-001	-2.80712E-002	-3.79208E-002	6.92357E-001	-4.30393E-002	-3.94229E-004	2.80889E-005	-3.60407E-003	-3.50983E-003	1.69194E-004	2.28560E-004	-4.17304E-003	2.59411E-004
	199	199	4.99717E-002	-5.97557E-003	0.00000E+000	-2.98610E-004	-5.82573E-002	3.93591E-002	3.49593E+001	11	...........	6.56493E-002	-4.69653E-003	5.97969E-001	5.82127E-001	-2.80679E-002	-3.79269E-002	6.92226E-001	-4.30743E-002	-3.92292E-004	2.80644E-005	-3.57321E-003	-3.47854E-003	1.67722E-004	2.26635E-004	-4.13645E-003	2.57393E-004
	200	200	4.99723E-002	-5.88624E-003	0.00000E+000	-2.94149E-004	-5.73607E-002	3.91697E-002	3.37281E+001	11	...........	6.53339E-002	-4.65014E-003	5.97727E-001	5.81902E-001	-2.80606E-002	-3.79394E-002	6.92223E-001	-4.31511E-002	-3.84571E-004	2.73718E-005	-3.51836E-003	-3.42522E-003	1.65171E-004	2.23321E-004	-4.07459E-003	2.53998E-004
	201	201	4.99711E-002	-5.84268E-003	0.00000E+000	-2.91965E-004	-5.69233E-002	3.92829E-002	3.42967E+001	11	...........	6.55187E-002	-4.62403E-003	5.97544E-001	5.81882E-001	-2.80651E-002	-3.79497E-002	6.92245E-001	-4.31379E-002	-3.82805E-004	2.70167E-005	-3.49126E-003	-3.39975E-003	1.63976E-004	2.21728E-004	-4.04456E-003	2.52041E-004
	202	202	4.99725E-002	-5.84042E-003	0.00000E+000	-2.91860E-004	-5.69013E-002	3.93497E-002	3.53890E+001	11	...........	6.56331E-002	-4.65069E-003	5.97589E-001	5.81803E-001	-2.80486E-002	-3.79394E-002	6.92271E-001	-4.29925E-002	-3.83324E-004	2.71620E-005	-3.49017E-003	-3.39797E-003	1.63816E-004	2.21582E-004	-4.04315E-003	2.51094E-004
	203	203	4.99700E-002	-5.76936E-003	0.00000E+000	-2.88295E-004	-5.62020E-002	3.93064E-002	3.43003E+001	11	...........	6.55617E-002	-4.61792E-003	5.97595E-001	5.81839E-001	-2.80567E-002	-3.79436E-002	6.92174E-001	-4.29071E-002	-3.78249E-004	2.66424E-005	-3.44774E-003	-3.35684E-003	1.61869E-004	2.18910E-004	-3.99340E-003	2.47546E-004
	204	204	4.99731E-002	-5.68215E-003	0.00000E+000	-2.83955E-004	-5.53247E-002	3.92775E-002	3.50987E+001	11	...........	6.55249E-002	-4.62444E-003	5.97579E-001	5.82087E-001	-2.80439E-002	-3.79324E-002	6.92144E-001	-4.29751E-002	-3.72322E-004	2.62768E-005	-3.39553E-003	-3.30750E-003	1.59350E-004	2.15537E-004	-3.93286E-003	2.44191E-004
	205	205	4.99722E-002	-5.68301E-003	0.00000E+000	-2.83993E-004	-5.53400E-002	3.93491E-002	3.54125E+001	11	...........	6.56429E-002	-4.69361E-003	5.97784E-001	5.82114E-001	-2.80136E-002	-3.79426E-002	6.92119E-001	-4.31019E-002	-3.73049E-004	2.66738E-005	-3.39721E-003	-3.30816E-003	1.59202E-004	2.15628E-004	-3.93332E-003	2.44949E-004
	206	206	4.99714E-002	-5.61246E-003	0.00000E+000	-2.80462E-004	-5.46367E-002	3.92224E-002	3.47282E+001	11	...........	6.54318E-002	-4.61611E-003	5.97737E-001	5.82134E-001	-2.80236E-002	-3.79562E-002	6.92138E-001	-4.31386E-002	-3.67234E-004	2.59078E-005	-3.35478E-003	-3.26720E-003	1.57281E-004	2.13028E-004	-3.88460E-003	2.42114E-004
	207	207	4.99720E-002	-5.56582E-003	0.00000E+000	-2.78135E-004	-5.41560E-002	3.93615E-002	3.43245E+001	11	...........	6.56697E-002	-4.63083E-003	5.97691E-001	5.81987E-001	-2.80261E-002	-3.79336E-002	6.92260E-001	-4.30376E-002	-3.65506E-004	2.57744E-005	-3.32664E-003	-3.23924E-003	1.55988E-004	2.11132E-004	-3.85299E-003	2.39540E-004
	208	208	4.99725E-002	-5.48816E-003	0.00000E+000	-2.74257E-004	-5.33987E-002	3.92249E-002	3.52206E+001	11	...........	6.54319E-002	-4.68444E-003	5.97657E-001	5.81996E-001	-2.80318E-002	-3.79153E-002	6.92292E-001	-4.28940E-002	-3.59101E-004	2.57090E-005	-3.28004E-003	-3.19409E-003	1.53843E-004	2.08085E-004	-3.79941E-003	2.35409E-004
	209	209	4.99717E-002	-5.48476E-003	0.00000E+000	-2.74082E-004	-5.33713E-002	3.93754E-002	3.50880E+001	11	...........	6.56557E-002	-4.70181E-003	5.97655E-001	5.81981E-001	-2.80094E-002	-3.79233E-002	6.92248E-001	-4.29061E-002	-3.60106E-004	2.57883E-005	-3.27799E-003	-3.19202E-003	1.53625E-004	2.08000E-004	-3.79681E-003	2.35330E-004
	210	210	4.99718E-002	-5.39787E-003	0.00000E+000	-2.69741E-004	-5.24973E-002	3.92444E-002	3.49201E+001	11	...........	6.54556E-002	-4.66389E-003	5.97420E-001	5.81997E-001	-2.79535E-002	-3.79140E-002	6.92228E-001	-4.30046E-002	-3.53321E-004	2.51751E-005	-3.22480E-003	-3.14154E-003	1.50889E-004	2.04655E-004	-3.73656E-003	2.32133E-004
	211	211	4.99716E-002	-5.37533E-003	0.00000E+000	-2.68614E-004	-5.22613E-002	3.94070E-002	3.51757E+001	11	...........	6.57328E-002	-4.54569E-003	5.97495E-001	5.82053E-001	-2.79783E-002	-3.79435E-002	6.92257E-001	-4.31632E-002	-3.53336E-004	2.44346E-005	-3.21174E-003	-3.12873E-003	1.50393E-004	2.03959E-004	-3.72111E-003	2.32017E-004
	212	212	4.99720E-002	-5.32738E-003	0.00000E+000	-2.66220E-004	-5.18020E-002	3.92912E-002	3.47574E+001	11	...........	6.55369E-002	-4.48028E-003	5.97741E-001	5.81924E-001	-2.79990E-002	-3.79325E-002	6.92363E-001	-4.30993E-002	-3.49140E-004	2.38681E-005	-3.18439E-003	-3.10013E-003	1.49161E-004	2.02081E-004	-3.68848E-003	2.29606E-004
	213	213	4.99719E-002	-5.21069E-003	0.00000E+000	-2.60388E-004	-5.06453E-002	3.92640E-002	3.40774E+001	11	...........	6.54964E-002	-4.61750E-003	5.97751E-001	5.81735E-001	-2.80161E-002	-3.79597E-002	6.92350E-001	-4.30917E-002	-3.41282E-004	2.40604E-005	-3.11470E-003	-3.03124E-003	1.45983E-004	1.97796E-004	-3.60762E-003	2.24537E-004
	214	214	4.99722E-002	-5.19027E-003	0.00000E+000	-2.59370E-004	-5.04427E-002	3.92713E-002	3.47562E+001	11	...........	6.55115E-002	-4.57847E-003	5.97783E-001	5.81775E-001	-2.80206E-002	-3.79564E-002	6.92209E-001	-4.30137E-002	-3.40023E-004	2.37635E-005	-3.10266E-003	-3.01957E-003	1.45434E-004	1.97004E-004	-3.59275E-003	2.23253E-004
	215	215	4.99719E-002	-5.19922E-003	0.00000E+000	-2.59815E-004	-5.05300E-002	3.94219E-002	3.55956E+001	11	...........	6.57662E-002	-4.63639E-003	5.98031E-001	5.81922E-001	-2.80028E-002	-3.79192E-002	6.92292E-001	-4.30460E-002	-3.41933E-004	2.41056E-005	-3.10929E-003	-3.02554E-003	1.45593E-004	1.97150E-004	-3.59938E-003	2.23805E-004
	216	216	4.99709E-002	-5.14170E-003	0.00000E+000	-2.56936E-004	-4.99733E-002	3.93678E-002	3.46843E+001	11	...........	6.56578E-002	-4.62000E-003	5.98028E-001	5.81939E-001	-2.80008E-002	-3.79271E-002	6.92425E-001	-4.30217E-002	-3.37593E-004	2.37547E-005	-3.07488E-003	-2.99216E-003	1.43972E-004	1.95010E-004	-3.56024E-003	2.21205E-004
	217	216.075	4.99664E-002	-5.03385E-003	0.00000E+000	-2.51523E-004	-4.88933E-002	3.92767E-002	3.51642E+001	11	...........	6.55296E-002	-4.38518E-003	5.98031E-001	5.81920E-001	-2.78630E-002	-3.79537E-002	6.92420E-001	-4.30167E-002	-3.29866E-004	2.20743E-005	-3.01040E-003	-2.92930E-003	1.40258E-004	1.91053E-004	-3.48554E-003	2.16539E-004
STARTTIMEOFFSET	QUANT	721500.1	Start Time Offset (s)
