EXPLAIN
TAG	PWR800_DISCHARGE
TITLE	LABEL	PWR Discharge	Test Identifier
DATE	LABEL	10/11/2022	Date
TIME	LABEL	18:22:14	Time
NOTES	NOTES	1	Notes...
	
PSTAT	PSTAT	REF3000-21114	Potentiostat
CAPACITY	QUANT	5.30000E-002	Capacity (A-hr)
CELLTYPE	SELECTOR	1	Cell Type
WORKINGCONNECTION	SELECTOR	0	Working Connection
MAXDISCHARGETIME	VARIABLEANDUNITS	7.20000E+003	s	2.00000E+000	hour(s)	Max Discharge Time
DISCHARGEMODE	MULTIPARAM	0	1.00000E-001	Discharge Mode	Constant Current	Amp(s)
VOLTAGEFINISH	TWOPARAM	T	5.00000E-003	7.20000E+003	Voltage Finish	I (A) <	Max Time(s)
SAMPLETIME	QUANT	1.00000E+000	Sample Period (s)
DISCHARGESTOPAT1	MULTIPARAM	1	5.00000E-002	Stop At 1	|Voltage| < Limit	V
DISCHARGESTOPAT2	MULTIPARAM	0	0.00000E+000	Stop At 2	None	N/A
AESELECTOR	AESELECTOR	0x1	T	Set Limits	AE Channels
AESBHCSELECTOR	TOGGLE	F	Save Both Half Cells
IRCOMP	TOGGLE	F	IR Measure
EOC	QUANT	0.5747913	Open Circuit (V)
SEQUENCER	TOGGLE	TRUE	Run as Sequence
PSTATMODEL	IQUANT	5	Pstat Model
PSTATSECTION	LABEL	REF3000-21114	Pstat Section
PSTATSERIALNO	LABEL	21114	Pstat Serial Number
CTRLMODE	IQUANT	0	Control Mode
ELECTROMETER	IQUANT	0	RE=0 or CS=1
IESTAB	IQUANT	0	I/E Stability
CASPEED	IQUANT	4	Control Amp Speed
CONVENTION	IQUANT	1	Current Convention
ICHRANGE	IQUANT	2	Ich Range
ICHRANGEMODE	TOGGLE	T	Ich Auto Range
ICHOFFSETENABLE	TOGGLE	F	Ich Offset Enable
ICHOFFSET	QUANT	0	Ich Offset (V)
ICHFILTER	IQUANT	1	Ich Filter
VCHRANGE	IQUANT	3	Vch Range
VCHRANGEMODE	TOGGLE	T	Vch Auto Range
VCHOFFSETENABLE	TOGGLE	F	Vch Offset Enable
VCHOFFSET	QUANT	0	Vch Offset (V)
VCHFILTER	IQUANT	1	Vch Filter
ACHRANGE	IQUANT	2	Ach Range
ACHOFFSETENABLE	TOGGLE	F	Ach Offset Enable
ACHOFFSET	QUANT	0	Ach Offset (V)
ACHFILTER	IQUANT	1	Ach Filter
IERANGELOWERLIMIT	IQUANT	9	I/E Range Lower Limit
IERANGEMODE	TOGGLE	F	I/E AutoRange
IERANGE	IQUANT	9	I/E Range
POSFEEDENABLE	TOGGLE	F	Positive Feedback IR Comp
POSFEEDRESISTANCE	QUANT	0	Positive Feedback Resistance (ohm)
ACHSELECT	IQUANT	1	Ach Select
SENSECABLEID	IQUANT	13	Sense Cable ID
PWRCABLEID	IQUANT	13	Power Cable ID
DCCALDATE	LABEL		DC Calibration Date
ACCALDATE	LABEL		AC Calibration Date
THERMOSELECT	IQUANT	1	Thermo Select
FRAMEWORKVERSION	LABEL	7.8.6	Framework Version
INSTRUMENTVERSION	LABEL	4.50	Instrument Version
COMPLIANCEVOLTAGE	IQUANT	0	Compliance Voltage
CURVE	TABLE	216
	Pt	T	Vf	Im	Vu	Pwr	Sig	Ach	Temp	IERange	Over	Vf1	Vf2	Vf3	Vf4	Vf5	Vf6	Vf7	Vf8	Pwr1	Pwr2	Pwr3	Pwr4	Pwr5	Pwr6	Pwr7	Pwr8
	#	s	V	A	V	W	V	V	deg C	#	bits	V	V	V	V	V	V	V	V	W	W	W	W	W	W	W	W
	0	1	3.62080E-001	-1.00106E-001	0.00000E+000	-3.62462E-002	-9.94000E-001	3.21972E-002	2.84736E+001	11	...........	5.35078E-002	-3.39236E-003	5.48357E-001	6.95140E-001	-3.04640E-002	-3.93932E-002	6.15550E-001	-4.27336E-002	-5.35643E-003	3.39595E-004	-5.48937E-002	-6.95875E-002	3.04962E-003	3.94348E-003	-6.16201E-002	4.27788E-003
	1	2	2.70423E-001	-1.00106E-001	0.00000E+000	-2.70709E-002	-9.94000E-001	3.22137E-002	2.79058E+001	11	...........	5.35343E-002	-3.48319E-003	5.48290E-001	6.95087E-001	-3.04915E-002	-3.93685E-002	6.15632E-001	-4.26985E-002	-5.35910E-003	3.48688E-004	-5.48870E-002	-6.95823E-002	3.05238E-003	3.94102E-003	-6.16284E-002	4.27437E-003
	2	3	2.01071E-001	-1.00107E-001	0.00000E+000	-2.01285E-002	-9.94000E-001	3.21447E-002	2.71271E+001	11	...........	5.34206E-002	-3.39806E-003	5.48269E-001	6.95070E-001	-3.05375E-002	-3.93504E-002	6.15637E-001	-4.28390E-002	-5.34775E-003	3.40168E-004	-5.48853E-002	-6.95810E-002	3.05700E-003	3.93923E-003	-6.16292E-002	4.28847E-003
	3	4	1.42791E-001	-1.00106E-001	0.00000E+000	-1.42942E-002	-9.94000E-001	3.21875E-002	2.72052E+001	11	...........	5.34660E-002	-3.40750E-003	5.48341E-001	6.94995E-001	-3.05322E-002	-3.93424E-002	6.15821E-001	-4.28258E-002	-5.35227E-003	3.41112E-004	-5.48924E-002	-6.95733E-002	3.05646E-003	3.93841E-003	-6.16475E-002	4.28713E-003
	4	5	9.37872E-002	-1.00106E-001	0.00000E+000	-9.38870E-003	-9.94000E-001	3.21625E-002	2.66598E+001	11	...........	5.34054E-002	-3.30347E-003	5.48190E-001	6.94836E-001	-3.05992E-002	-3.93911E-002	6.15833E-001	-4.27947E-002	-5.34622E-003	3.30699E-004	-5.48773E-002	-6.95575E-002	3.06317E-003	3.94330E-003	-6.16488E-002	4.28403E-003
	5	5.555	6.13847E-002	-1.00106E-001	0.00000E+000	-6.14499E-003	-9.94000E-001	3.21712E-002	2.62492E+001	11	...........	5.35068E-002	-3.34509E-003	5.48154E-001	6.94733E-001	-3.05470E-002	-3.93316E-002	6.15784E-001	-4.27330E-002	-5.35636E-003	3.34865E-004	-5.48736E-002	-6.95470E-002	3.05795E-003	3.93733E-003	-6.16438E-002	4.27784E-003
	6	6	4.96423E-002	-9.44788E-002	0.00000E+000	-4.69014E-003	-9.38046E-001	3.22000E-002	2.66747E+001	11	...........	5.35849E-002	-3.33208E-003	5.48177E-001	6.94836E-001	-3.05927E-002	-3.93277E-002	6.15777E-001	-4.27962E-002	-5.06264E-003	3.14811E-004	-5.17911E-002	-6.56473E-002	2.89036E-003	3.71563E-003	-5.81779E-002	4.04333E-003
	7	7	4.97780E-002	-8.09518E-002	0.00000E+000	-4.02962E-003	-8.03555E-001	3.23676E-002	2.69332E+001	11	...........	5.37560E-002	-3.32708E-003	5.48211E-001	6.94825E-001	-3.05876E-002	-3.93671E-002	6.15547E-001	-4.28242E-002	-4.35164E-003	2.69333E-004	-4.43787E-002	-5.62474E-002	2.47612E-003	3.18684E-003	-4.98297E-002	3.46669E-003
	8	8	4.98748E-002	-6.98841E-002	0.00000E+000	-3.48546E-003	-6.93538E-001	3.24174E-002	2.73208E+001	11	...........	5.38556E-002	-3.30931E-003	5.48278E-001	6.94745E-001	-3.05912E-002	-3.93540E-002	6.15629E-001	-4.28815E-002	-3.76365E-003	2.31268E-004	-3.83160E-002	-4.85516E-002	2.13784E-003	2.75022E-003	-4.30227E-002	2.99674E-003
	9	9	4.98969E-002	-6.47447E-002	0.00000E+000	-3.23056E-003	-6.42433E-001	3.25171E-002	2.76139E+001	11	...........	5.40490E-002	-3.35389E-003	5.48367E-001	6.94902E-001	-3.05599E-002	-3.93514E-002	6.15624E-001	-4.29260E-002	-3.49939E-003	2.17147E-004	-3.55039E-002	-4.49913E-002	1.97859E-003	2.54779E-003	-3.98584E-002	2.77923E-003
	10	10	4.99159E-002	-6.10959E-002	0.00000E+000	-3.04966E-003	-6.06169E-001	3.25889E-002	2.78979E+001	11	...........	5.41929E-002	-3.36222E-003	5.48414E-001	6.94940E-001	-3.05682E-002	-3.93529E-002	6.15652E-001	-4.29089E-002	-3.31097E-003	2.05418E-004	-3.35058E-002	-4.24580E-002	1.86759E-003	2.40430E-003	-3.76139E-002	2.62156E-003
	11	11	4.99291E-002	-5.79858E-002	0.00000E+000	-2.89518E-003	-5.75242E-001	3.26818E-002	2.78825E+001	11	...........	5.42662E-002	-3.44972E-003	5.48235E-001	6.94890E-001	-3.05617E-002	-3.93662E-002	6.15586E-001	-4.29464E-002	-3.14667E-003	2.00035E-004	-3.17898E-002	-4.02938E-002	1.77214E-003	2.28268E-003	-3.56953E-002	2.49028E-003
	12	12	4.99600E-002	-5.54353E-002	0.00000E+000	-2.76954E-003	-5.49879E-001	3.26629E-002	2.77048E+001	11	...........	5.42715E-002	-3.46528E-003	5.47986E-001	6.94869E-001	-3.05740E-002	-3.93733E-002	6.15505E-001	-4.30162E-002	-3.00856E-003	1.92099E-004	-3.03777E-002	-3.85203E-002	1.69488E-003	2.18267E-003	-3.41207E-002	2.38462E-003
	13	13	4.99188E-002	-5.41074E-002	0.00000E+000	-2.70098E-003	-5.36676E-001	3.26732E-002	2.79758E+001	11	...........	5.42657E-002	-3.40569E-003	5.48017E-001	6.94758E-001	-3.06251E-002	-3.93615E-002	6.15482E-001	-4.29449E-002	-2.93618E-003	1.84273E-004	-2.96518E-002	-3.75915E-002	1.65705E-003	2.12975E-003	-3.33022E-002	2.32363E-003
	14	14	4.99613E-002	-5.30663E-002	0.00000E+000	-2.65126E-003	-5.26321E-001	3.28807E-002	2.80544E+001	11	...........	5.46099E-002	-3.61139E-003	5.48106E-001	6.94935E-001	-3.06190E-002	-3.93468E-002	6.15783E-001	-4.29862E-002	-2.89794E-003	1.91643E-004	-2.90859E-002	-3.68776E-002	1.62484E-003	2.08799E-003	-3.26773E-002	2.28112E-003
	15	15	4.99585E-002	-5.22102E-002	0.00000E+000	-2.60834E-003	-5.17810E-001	3.28580E-002	2.80317E+001	11	...........	5.45868E-002	-3.49806E-003	5.47980E-001	6.94971E-001	-3.06358E-002	-3.93550E-002	6.15884E-001	-4.29710E-002	-2.84999E-003	1.82634E-004	-2.86101E-002	-3.62846E-002	1.59950E-003	2.05473E-003	-3.21554E-002	2.24352E-003
	16	16	4.99431E-002	-5.17642E-002	0.00000E+000	-2.58527E-003	-5.13390E-001	3.28701E-002	2.84653E+001	11	...........	5.45896E-002	-3.51153E-003	5.47903E-001	6.94932E-001	-3.06082E-002	-3.93672E-002	6.15841E-001	-4.29544E-002	-2.82579E-003	1.81771E-004	-2.83618E-002	-3.59726E-002	1.58441E-003	2.03781E-003	-3.18785E-002	2.22350E-003
	17	17	4.99299E-002	-4.96970E-002	0.00000E+000	-2.48136E-003	-4.92848E-001	3.29057E-002	2.81274E+001	11	...........	5.46487E-002	-3.47611E-003	5.47852E-001	6.94754E-001	-3.06019E-002	-3.93335E-002	6.15693E-001	-4.29061E-002	-2.71588E-003	1.72752E-004	-2.72266E-002	-3.45271E-002	1.52082E-003	1.95475E-003	-3.05981E-002	2.13230E-003
	18	18	4.99847E-002	-4.93613E-002	0.00000E+000	-2.46731E-003	-4.89514E-001	3.30429E-002	2.82923E+001	11	...........	5.48586E-002	-3.46042E-003	5.47973E-001	6.94622E-001	-3.05853E-002	-3.93512E-002	6.15603E-001	-4.28461E-002	-2.70789E-003	1.70811E-004	-2.70487E-002	-3.42875E-002	1.50973E-003	1.94243E-003	-3.03870E-002	2.11494E-003
	19	19	4.99431E-002	-4.90204E-002	0.00000E+000	-2.44823E-003	-4.86121E-001	3.29975E-002	2.88667E+001	11	...........	5.48275E-002	-3.42819E-003	5.48058E-001	6.94591E-001	-3.05653E-002	-3.93454E-002	6.15704E-001	-4.28689E-002	-2.68766E-003	1.68051E-004	-2.68660E-002	-3.40491E-002	1.49832E-003	1.92873E-003	-3.01821E-002	2.10145E-003
	20	20	4.99322E-002	-4.81381E-002	0.00000E+000	-2.40364E-003	-4.77340E-001	3.29623E-002	2.85767E+001	11	...........	5.48854E-002	-3.41222E-003	5.48277E-001	6.94659E-001	-3.05926E-002	-3.93836E-002	6.15745E-001	-4.28650E-002	-2.64208E-003	1.64258E-004	-2.63930E-002	-3.34395E-002	1.47267E-003	1.89585E-003	-2.96408E-002	2.06344E-003
	21	21	4.99862E-002	-4.72815E-002	0.00000E+000	-2.36342E-003	-4.68821E-001	3.29766E-002	2.84665E+001	11	...........	5.50600E-002	-3.42819E-003	5.48233E-001	6.94514E-001	-3.05886E-002	-3.93679E-002	6.15755E-001	-4.28332E-002	-2.60332E-003	1.62090E-004	-2.59213E-002	-3.28376E-002	1.44627E-003	1.86137E-003	-2.91138E-002	2.02522E-003
	22	22	4.99432E-002	-4.66175E-002	0.00000E+000	-2.32822E-003	-4.62221E-001	3.29073E-002	2.87181E+001	11	...........	5.49231E-002	-3.38500E-003	5.48348E-001	6.94507E-001	-3.05599E-002	-3.93610E-002	6.15590E-001	-4.27708E-002	-2.56037E-003	1.57800E-004	-2.55626E-002	-3.23762E-002	1.42462E-003	1.83491E-003	-2.86973E-002	1.99387E-003
	23	23	4.99437E-002	-4.59669E-002	0.00000E+000	-2.29576E-003	-4.55748E-001	3.29628E-002	2.86528E+001	11	...........	5.50406E-002	-3.37000E-003	5.48239E-001	6.94331E-001	-3.05414E-002	-3.93440E-002	6.15473E-001	-4.28087E-002	-2.53004E-003	1.54908E-004	-2.52008E-002	-3.19163E-002	1.40389E-003	1.80852E-003	-2.82914E-002	1.96779E-003
	24	24	4.99691E-002	-4.51447E-002	0.00000E+000	-2.25584E-003	-4.47567E-001	3.30997E-002	2.87018E+001	11	...........	5.52462E-002	-3.36861E-003	5.48198E-001	6.94264E-001	-3.05233E-002	-3.93472E-002	6.15565E-001	-4.28085E-002	-2.49408E-003	1.52075E-004	-2.47483E-002	-3.13424E-002	1.37797E-003	1.77632E-003	-2.77895E-002	1.93258E-003
	25	25	4.99466E-002	-4.45213E-002	0.00000E+000	-2.22369E-003	-4.41369E-001	3.29189E-002	2.87580E+001	11	...........	5.49721E-002	-3.44306E-003	5.48154E-001	6.94305E-001	-3.04846E-002	-3.93753E-002	6.15462E-001	-4.28450E-002	-2.44743E-003	1.53289E-004	-2.44045E-002	-3.09114E-002	1.35721E-003	1.75304E-003	-2.74012E-002	1.90752E-003
	26	26	4.99511E-002	-4.37577E-002	0.00000E+000	-2.18575E-003	-4.33784E-001	3.30370E-002	2.85163E+001	11	...........	5.51379E-002	-3.37431E-003	5.48231E-001	6.94235E-001	-3.04779E-002	-3.93979E-002	6.15620E-001	-4.29293E-002	-2.41271E-003	1.47652E-004	-2.39894E-002	-3.03781E-002	1.33364E-003	1.72396E-003	-2.69381E-002	1.87849E-003
	27	27	4.99584E-002	-4.33395E-002	0.00000E+000	-2.16517E-003	-4.29623E-001	3.31353E-002	2.86261E+001	11	...........	5.52835E-002	-3.36972E-003	5.47994E-001	6.94176E-001	-3.04769E-002	-3.93692E-002	6.15652E-001	-4.29399E-002	-2.39596E-003	1.46042E-004	-2.37498E-002	-3.00852E-002	1.32086E-003	1.70624E-003	-2.66820E-002	1.86099E-003
	28	28	4.99689E-002	-4.27172E-002	0.00000E+000	-2.13453E-003	-4.23434E-001	3.31250E-002	2.89424E+001	11	...........	5.52629E-002	-3.37403E-003	5.47916E-001	6.94287E-001	-3.04771E-002	-3.93390E-002	6.15755E-001	-4.28990E-002	-2.36068E-003	1.44129E-004	-2.34055E-002	-2.96580E-002	1.30190E-003	1.68045E-003	-2.63033E-002	1.83253E-003
	29	29	4.99133E-002	-4.20704E-002	0.00000E+000	-2.09987E-003	-4.17005E-001	3.31367E-002	2.87823E+001	11	...........	5.52839E-002	-3.41056E-003	5.48069E-001	6.94368E-001	-3.04269E-002	-3.92965E-002	6.15582E-001	-4.28810E-002	-2.32581E-003	1.43483E-004	-2.30575E-002	-2.92123E-002	1.28007E-003	1.65322E-003	-2.58978E-002	1.80402E-003
	30	30	4.99661E-002	-4.09063E-002	0.00000E+000	-2.04393E-003	-4.05443E-001	3.31434E-002	2.84712E+001	11	...........	5.53350E-002	-3.35653E-003	5.47908E-001	6.94228E-001	-3.03897E-002	-3.93065E-002	6.15605E-001	-4.29099E-002	-2.26355E-003	1.37303E-004	-2.24129E-002	-2.83983E-002	1.24313E-003	1.60788E-003	-2.51821E-002	1.75528E-003
	31	31	4.99686E-002	-4.11478E-002	0.00000E+000	-2.05610E-003	-4.07844E-001	3.31869E-002	2.93368E+001	11	...........	5.53768E-002	-3.30097E-003	5.47869E-001	6.94145E-001	-3.04381E-002	-3.93493E-002	6.15562E-001	-4.29090E-002	-2.27863E-003	1.35828E-004	-2.25436E-002	-2.85625E-002	1.25246E-003	1.61914E-003	-2.53290E-002	1.76561E-003
	32	32	4.99536E-002	-4.06324E-002	0.00000E+000	-2.02973E-003	-4.02720E-001	3.32671E-002	2.91831E+001	11	...........	5.55358E-002	-3.40917E-003	5.47873E-001	6.94321E-001	-3.05093E-002	-3.93701E-002	6.15448E-001	-4.29264E-002	-2.25656E-003	1.38523E-004	-2.22614E-002	-2.82120E-002	1.23967E-003	1.59970E-003	-2.50072E-002	1.74420E-003
	33	33	4.99585E-002	-3.93877E-002	0.00000E+000	-1.96775E-003	-3.90352E-001	3.32019E-002	2.87884E+001	11	...........	5.54178E-002	-3.52583E-003	5.47797E-001	6.94367E-001	-3.05607E-002	-3.94161E-002	6.15319E-001	-4.28947E-002	-2.18278E-003	1.38875E-004	-2.15765E-002	-2.73495E-002	1.20372E-003	1.55251E-003	-2.42360E-002	1.68952E-003
	34	34	4.99623E-002	-3.95145E-002	0.00000E+000	-1.97424E-003	-3.91616E-001	3.32212E-002	2.90676E+001	11	...........	5.54482E-002	-3.51431E-003	5.47964E-001	6.94582E-001	-3.05331E-002	-3.94201E-002	6.15430E-001	-4.29607E-002	-2.19101E-003	1.38866E-004	-2.16525E-002	-2.74461E-002	1.20650E-003	1.55767E-003	-2.43184E-002	1.69757E-003
	35	35	4.99478E-002	-3.89343E-002	0.00000E+000	-1.94468E-003	-3.85845E-001	3.32802E-002	2.92787E+001	11	...........	5.55583E-002	-3.49875E-003	5.48047E-001	6.94623E-001	-3.06057E-002	-3.93753E-002	6.15458E-001	-4.29657E-002	-2.16312E-003	1.36221E-004	-2.13378E-002	-2.70447E-002	1.19161E-003	1.53305E-003	-2.39624E-002	1.67284E-003
	36	36	4.99532E-002	-3.71533E-002	0.00000E+000	-1.85593E-003	-3.68121E-001	3.32807E-002	2.88249E+001	11	...........	5.55286E-002	-3.52056E-003	5.48172E-001	6.94542E-001	-3.05822E-002	-3.93739E-002	6.15497E-001	-4.29061E-002	-2.06307E-003	1.30800E-004	-2.03664E-002	-2.58045E-002	1.13623E-003	1.46287E-003	-2.28677E-002	1.59410E-003
	37	37	4.99563E-002	-3.70192E-002	0.00000E+000	-1.84934E-003	-3.66795E-001	3.32647E-002	2.89076E+001	11	...........	5.55396E-002	-3.48375E-003	5.48317E-001	6.94587E-001	-3.05753E-002	-3.93601E-002	6.15598E-001	-4.28493E-002	-2.05603E-003	1.28966E-004	-2.02983E-002	-2.57131E-002	1.13187E-003	1.45708E-003	-2.27890E-002	1.58625E-003
	38	38	4.99626E-002	-3.73135E-002	0.00000E+000	-1.86428E-003	-3.69719E-001	3.34245E-002	2.94397E+001	11	...........	5.57961E-002	-3.43597E-003	5.48183E-001	6.94603E-001	-3.06317E-002	-3.93992E-002	6.15522E-001	-4.30510E-002	-2.08195E-003	1.28208E-004	-2.04546E-002	-2.59181E-002	1.14298E-003	1.47012E-003	-2.29673E-002	1.60638E-003
	39	39	4.99588E-002	-3.64655E-002	0.00000E+000	-1.82177E-003	-3.61287E-001	3.32933E-002	2.91859E+001	11	...........	5.55687E-002	-3.40736E-003	5.48176E-001	6.94560E-001	-3.06361E-002	-3.93661E-002	6.15717E-001	-4.30360E-002	-2.02634E-003	1.24251E-004	-1.99895E-002	-2.53275E-002	1.11716E-003	1.43550E-003	-2.24524E-002	1.56933E-003
	40	40	4.99511E-002	-3.59935E-002	0.00000E+000	-1.79792E-003	-3.56590E-001	3.33538E-002	2.92304E+001	11	...........	5.56836E-002	-3.30056E-003	5.48045E-001	6.94488E-001	-3.06271E-002	-3.93549E-002	6.15671E-001	-4.30250E-002	-2.00425E-003	1.18799E-004	-1.97261E-002	-2.49971E-002	1.10238E-003	1.41652E-003	-2.21602E-002	1.54862E-003
	41	41	4.99637E-002	-3.52203E-002	0.00000E+000	-1.75974E-003	-3.48894E-001	3.34186E-002	2.88060E+001	11	...........	5.57708E-002	-3.47514E-003	5.48192E-001	6.94380E-001	-3.05858E-002	-3.93722E-002	6.15612E-001	-4.28286E-002	-1.96427E-003	1.22396E-004	-1.93075E-002	-2.44563E-002	1.07724E-003	1.38670E-003	-2.16820E-002	1.50844E-003
	42	42	4.99440E-002	-3.44557E-002	0.00000E+000	-1.72085E-003	-3.41298E-001	3.32628E-002	2.86489E+001	11	...........	5.55565E-002	-3.44944E-003	5.48092E-001	6.94540E-001	-3.05642E-002	-3.93356E-002	6.15530E-001	-4.27257E-002	-1.91424E-003	1.18853E-004	-1.88849E-002	-2.39308E-002	1.05311E-003	1.35533E-003	-2.12085E-002	1.47214E-003
	43	43	4.99692E-002	-3.48372E-002	0.00000E+000	-1.74079E-003	-3.45088E-001	3.34867E-002	2.94649E+001	11	...........	5.58819E-002	-3.33819E-003	5.47925E-001	6.94671E-001	-3.05446E-002	-3.93201E-002	6.15590E-001	-4.28092E-002	-1.94677E-003	1.16293E-004	-1.90881E-002	-2.42004E-002	1.06409E-003	1.36980E-003	-2.14454E-002	1.49135E-003
	44	44	4.99496E-002	-3.44099E-002	0.00000E+000	-1.71876E-003	-3.40840E-001	3.35113E-002	2.92617E+001	11	...........	5.58819E-002	-3.36819E-003	5.47903E-001	6.94725E-001	-3.04835E-002	-3.93174E-002	6.15774E-001	-4.29128E-002	-1.92289E-003	1.15899E-004	-1.88533E-002	-2.39054E-002	1.04893E-003	1.35291E-003	-2.11887E-002	1.47662E-003
	45	45	4.99572E-002	-3.34617E-002	0.00000E+000	-1.67165E-003	-3.31410E-001	3.34410E-002	2.89305E+001	11	...........	5.57935E-002	-3.41181E-003	5.47840E-001	6.94695E-001	-3.04518E-002	-3.92837E-002	6.15760E-001	-4.29147E-002	-1.86695E-003	1.14165E-004	-1.83317E-002	-2.32457E-002	1.01897E-003	1.31450E-003	-2.06044E-002	1.43600E-003
	46	46	4.99564E-002	-3.34169E-002	0.00000E+000	-1.66939E-003	-3.30970E-001	3.35350E-002	2.95540E+001	11	...........	5.59758E-002	-3.46014E-003	5.47874E-001	6.94714E-001	-3.04392E-002	-3.92661E-002	6.15824E-001	-4.28400E-002	-1.87054E-003	1.15627E-004	-1.83083E-002	-2.32152E-002	1.01718E-003	1.31215E-003	-2.05790E-002	1.43158E-003
	47	47	4.99508E-002	-3.25093E-002	0.00000E+000	-1.62386E-003	-3.21940E-001	3.34498E-002	2.92194E+001	11	...........	5.58297E-002	-3.62236E-003	5.47978E-001	6.94820E-001	-3.04815E-002	-3.92511E-002	6.15792E-001	-4.26342E-002	-1.81499E-003	1.17760E-004	-1.78144E-002	-2.25881E-002	9.90933E-004	1.27603E-003	-2.00190E-002	1.38601E-003
	48	48	4.99531E-002	-3.19364E-002	0.00000E+000	-1.59532E-003	-3.16234E-001	3.34732E-002	2.89876E+001	11	...........	5.58717E-002	-3.55153E-003	5.48151E-001	6.95155E-001	-3.05085E-002	-3.92725E-002	6.15682E-001	-4.27397E-002	-1.78434E-003	1.13423E-004	-1.75060E-002	-2.22007E-002	9.74330E-004	1.25422E-003	-1.96627E-002	1.36495E-003
	49	49	4.99532E-002	-3.18877E-002	0.00000E+000	-1.59289E-003	-3.15755E-001	3.35062E-002	2.91027E+001	11	...........	5.59071E-002	-3.53556E-003	5.48009E-001	6.95277E-001	-3.04892E-002	-3.92753E-002	6.15688E-001	-4.27500E-002	-1.78275E-003	1.12741E-004	-1.74747E-002	-2.21708E-002	9.72229E-004	1.25240E-003	-1.96329E-002	1.36320E-003
	50	50	4.99667E-002	-3.11506E-002	0.00000E+000	-1.55649E-003	-3.08448E-001	3.36092E-002	2.93334E+001	11	...........	5.60724E-002	-3.42458E-003	5.47882E-001	6.95372E-001	-3.04581E-002	-3.92418E-002	6.15786E-001	-4.26765E-002	-1.74669E-003	1.06678E-004	-1.70668E-002	-2.16612E-002	9.48786E-004	1.22240E-003	-1.91821E-002	1.32940E-003
	51	51	4.99521E-002	-3.06960E-002	0.00000E+000	-1.53333E-003	-3.03922E-001	3.34477E-002	2.93047E+001	11	...........	5.58257E-002	-3.48500E-003	5.47923E-001	6.95370E-001	-3.04237E-002	-3.92521E-002	6.15856E-001	-4.26669E-002	-1.71363E-003	1.06976E-004	-1.68191E-002	-2.13451E-002	9.33889E-004	1.20488E-003	-1.89043E-002	1.30971E-003
	52	52	4.99608E-002	-3.07385E-002	0.00000E+000	-1.53572E-003	-3.04351E-001	3.37335E-002	2.96076E+001	11	...........	5.62928E-002	-3.42139E-003	5.47977E-001	6.95550E-001	-3.04835E-002	-3.93114E-002	6.15855E-001	-4.28428E-002	-1.73036E-003	1.05168E-004	-1.68440E-002	-2.13802E-002	9.37017E-004	1.20837E-003	-1.89305E-002	1.31692E-003
	53	53	4.99640E-002	-2.96086E-002	0.00000E+000	-1.47937E-003	-2.93118E-001	3.35628E-002	2.95845E+001	11	...........	5.60024E-002	-3.40597E-003	5.47929E-001	6.95478E-001	-3.04901E-002	-3.92857E-002	6.15793E-001	-4.28289E-002	-1.65815E-003	1.00846E-004	-1.62234E-002	-2.05922E-002	9.02772E-004	1.16320E-003	-1.82328E-002	1.26811E-003
	54	54	4.99383E-002	-2.91481E-002	0.00000E+000	-1.45561E-003	-2.88543E-001	3.34852E-002	2.95955E+001	11	...........	5.58851E-002	-3.47875E-003	5.47926E-001	6.95346E-001	-3.04590E-002	-3.92800E-002	6.15751E-001	-4.29028E-002	-1.62894E-003	1.01399E-004	-1.59710E-002	-2.02680E-002	8.87822E-004	1.14494E-003	-1.79480E-002	1.25053E-003
	55	55	4.99703E-002	-2.92645E-002	0.00000E+000	-1.46235E-003	-2.89702E-001	3.38612E-002	2.93885E+001	11	...........	5.64861E-002	-3.42375E-003	5.48016E-001	6.95463E-001	-3.04497E-002	-3.92399E-002	6.15856E-001	-4.28968E-002	-1.65304E-003	1.00194E-004	-1.60374E-002	-2.03524E-002	8.91095E-004	1.14833E-003	-1.80227E-002	1.25535E-003
	56	56	4.99638E-002	-2.87798E-002	0.00000E+000	-1.43794E-003	-2.84882E-001	3.35734E-002	2.96249E+001	11	...........	5.60235E-002	-3.36778E-003	5.48054E-001	6.95494E-001	-3.04664E-002	-3.92344E-002	6.15797E-001	-4.28496E-002	-1.61234E-003	9.69238E-005	-1.57728E-002	-2.00161E-002	8.76815E-004	1.12916E-003	-1.77225E-002	1.23320E-003
	57	57	4.99541E-002	-2.86154E-002	0.00000E+000	-1.42946E-003	-2.83255E-001	3.36074E-002	2.96371E+001	11	...........	5.61328E-002	-3.48028E-003	5.48090E-001	6.95418E-001	-3.04804E-002	-3.91992E-002	6.15833E-001	-4.29276E-002	-1.60626E-003	9.95895E-005	-1.56838E-002	-1.98997E-002	8.72209E-004	1.12170E-003	-1.76223E-002	1.22839E-003
	58	58	4.99572E-002	-2.81982E-002	0.00000E+000	-1.40870E-003	-2.79102E-001	3.36926E-002	2.94758E+001	11	...........	5.62282E-002	-3.44833E-003	5.48015E-001	6.95157E-001	-3.04958E-002	-3.91593E-002	6.15809E-001	-4.29692E-002	-1.58553E-003	9.72368E-005	-1.54530E-002	-1.96022E-002	8.59928E-004	1.10422E-003	-1.73647E-002	1.21165E-003
	59	59	4.99612E-002	-2.76883E-002	0.00000E+000	-1.38334E-003	-2.74026E-001	3.36945E-002	2.95874E+001	11	...........	5.62397E-002	-3.45000E-003	5.48240E-001	6.95240E-001	-3.05112E-002	-3.91951E-002	6.15635E-001	-4.28974E-002	-1.55718E-003	9.55247E-005	-1.51798E-002	-1.92500E-002	8.44805E-004	1.08525E-003	-1.70459E-002	1.18776E-003
	60	60	4.99591E-002	-2.76463E-002	0.00000E+000	-1.38118E-003	-2.73606E-001	3.37214E-002	2.99471E+001	11	...........	5.62683E-002	-3.41028E-003	5.48247E-001	6.95247E-001	-3.04885E-002	-3.92133E-002	6.15619E-001	-4.29000E-002	-1.55561E-003	9.42815E-005	-1.51570E-002	-1.92210E-002	8.42893E-004	1.08410E-003	-1.70196E-002	1.18603E-003
	61	61	4.99484E-002	-2.73565E-002	0.00000E+000	-1.36642E-003	-2.70722E-001	3.37807E-002	2.95792E+001	11	...........	5.63935E-002	-3.43097E-003	5.48228E-001	6.95184E-001	-3.05196E-002	-3.92332E-002	6.15672E-001	-4.28254E-002	-1.54273E-003	9.38596E-005	-1.49976E-002	-1.90178E-002	8.34910E-004	1.07328E-003	-1.68426E-002	1.17156E-003
	62	62	4.99630E-002	-2.64318E-002	0.00000E+000	-1.32061E-003	-2.61533E-001	3.36341E-002	2.97677E+001	11	...........	5.61410E-002	-3.54458E-003	5.48134E-001	6.95173E-001	-3.05044E-002	-3.92383E-002	6.15485E-001	-4.29583E-002	-1.48391E-003	9.36896E-005	-1.44882E-002	-1.83746E-002	8.06287E-004	1.03714E-003	-1.62684E-002	1.13546E-003
	63	63	4.99567E-002	-2.64743E-002	0.00000E+000	-1.32257E-003	-2.61951E-001	3.38123E-002	2.99230E+001	11	...........	5.64261E-002	-3.57917E-003	5.48189E-001	6.95120E-001	-3.05471E-002	-3.92057E-002	6.15554E-001	-4.29031E-002	-1.49384E-003	9.47558E-005	-1.45129E-002	-1.84028E-002	8.08711E-004	1.03794E-003	-1.62963E-002	1.13583E-003
	64	64	4.99549E-002	-2.62790E-002	0.00000E+000	-1.31277E-003	-2.60009E-001	3.38309E-002	2.97475E+001	11	...........	5.64604E-002	-3.53847E-003	5.48229E-001	6.95037E-001	-3.05731E-002	-3.92129E-002	6.15621E-001	-4.29075E-002	-1.48373E-003	9.29876E-005	-1.44069E-002	-1.82649E-002	8.03431E-004	1.03048E-003	-1.61779E-002	1.12757E-003
	65	65	4.99492E-002	-2.54505E-002	0.00000E+000	-1.27123E-003	-2.51770E-001	3.37049E-002	2.93842E+001	11	...........	5.62218E-002	-3.56167E-003	5.48028E-001	6.94901E-001	-3.06051E-002	-3.91965E-002	6.15515E-001	-4.28086E-002	-1.43087E-003	9.06463E-005	-1.39476E-002	-1.76856E-002	7.78917E-004	9.97573E-004	-1.56652E-002	1.08950E-003
	66	66	4.99761E-002	-2.51117E-002	0.00000E+000	-1.25499E-003	-2.48400E-001	3.38008E-002	2.98683E+001	11	...........	5.64171E-002	-3.49528E-003	5.48138E-001	6.94911E-001	-3.06090E-002	-3.92106E-002	6.15668E-001	-4.27862E-002	-1.41673E-003	8.77725E-005	-1.37647E-002	-1.74504E-002	7.68646E-004	9.84646E-004	-1.54605E-002	1.07444E-003
	67	67	4.99444E-002	-2.50047E-002	0.00000E+000	-1.24884E-003	-2.47331E-001	3.38047E-002	2.98205E+001	11	...........	5.64354E-002	-3.54569E-003	5.48376E-001	6.94921E-001	-3.06304E-002	-3.92629E-002	6.15683E-001	-4.27658E-002	-1.41115E-003	8.86589E-005	-1.37120E-002	-1.73763E-002	7.65903E-004	9.81755E-004	-1.53949E-002	1.06934E-003
	68	68	4.99648E-002	-2.44824E-002	0.00000E+000	-1.22326E-003	-2.42141E-001	3.38157E-002	2.98673E+001	11	...........	5.64351E-002	-3.50319E-003	5.48502E-001	6.94822E-001	-3.06551E-002	-3.93156E-002	6.15693E-001	-4.28928E-002	-1.38167E-003	8.57666E-005	-1.34286E-002	-1.70109E-002	7.50511E-004	9.62539E-004	-1.50736E-002	1.05012E-003
	69	69	4.99612E-002	-2.42910E-002	0.00000E+000	-1.21361E-003	-2.40243E-001	3.38822E-002	2.99456E+001	11	...........	5.65625E-002	-3.49444E-003	5.48478E-001	6.94753E-001	-3.05926E-002	-3.93282E-002	6.15676E-001	-4.27965E-002	-1.37396E-003	8.48835E-005	-1.33231E-002	-1.68763E-002	7.43126E-004	9.55321E-004	-1.49554E-002	1.03957E-003
	70	70	4.99490E-002	-2.38917E-002	0.00000E+000	-1.19337E-003	-2.36269E-001	3.38357E-002	2.98118E+001	11	...........	5.65026E-002	-3.47167E-003	5.48539E-001	6.94735E-001	-3.06144E-002	-3.93058E-002	6.15632E-001	-4.28639E-002	-1.34994E-003	8.29440E-005	-1.31055E-002	-1.65984E-002	7.31431E-004	9.39084E-004	-1.47085E-002	1.02409E-003
	71	71	4.99609E-002	-2.35546E-002	0.00000E+000	-1.17681E-003	-2.32917E-001	3.38261E-002	2.96913E+001	11	...........	5.64608E-002	-3.41514E-003	5.48682E-001	6.94762E-001	-3.05832E-002	-3.93565E-002	6.15733E-001	-4.28717E-002	-1.32991E-003	8.04422E-005	-1.29240E-002	-1.63648E-002	7.20374E-004	9.27027E-004	-1.45033E-002	1.00982E-003
	72	72	4.99686E-002	-2.33382E-002	0.00000E+000	-1.16618E-003	-2.30765E-001	3.39408E-002	2.97791E+001	11	...........	5.66185E-002	-3.35111E-003	5.48594E-001	6.94823E-001	-3.05682E-002	-3.93425E-002	6.15641E-001	-4.29469E-002	-1.32137E-003	7.82090E-005	-1.28032E-002	-1.62159E-002	7.13407E-004	9.18184E-004	-1.43680E-002	1.00231E-003
	73	73	4.99596E-002	-2.28017E-002	0.00000E+000	-1.13916E-003	-2.25430E-001	3.38468E-002	3.00663E+001	11	...........	5.64824E-002	-3.36444E-003	5.48537E-001	6.94686E-001	-3.05436E-002	-3.93521E-002	6.15467E-001	-4.29297E-002	-1.28789E-003	7.67151E-005	-1.25076E-002	-1.58400E-002	6.96447E-004	8.97295E-004	-1.40337E-002	9.78871E-004
	74	74	4.99592E-002	-2.26458E-002	0.00000E+000	-1.13137E-003	-2.23877E-001	3.39104E-002	3.00097E+001	11	...........	5.66153E-002	-3.26889E-003	5.48422E-001	6.94712E-001	-3.04993E-002	-3.93469E-002	6.15467E-001	-4.28803E-002	-1.28210E-003	7.40267E-005	-1.24195E-002	-1.57323E-002	6.90682E-004	8.91044E-004	-1.39378E-002	9.71059E-004
	75	75	4.99514E-002	-2.25643E-002	0.00000E+000	-1.12712E-003	-2.23065E-001	3.39093E-002	2.98970E+001	11	...........	5.65706E-002	-3.31097E-003	5.48675E-001	6.94731E-001	-3.04746E-002	-3.93551E-002	6.15486E-001	-4.28490E-002	-1.27647E-003	7.47097E-005	-1.23804E-002	-1.56761E-002	6.87637E-004	8.88020E-004	-1.38880E-002	9.66857E-004
	76	76	4.99614E-002	-2.21040E-002	0.00000E+000	-1.10435E-003	-2.18485E-001	3.40403E-002	3.04276E+001	11	...........	5.68486E-002	-3.32083E-003	5.48774E-001	6.94639E-001	-3.04683E-002	-3.93468E-002	6.15431E-001	-4.29354E-002	-1.25658E-003	7.34038E-005	-1.21301E-002	-1.53543E-002	6.73473E-004	8.69723E-004	-1.36035E-002	9.49046E-004
	77	77	4.99593E-002	-2.18317E-002	0.00000E+000	-1.09069E-003	-2.15784E-001	3.39343E-002	3.02656E+001	11	...........	5.66190E-002	-3.27444E-003	5.48830E-001	6.94723E-001	-3.04621E-002	-3.93367E-002	6.15507E-001	-4.28462E-002	-1.23609E-003	7.14865E-005	-1.19819E-002	-1.51670E-002	6.65038E-004	8.58785E-004	-1.34375E-002	9.35405E-004
	78	78	4.99605E-002	-2.15699E-002	0.00000E+000	-1.07764E-003	-2.13179E-001	3.38550E-002	2.98631E+001	11	...........	5.64844E-002	-3.41722E-003	5.48715E-001	6.94744E-001	-3.04665E-002	-3.93087E-002	6.15535E-001	-4.29282E-002	-1.21836E-003	7.37092E-005	-1.18357E-002	-1.49856E-002	6.57161E-004	8.47887E-004	-1.32770E-002	9.25958E-004
	79	79	4.99530E-002	-2.10856E-002	0.00000E+000	-1.05329E-003	-2.08366E-001	3.40104E-002	3.03292E+001	11	...........	5.67679E-002	-3.51819E-003	5.48648E-001	6.94879E-001	-3.04025E-002	-3.93350E-002	6.15527E-001	-4.30739E-002	-1.19699E-003	7.41833E-005	-1.15686E-002	-1.46520E-002	6.41056E-004	8.29403E-004	-1.29788E-002	9.08240E-004
	80	80	4.99598E-002	-2.07687E-002	0.00000E+000	-1.03760E-003	-2.05224E-001	3.40140E-002	2.98448E+001	11	...........	5.67706E-002	-3.48750E-003	5.48793E-001	6.94852E-001	-3.03536E-002	-3.93390E-002	6.15512E-001	-4.30386E-002	-1.17905E-003	7.24308E-005	-1.13977E-002	-1.44312E-002	6.30404E-004	8.17020E-004	-1.27834E-002	8.93855E-004
	81	81	4.99621E-002	-2.06073E-002	0.00000E+000	-1.02958E-003	-2.03619E-001	3.40362E-002	3.03872E+001	11	...........	5.68119E-002	-3.57347E-003	5.48673E-001	6.94830E-001	-3.03293E-002	-3.93379E-002	6.15737E-001	-4.29129E-002	-1.17074E-003	7.36395E-005	-1.13066E-002	-1.43185E-002	6.25004E-004	8.10647E-004	-1.26887E-002	8.84318E-004
	82	82	4.99616E-002	-2.04559E-002	0.00000E+000	-1.02201E-003	-2.02109E-001	3.39293E-002	3.02335E+001	11	...........	5.65964E-002	-3.60486E-003	5.48711E-001	6.94764E-001	-3.03246E-002	-3.93169E-002	6.15779E-001	-4.28562E-002	-1.15773E-003	7.37407E-005	-1.12244E-002	-1.42120E-002	6.20316E-004	8.04263E-004	-1.25963E-002	8.76663E-004
	83	83	4.99509E-002	-2.01144E-002	0.00000E+000	-1.00473E-003	-1.98718E-001	3.39972E-002	3.01635E+001	11	...........	5.67431E-002	-3.58875E-003	5.48804E-001	6.94698E-001	-3.03812E-002	-3.92862E-002	6.15705E-001	-4.28689E-002	-1.14135E-003	7.21856E-005	-1.10389E-002	-1.39734E-002	6.11101E-004	7.90220E-004	-1.23846E-002	8.62283E-004
	84	84	4.99687E-002	-1.97507E-002	0.00000E+000	-9.86915E-004	-1.95097E-001	3.40714E-002	3.01854E+001	11	...........	5.68418E-002	-3.65194E-003	5.48884E-001	6.94733E-001	-3.04122E-002	-3.92768E-002	6.15601E-001	-4.28751E-002	-1.12266E-003	7.21283E-005	-1.08408E-002	-1.37214E-002	6.00662E-004	7.75743E-004	-1.21585E-002	8.46812E-004
	85	85	4.99495E-002	-1.96330E-002	0.00000E+000	-9.80661E-004	-1.93923E-001	3.40653E-002	3.03265E+001	11	...........	5.68544E-002	-3.59181E-003	5.48832E-001	6.94685E-001	-3.04629E-002	-3.92750E-002	6.15605E-001	-4.29433E-002	-1.11623E-003	7.05181E-005	-1.07752E-002	-1.36388E-002	5.98080E-004	7.71088E-004	-1.20862E-002	8.43108E-004
	86	86	4.99657E-002	-1.93294E-002	0.00000E+000	-9.65808E-004	-1.90909E-001	3.40912E-002	3.02668E+001	11	...........	5.69071E-002	-3.50236E-003	5.48801E-001	6.94762E-001	-3.05126E-002	-3.92712E-002	6.15616E-001	-4.30035E-002	-1.09998E-003	6.76986E-005	-1.06080E-002	-1.34293E-002	5.89791E-004	7.59090E-004	-1.18995E-002	8.31232E-004
	87	87	4.99553E-002	-1.90898E-002	0.00000E+000	-9.53639E-004	-1.88529E-001	3.40552E-002	3.03843E+001	11	...........	5.68361E-002	-3.55972E-003	5.48799E-001	6.94714E-001	-3.05469E-002	-3.93190E-002	6.15596E-001	-4.30644E-002	-1.08499E-003	6.79545E-005	-1.04765E-002	-1.32620E-002	5.83136E-004	7.50593E-004	-1.17516E-002	8.22093E-004
	88	88	4.99580E-002	-1.86122E-002	0.00000E+000	-9.29829E-004	-1.83775E-001	3.39566E-002	3.03413E+001	11	...........	5.66686E-002	-3.40958E-003	5.48747E-001	6.94737E-001	-3.05724E-002	-3.93785E-002	6.15598E-001	-4.30596E-002	-1.05473E-003	6.34598E-005	-1.02134E-002	-1.29306E-002	5.69019E-004	7.32920E-004	-1.14576E-002	8.01433E-004
	89	89	4.99644E-002	-1.87456E-002	0.00000E+000	-9.36613E-004	-1.85110E-001	3.41824E-002	3.04708E+001	11	...........	5.70287E-002	-3.47917E-003	5.48766E-001	6.94631E-001	-3.04864E-002	-3.93692E-002	6.15686E-001	-4.30665E-002	-1.06904E-003	6.52190E-005	-1.02869E-002	-1.30213E-002	5.71485E-004	7.37998E-004	-1.15414E-002	8.07307E-004
	90	90	4.99567E-002	-1.82842E-002	0.00000E+000	-9.13416E-004	-1.80512E-001	3.41475E-002	3.00157E+001	11	...........	5.69987E-002	-3.38944E-003	5.48752E-001	6.94411E-001	-3.04944E-002	-3.93610E-002	6.15644E-001	-4.30422E-002	-1.04217E-003	6.19731E-005	-1.00335E-002	-1.26967E-002	5.57565E-004	7.19682E-004	-1.12565E-002	7.86991E-004
	91	91	4.99579E-002	-1.76627E-002	0.00000E+000	-8.82391E-004	-1.74333E-001	3.39081E-002	2.97874E+001	11	...........	5.66453E-002	-3.39236E-003	5.48901E-001	6.94427E-001	-3.04933E-002	-3.94065E-002	6.15655E-001	-4.29706E-002	-1.00051E-003	5.99182E-005	-9.69507E-003	-1.22654E-002	5.38594E-004	6.96025E-004	-1.08741E-002	7.58976E-004
	92	92	4.99621E-002	-1.76927E-002	0.00000E+000	-8.83967E-004	-1.74637E-001	3.41585E-002	3.04863E+001	11	...........	5.69833E-002	-3.41861E-003	5.48815E-001	6.94317E-001	-3.05231E-002	-3.93829E-002	6.15689E-001	-4.28919E-002	-1.00819E-003	6.04846E-005	-9.71004E-003	-1.22844E-002	5.40036E-004	6.96792E-004	-1.08932E-002	7.58876E-004
	93	93	4.99587E-002	-1.77420E-002	0.00000E+000	-8.86365E-004	-1.75128E-001	3.42686E-002	3.05411E+001	11	...........	5.71647E-002	-3.32542E-003	5.48662E-001	6.94176E-001	-3.05175E-002	-3.93781E-002	6.15593E-001	-4.26906E-002	-1.01422E-003	5.89995E-005	-9.73435E-003	-1.23161E-002	5.41441E-004	6.98644E-004	-1.09218E-002	7.57415E-004
	94	94	4.99574E-002	-1.73920E-002	0.00000E+000	-8.68860E-004	-1.71640E-001	3.41788E-002	3.03286E+001	11	...........	5.70756E-002	-3.39139E-003	5.48652E-001	6.94139E-001	-3.05278E-002	-3.93462E-002	6.15620E-001	-4.27471E-002	-9.92658E-004	5.89831E-005	-9.54216E-003	-1.20725E-002	5.30939E-004	6.84310E-004	-1.07069E-002	7.43457E-004
	95	95	4.99621E-002	-1.69598E-002	0.00000E+000	-8.47348E-004	-1.67337E-001	3.41170E-002	2.99004E+001	11	...........	5.69537E-002	-3.43153E-003	5.48624E-001	6.94184E-001	-3.05242E-002	-3.93221E-002	6.15647E-001	-4.28442E-002	-9.65926E-004	5.81981E-005	-9.30457E-003	-1.17733E-002	5.17685E-004	6.66896E-004	-1.04413E-002	7.26630E-004
	96	96	4.99604E-002	-1.67781E-002	0.00000E+000	-8.38242E-004	-1.65538E-001	3.41193E-002	3.00591E+001	11	...........	5.69543E-002	-3.47500E-003	5.48673E-001	6.94388E-001	-3.05386E-002	-3.92962E-002	6.15638E-001	-4.27761E-002	-9.55586E-004	5.83040E-005	-9.20570E-003	-1.16505E-002	5.12381E-004	6.59317E-004	-1.03292E-002	7.17703E-004
	97	97	4.99552E-002	-1.67058E-002	0.00000E+000	-8.34542E-004	-1.64820E-001	3.41927E-002	3.04130E+001	11	...........	5.71162E-002	-3.46208E-003	5.48862E-001	6.94502E-001	-3.05469E-002	-3.92922E-002	6.15578E-001	-4.27500E-002	-9.54173E-004	5.78369E-005	-9.16918E-003	-1.16022E-002	5.10311E-004	6.56408E-004	-1.02837E-002	7.14173E-004
	98	98	4.99646E-002	-1.64787E-002	0.00000E+000	-8.23350E-004	-1.62558E-001	3.40398E-002	2.98913E+001	11	...........	5.68378E-002	-3.39694E-003	5.48942E-001	6.94502E-001	-3.05156E-002	-3.93387E-002	6.15588E-001	-4.27490E-002	-9.36611E-004	5.59771E-005	-9.04584E-003	-1.14445E-002	5.02856E-004	6.48250E-004	-1.01441E-002	7.04447E-004
	99	99	4.99556E-002	-1.61587E-002	0.00000E+000	-8.07219E-004	-1.59372E-001	3.42375E-002	3.02120E+001	11	...........	5.71503E-002	-3.40583E-003	5.49058E-001	6.94409E-001	-3.05203E-002	-3.93394E-002	6.15492E-001	-4.27701E-002	-9.23476E-004	5.50340E-005	-8.87208E-003	-1.12208E-002	4.93169E-004	6.35676E-004	-9.94558E-003	6.91111E-004
	100	100	4.99622E-002	-1.60471E-002	0.00000E+000	-8.01750E-004	-1.58266E-001	3.42510E-002	3.07898E+001	11	...........	5.72047E-002	-3.38208E-003	5.49067E-001	6.94449E-001	-3.05283E-002	-3.93144E-002	6.15663E-001	-4.28424E-002	-9.17971E-004	5.42727E-005	-8.81095E-003	-1.11439E-002	4.89892E-004	6.30883E-004	-9.87962E-003	6.87496E-004
	101	101	4.99572E-002	-1.58229E-002	0.00000E+000	-7.90466E-004	-1.56037E-001	3.41512E-002	3.07533E+001	11	...........	5.70146E-002	-3.35597E-003	5.49115E-001	6.94412E-001	-3.04518E-002	-3.93075E-002	6.15520E-001	-4.29358E-002	-9.02134E-004	5.31011E-005	-8.68857E-003	-1.09876E-002	4.81835E-004	6.21957E-004	-9.73929E-003	6.79368E-004
	102	102	4.99568E-002	-1.55563E-002	0.00000E+000	-7.77142E-004	-1.53382E-001	3.41827E-002	3.05937E+001	11	...........	5.70479E-002	-3.46389E-003	5.49162E-001	6.94353E-001	-3.04253E-002	-3.92817E-002	6.15508E-001	-4.28403E-002	-8.87454E-004	5.38853E-005	-8.54292E-003	-1.08016E-002	4.73305E-004	6.11077E-004	-9.57502E-003	6.66436E-004
	103	103	4.99653E-002	-1.54216E-002	0.00000E+000	-7.70546E-004	-1.52044E-001	3.42186E-002	3.05212E+001	11	...........	5.71249E-002	-3.35458E-003	5.49102E-001	6.94395E-001	-3.04081E-002	-3.93054E-002	6.15497E-001	-4.27614E-002	-8.80958E-004	5.17331E-005	-8.46805E-003	-1.07087E-002	4.68942E-004	6.06154E-004	-9.49197E-003	6.59450E-004
	104	104	4.99604E-002	-1.52826E-002	0.00000E+000	-7.63526E-004	-1.50665E-001	3.43070E-002	3.05483E+001	11	...........	5.72285E-002	-3.45556E-003	5.49047E-001	6.94421E-001	-3.04392E-002	-3.93026E-002	6.15521E-001	-4.28826E-002	-8.74602E-004	5.28100E-005	-8.39089E-003	-1.06126E-002	4.65191E-004	6.00648E-004	-9.40679E-003	6.55360E-004
	105	105	4.99621E-002	-1.51168E-002	0.00000E+000	-7.55265E-004	-1.49008E-001	3.42361E-002	3.07486E+001	11	...........	5.71111E-002	-3.38014E-003	5.48939E-001	6.94417E-001	-3.04293E-002	-3.93160E-002	6.15590E-001	-4.30268E-002	-8.63335E-004	5.10968E-005	-8.29818E-003	-1.04973E-002	4.59993E-004	5.94330E-004	-9.30573E-003	6.50426E-004
	106	106	4.99554E-002	-1.48529E-002	0.00000E+000	-7.41983E-004	-1.46387E-001	3.41243E-002	3.05332E+001	11	...........	5.69751E-002	-3.51278E-003	5.48838E-001	6.94431E-001	-3.04324E-002	-3.92842E-002	6.15549E-001	-4.30687E-002	-8.46247E-004	5.21750E-005	-8.15184E-003	-1.03143E-002	4.52009E-004	5.83484E-004	-9.14270E-003	6.39697E-004
	107	107	4.99603E-002	-1.46469E-002	0.00000E+000	-7.31765E-004	-1.44332E-001	3.43690E-002	3.04793E+001	11	...........	5.73579E-002	-3.58514E-003	5.48698E-001	6.94427E-001	-3.04650E-002	-3.92760E-002	6.15693E-001	-4.29537E-002	-8.40117E-004	5.25113E-005	-8.03675E-003	-1.01712E-002	4.46219E-004	5.75272E-004	-9.01801E-003	6.29141E-004
	108	108	4.99649E-002	-1.43205E-002	0.00000E+000	-7.15524E-004	-1.41084E-001	3.41976E-002	3.03762E+001	11	...........	5.70881E-002	-3.45875E-003	5.48768E-001	6.94458E-001	-3.04537E-002	-3.93040E-002	6.15618E-001	-4.28860E-002	-8.17531E-004	4.95311E-005	-7.85865E-003	-9.94501E-003	4.36114E-004	5.62854E-004	-8.81597E-003	6.14149E-004
	109	109	4.99517E-002	-1.42668E-002	0.00000E+000	-7.12650E-004	-1.40556E-001	3.42170E-002	3.04227E+001	11	...........	5.71207E-002	-3.54333E-003	5.48840E-001	6.94354E-001	-3.04549E-002	-3.92804E-002	6.15693E-001	-4.29400E-002	-8.14929E-004	5.05520E-005	-7.83018E-003	-9.90620E-003	4.34493E-004	5.60405E-004	-8.78396E-003	6.12616E-004
	110	110	4.99657E-002	-1.35897E-002	0.00000E+000	-6.79018E-004	-1.33821E-001	3.43351E-002	2.97386E+001	11	...........	5.72868E-002	-3.54236E-003	5.48900E-001	6.94393E-001	-3.04454E-002	-3.92769E-002	6.15691E-001	-4.29262E-002	-7.78510E-004	4.81396E-005	-7.45937E-003	-9.43659E-003	4.13744E-004	5.33761E-004	-8.36704E-003	5.83354E-004
	111	111	4.99613E-002	-1.36243E-002	0.00000E+000	-6.80687E-004	-1.34171E-001	3.41077E-002	3.06075E+001	11	...........	5.69258E-002	-3.52097E-003	5.49004E-001	6.94418E-001	-3.04461E-002	-3.92819E-002	6.15577E-001	-4.29833E-002	-7.75574E-004	4.79707E-005	-7.47979E-003	-9.46095E-003	4.14807E-004	5.35188E-004	-8.38679E-003	5.85617E-004
	112	112	4.99563E-002	-1.37983E-002	0.00000E+000	-6.89311E-004	-1.35905E-001	3.45669E-002	3.05680E+001	11	...........	5.77144E-002	-3.41708E-003	5.48988E-001	6.94334E-001	-3.04500E-002	-3.92849E-002	6.15615E-001	-4.29446E-002	-7.96360E-004	4.71498E-005	-7.57508E-003	-9.58061E-003	4.20157E-004	5.42063E-004	-8.49443E-003	5.92561E-004
	113	113	4.99603E-002	-1.33677E-002	0.00000E+000	-6.67853E-004	-1.31620E-001	3.42622E-002	3.03941E+001	11	...........	5.71485E-002	-3.55944E-003	5.48819E-001	6.94283E-001	-3.04461E-002	-3.92944E-002	6.15745E-001	-4.29750E-002	-7.63941E-004	4.75814E-005	-7.33642E-003	-9.28094E-003	4.06993E-004	5.25275E-004	-8.23107E-003	5.74475E-004
	114	114	4.99603E-002	-1.32209E-002	0.00000E+000	-6.60518E-004	-1.30153E-001	3.43588E-002	3.03775E+001	11	...........	5.73531E-002	-3.62139E-003	5.48786E-001	6.94240E-001	-3.04487E-002	-3.93136E-002	6.15776E-001	-4.30046E-002	-7.58256E-004	4.78778E-005	-7.25542E-003	-9.17844E-003	4.02558E-004	5.19759E-004	-8.14108E-003	5.68557E-004
	115	115	4.99648E-002	-1.32943E-002	0.00000E+000	-6.64248E-004	-1.30886E-001	3.44422E-002	3.08856E+001	11	...........	5.74525E-002	-3.59875E-003	5.48820E-001	6.94359E-001	-3.04937E-002	-3.92882E-002	6.15661E-001	-4.30696E-002	-7.63791E-004	4.78429E-005	-7.29619E-003	-9.23102E-003	4.05393E-004	5.22309E-004	-8.18479E-003	5.72580E-004
	116	116	4.99618E-002	-1.31784E-002	0.00000E+000	-6.58415E-004	-1.29735E-001	3.42312E-002	3.10905E+001	11	...........	5.71692E-002	-3.59181E-003	5.48726E-001	6.94292E-001	-3.04462E-002	-3.92853E-002	6.15736E-001	-4.31203E-002	-7.53397E-004	4.73342E-005	-7.23132E-003	-9.14965E-003	4.01232E-004	5.17716E-004	-8.11441E-003	5.68256E-004
	117	117	4.99565E-002	-1.29082E-002	0.00000E+000	-6.44848E-004	-1.27050E-001	3.43688E-002	3.03697E+001	11	...........	5.73460E-002	-3.68722E-003	5.48677E-001	6.94290E-001	-3.04464E-002	-3.92856E-002	6.15685E-001	-4.30692E-002	-7.40233E-004	4.75954E-005	-7.08243E-003	-8.96204E-003	3.93008E-004	5.07106E-004	-7.94738E-003	5.55946E-004
	118	118	4.99621E-002	-1.27309E-002	0.00000E+000	-6.36064E-004	-1.25292E-001	3.43462E-002	3.08356E+001	11	...........	5.73312E-002	-3.60444E-003	5.48840E-001	6.94313E-001	-3.04162E-002	-3.92915E-002	6.15584E-001	-4.29233E-002	-7.29880E-004	4.58879E-005	-6.98724E-003	-8.83925E-003	3.87227E-004	5.00217E-004	-7.83695E-003	5.46454E-004
	119	119	4.99581E-002	-1.24807E-002	0.00000E+000	-6.23511E-004	-1.22800E-001	3.42143E-002	3.05774E+001	11	...........	5.71042E-002	-3.48625E-003	5.48805E-001	6.94242E-001	-3.03597E-002	-3.92543E-002	6.15618E-001	-4.28687E-002	-7.12699E-004	4.35108E-005	-6.84946E-003	-8.66461E-003	3.78910E-004	4.89921E-004	-7.68333E-003	5.35031E-004
	120	120	4.99609E-002	-1.23306E-002	0.00000E+000	-6.16047E-004	-1.21303E-001	3.43594E-002	3.00531E+001	11	...........	5.73361E-002	-3.48250E-003	5.48806E-001	6.94051E-001	-3.03547E-002	-3.93194E-002	6.15665E-001	-4.28074E-002	-7.06988E-004	4.29413E-005	-6.76710E-003	-8.55806E-003	3.74292E-004	4.84832E-004	-7.59152E-003	5.27840E-004
	121	121	4.99599E-002	-1.22584E-002	0.00000E+000	-6.12426E-004	-1.20584E-001	3.44398E-002	3.06619E+001	11	...........	5.74875E-002	-3.52681E-003	5.48623E-001	6.94072E-001	-3.03210E-002	-3.93206E-002	6.15640E-001	-4.28532E-002	-7.04702E-004	4.32328E-005	-6.72522E-003	-8.50819E-003	3.71685E-004	4.82005E-004	-7.54673E-003	5.25310E-004
	122	122	4.99636E-002	-1.21234E-002	0.00000E+000	-6.05730E-004	-1.19242E-001	3.44201E-002	3.05941E+001	11	...........	5.74364E-002	-3.52444E-003	5.48531E-001	6.94139E-001	-3.03382E-002	-3.93021E-002	6.15566E-001	-4.28499E-002	-6.96326E-004	4.27283E-005	-6.65007E-003	-8.41534E-003	3.67803E-004	4.76476E-004	-7.46277E-003	5.19487E-004
	123	123	4.99601E-002	-1.20079E-002	0.00000E+000	-5.99914E-004	-1.18091E-001	3.43169E-002	3.06960E+001	11	...........	5.72878E-002	-3.54083E-003	5.48406E-001	6.94117E-001	-3.03496E-002	-3.92462E-002	6.15556E-001	-4.29294E-002	-6.87905E-004	4.25179E-005	-6.58520E-003	-8.33488E-003	3.64434E-004	4.71264E-004	-7.39152E-003	5.15492E-004
	124	124	4.99632E-002	-1.18912E-002	0.00000E+000	-5.94123E-004	-1.16932E-001	3.44509E-002	3.07034E+001	11	...........	5.75044E-002	-3.50181E-003	5.48292E-001	6.93982E-001	-3.03574E-002	-3.92581E-002	6.15425E-001	-4.29282E-002	-6.83797E-004	4.16407E-005	-6.51986E-003	-8.25228E-003	3.60986E-004	4.66826E-004	-7.31815E-003	5.10468E-004
	125	125	4.99596E-002	-1.17462E-002	0.00000E+000	-5.86835E-004	-1.15486E-001	3.43995E-002	3.10059E+001	11	...........	5.74243E-002	-3.46069E-003	5.48263E-001	6.94033E-001	-3.03936E-002	-3.91940E-002	6.15438E-001	-4.29287E-002	-6.74517E-004	4.06500E-005	-6.44001E-003	-8.15224E-003	3.57009E-004	4.60381E-004	-7.22906E-003	5.04250E-004
	126	126	4.99592E-002	-1.16499E-002	0.00000E+000	-5.82022E-004	-1.14534E-001	3.44946E-002	3.08792E+001	11	...........	5.75496E-002	-3.47528E-003	5.47965E-001	6.93944E-001	-3.04394E-002	-3.92239E-002	6.15577E-001	-4.29317E-002	-6.70450E-004	4.04868E-005	-6.38376E-003	-8.08441E-003	3.54618E-004	4.56956E-004	-7.17144E-003	5.00152E-004
	127	127	4.99617E-002	-1.14212E-002	0.00000E+000	-5.70623E-004	-1.12269E-001	3.43977E-002	3.05140E+001	11	...........	5.74133E-002	-3.38792E-003	5.47878E-001	6.93918E-001	-3.04672E-002	-3.92208E-002	6.15559E-001	-4.29932E-002	-6.55730E-004	3.86941E-005	-6.25743E-003	-7.92538E-003	3.47972E-004	4.47949E-004	-7.03043E-003	4.91034E-004
	128	128	4.99608E-002	-1.13413E-002	0.00000E+000	-5.66619E-004	-1.11471E-001	3.43261E-002	3.07388E+001	11	...........	5.72914E-002	-3.46778E-003	5.47789E-001	6.93677E-001	-3.05211E-002	-3.91796E-002	6.15621E-001	-4.29800E-002	-6.49758E-004	3.93291E-005	-6.21263E-003	-7.86719E-003	3.46149E-004	4.44347E-004	-6.98193E-003	4.87448E-004
	129	129	4.99606E-002	-1.12685E-002	0.00000E+000	-5.62979E-004	-1.10747E-001	3.45053E-002	3.10722E+001	11	...........	5.75729E-002	-3.47972E-003	5.47955E-001	6.93490E-001	-3.04825E-002	-3.91957E-002	6.15569E-001	-4.28658E-002	-6.48759E-004	3.92112E-005	-6.17462E-003	-7.81458E-003	3.43491E-004	4.41676E-004	-6.93653E-003	4.83033E-004
	130	130	4.99606E-002	-1.11296E-002	0.00000E+000	-5.56040E-004	-1.09365E-001	3.44642E-002	3.09267E+001	11	...........	5.75022E-002	-3.50111E-003	5.48013E-001	6.93518E-001	-3.05096E-002	-3.91811E-002	6.15515E-001	-4.28553E-002	-6.39976E-004	3.89659E-005	-6.09916E-003	-7.71856E-003	3.39559E-004	4.36069E-004	-6.85043E-003	4.76961E-004
	131	131	4.99595E-002	-1.09810E-002	0.00000E+000	-5.48605E-004	-1.07882E-001	3.44791E-002	3.08563E+001	11	...........	5.75165E-002	-3.40778E-003	5.48055E-001	6.93575E-001	-3.04800E-002	-3.91935E-002	6.15503E-001	-4.28501E-002	-6.31589E-004	3.74208E-005	-6.01819E-003	-7.61614E-003	3.34701E-004	4.30383E-004	-6.75884E-003	4.70537E-004
	132	132	4.99612E-002	-1.07562E-002	0.00000E+000	-5.37395E-004	-1.05644E-001	3.43344E-002	3.04965E+001	11	...........	5.73153E-002	-3.42278E-003	5.48069E-001	6.93715E-001	-3.04735E-002	-3.91901E-002	6.15486E-001	-4.28876E-002	-6.16497E-004	3.68162E-005	-5.89516E-003	-7.46177E-003	3.27780E-004	4.21539E-004	-6.62031E-003	4.61310E-004
	133	133	4.99617E-002	-1.05510E-002	0.00000E+000	-5.27143E-004	-1.03609E-001	3.45027E-002	3.05438E+001	11	...........	5.75999E-002	-3.52347E-003	5.48043E-001	6.93686E-001	-3.04935E-002	-3.91792E-002	6.15402E-001	-4.27775E-002	-6.07733E-004	3.71760E-005	-5.78238E-003	-7.31905E-003	3.21735E-004	4.13378E-004	-6.49308E-003	4.51343E-004
	134	134	4.99577E-002	-1.05339E-002	0.00000E+000	-5.26249E-004	-1.03440E-001	3.44577E-002	3.04695E+001	11	...........	5.74793E-002	-3.57042E-003	5.48200E-001	6.93682E-001	-3.05200E-002	-3.91607E-002	6.15373E-001	-4.27106E-002	-6.05481E-004	3.76104E-005	-5.77467E-003	-7.30717E-003	3.21494E-004	4.12514E-004	-6.48227E-003	4.49908E-004
	135	135	4.99655E-002	-1.04671E-002	0.00000E+000	-5.22995E-004	-1.02780E-001	3.44194E-002	3.08312E+001	11	...........	5.76897E-002	-3.58458E-003	5.48039E-001	6.93677E-001	-3.08365E-002	-3.90087E-002	6.15350E-001	-4.28111E-002	-6.03845E-004	3.75203E-005	-5.73639E-003	-7.26080E-003	3.22770E-004	4.08309E-004	-6.44094E-003	4.48109E-004
	136	136	4.99617E-002	-1.02382E-002	0.00000E+000	-5.11516E-004	-1.00538E-001	3.43595E-002	3.06092E+001	11	...........	5.73767E-002	-3.46917E-003	5.48026E-001	6.93692E-001	-3.17325E-002	-3.87326E-002	6.15523E-001	-4.28111E-002	-5.87432E-004	3.55179E-005	-5.61078E-003	-7.10213E-003	3.24883E-004	3.96551E-004	-6.30182E-003	4.38307E-004
	137	137	4.99578E-002	-1.02651E-002	0.00000E+000	-5.12821E-004	-1.00791E-001	3.45179E-002	3.08652E+001	11	...........	5.76233E-002	-3.47083E-003	5.48177E-001	6.93671E-001	-3.40694E-002	-3.84362E-002	6.15696E-001	-4.28692E-002	-5.91508E-004	3.56284E-005	-5.62708E-003	-7.12059E-003	3.49726E-004	3.94551E-004	-6.32017E-003	4.40056E-004
	138	138	4.99630E-002	-1.00998E-002	0.00000E+000	-5.04616E-004	-9.91570E-002	3.45052E-002	3.13795E+001	11	...........	5.75971E-002	-3.59792E-003	5.48534E-001	6.92905E-001	-7.47668E-002	-3.31411E-002	6.16677E-001	-4.33017E-002	-5.81719E-004	3.63382E-005	-5.54008E-003	-6.99820E-003	7.55130E-004	3.34718E-004	-6.22831E-003	4.37338E-004
	139	139	4.99600E-002	-1.00046E-002	0.00000E+000	-4.99829E-004	-9.82083E-002	3.45125E-002	3.05044E+001	11	...........	5.76143E-002	-4.08125E-003	5.50095E-001	6.88575E-001	-3.57591E-001	-7.89750E-002	6.21248E-001	-4.45967E-002	-5.76407E-004	4.08312E-005	-5.50347E-003	-6.88890E-003	3.57754E-003	7.90112E-004	-6.21533E-003	4.46171E-004
	140	140	4.99614E-002	-9.89402E-003	0.00000E+000	-4.94319E-004	-9.71060E-002	3.45394E-002	3.06194E+001	11	...........	5.76444E-002	-3.22736E-003	5.48533E-001	6.93184E-001	-7.91808E-002	-1.05236E-001	6.13722E-001	-4.23326E-002	-5.70335E-004	3.19316E-005	-5.42720E-003	-6.85837E-003	7.83417E-004	1.04120E-003	-6.07218E-003	4.18840E-004
	141	141	4.99627E-002	-9.73302E-003	0.00000E+000	-4.86287E-004	-9.54977E-002	3.44852E-002	3.10958E+001	11	...........	5.75950E-002	-3.06653E-003	5.47919E-001	6.95136E-001	6.70528E-002	-7.06887E-002	6.12693E-001	-4.20183E-002	-5.60573E-004	2.98466E-005	-5.33291E-003	-6.76577E-003	-6.52626E-004	6.88015E-004	-5.96336E-003	4.08965E-004
	142	142	4.99567E-002	-9.64922E-003	0.00000E+000	-4.82043E-004	-9.46693E-002	3.45090E-002	3.06394E+001	11	...........	5.76157E-002	-3.31597E-003	5.47831E-001	6.94964E-001	5.74750E-002	-5.98786E-002	6.14178E-001	-4.24665E-002	-5.55946E-004	3.19965E-005	-5.28613E-003	-6.70585E-003	-5.54589E-004	5.77782E-004	-5.92634E-003	4.09769E-004
	143	143	4.99648E-002	-9.54872E-003	0.00000E+000	-4.77100E-004	-9.36637E-002	3.45683E-002	3.09254E+001	11	...........	5.76951E-002	-3.38431E-003	5.47755E-001	6.94833E-001	4.02981E-002	-5.25050E-002	6.14981E-001	-4.27646E-002	-5.50915E-004	3.23158E-005	-5.23036E-003	-6.63477E-003	-3.84795E-004	5.01355E-004	-5.87228E-003	4.08347E-004
	144	144	4.99610E-002	-9.48358E-003	0.00000E+000	-4.73809E-004	-9.30160E-002	3.45407E-002	3.12099E+001	11	...........	5.76531E-002	-3.45625E-003	5.47707E-001	6.94857E-001	2.56362E-002	-4.67253E-002	6.15471E-001	-4.29349E-002	-5.46757E-004	3.27776E-005	-5.19422E-003	-6.58973E-003	-2.43123E-004	4.43123E-004	-5.83687E-003	4.07176E-004
	145	145	4.99603E-002	-9.30718E-003	0.00000E+000	-4.64989E-004	-9.12537E-002	3.43983E-002	3.07430E+001	11	...........	5.74144E-002	-3.53806E-003	5.47793E-001	6.94735E-001	1.39018E-002	-4.24499E-002	6.15721E-001	-4.27811E-002	-5.34366E-004	3.29293E-005	-5.09841E-003	-6.46602E-003	-1.29387E-004	3.95088E-004	-5.73062E-003	3.98171E-004
	146	146	4.99616E-002	-9.23914E-003	0.00000E+000	-4.61602E-004	-9.05797E-002	3.46105E-002	3.08164E+001	11	...........	5.77828E-002	-3.45139E-003	5.47909E-001	6.94681E-001	4.62778E-003	-3.92592E-002	6.15822E-001	-4.28864E-002	-5.33863E-004	3.18878E-005	-5.06221E-003	-6.41825E-003	-4.27567E-005	3.62721E-004	-5.68967E-003	3.96233E-004
	147	147	4.99633E-002	-9.16324E-003	0.00000E+000	-4.57825E-004	-8.98223E-002	3.45428E-002	3.07875E+001	11	...........	5.76407E-002	-3.45000E-003	5.47911E-001	6.94569E-001	-2.75556E-003	-3.69147E-002	6.15825E-001	-4.28889E-002	-5.28176E-004	3.16132E-005	-5.02064E-003	-6.36450E-003	2.52498E-005	3.38259E-004	-5.64295E-003	3.93001E-004
	148	148	4.99602E-002	-9.13922E-003	0.00000E+000	-4.56598E-004	-8.95840E-002	3.46302E-002	3.10980E+001	11	...........	5.77772E-002	-3.46000E-003	5.47877E-001	6.94571E-001	-8.79958E-003	-3.51560E-002	6.15828E-001	-4.28537E-002	-5.28039E-004	3.16217E-005	-5.00717E-003	-6.34784E-003	8.04213E-005	3.21298E-004	-5.62819E-003	3.91650E-004
	149	149	4.99630E-002	-9.04259E-003	0.00000E+000	-4.51795E-004	-8.86367E-002	3.46017E-002	3.13400E+001	11	...........	5.77393E-002	-3.52208E-003	5.47975E-001	6.94525E-001	-1.37474E-002	-3.38832E-002	6.15817E-001	-4.28033E-002	-5.22113E-004	3.18488E-005	-4.95511E-003	-6.28031E-003	1.24312E-004	3.06392E-004	-5.56858E-003	3.87053E-004
	150	150	4.99590E-002	-8.84261E-003	0.00000E+000	-4.41769E-004	-8.66513E-002	3.45110E-002	3.10950E+001	11	...........	5.75296E-002	-3.69542E-003	5.47930E-001	6.94349E-001	-1.77732E-002	-3.29536E-002	6.15763E-001	-4.27121E-002	-5.08712E-004	3.26771E-005	-4.84513E-003	-6.13986E-003	1.57161E-004	2.91396E-004	-5.44496E-003	3.77686E-004
	151	151	4.99619E-002	-8.85795E-003	0.00000E+000	-4.42560E-004	-8.68053E-002	3.45627E-002	3.08934E+001	11	...........	5.76449E-002	-3.59861E-003	5.48027E-001	6.94348E-001	-2.10378E-002	-3.23117E-002	6.15782E-001	-4.27954E-002	-5.10615E-004	3.18763E-005	-4.85440E-003	-6.15050E-003	1.86352E-004	2.86215E-004	-5.45457E-003	3.79080E-004
	152	152	4.99621E-002	-8.79703E-003	0.00000E+000	-4.39518E-004	-8.61993E-002	3.46366E-002	3.09383E+001	11	...........	5.77915E-002	-3.52875E-003	5.48142E-001	6.94418E-001	-2.36353E-002	-3.19292E-002	6.15846E-001	-4.27551E-002	-5.08394E-004	3.10425E-005	-4.82202E-003	-6.10882E-003	2.07920E-004	2.80882E-004	-5.41761E-003	3.76118E-004
	153	153	4.99630E-002	-8.66636E-003	0.00000E+000	-4.32998E-004	-8.49010E-002	3.46396E-002	3.07811E+001	11	...........	5.77946E-002	-3.52431E-003	5.48252E-001	6.94346E-001	-2.57633E-002	-3.18158E-002	6.15861E-001	-4.27839E-002	-5.00869E-004	3.05429E-005	-4.75135E-003	-6.01745E-003	2.23274E-004	2.75728E-004	-5.33728E-003	3.70781E-004
	154	154	4.99618E-002	-8.52888E-003	0.00000E+000	-4.26119E-004	-8.35310E-002	3.44457E-002	3.10223E+001	11	...........	5.75181E-002	-3.43375E-003	5.48152E-001	6.94265E-001	-2.75215E-002	-3.17556E-002	6.15860E-001	-4.27049E-002	-4.90565E-004	2.92860E-005	-4.67512E-003	-5.92130E-003	2.34728E-004	2.70839E-004	-5.25260E-003	3.64225E-004
	155	155	4.99592E-002	-8.41165E-003	0.00000E+000	-4.20240E-004	-8.23630E-002	3.45806E-002	3.08212E+001	11	...........	5.77282E-002	-3.37000E-003	5.48229E-001	6.94145E-001	-2.88794E-002	-3.18894E-002	6.15623E-001	-4.27583E-002	-4.85590E-004	2.83473E-005	-4.61151E-003	-5.83891E-003	2.42924E-004	2.68243E-004	-5.17841E-003	3.59668E-004
	156	156	4.99604E-002	-8.28473E-003	0.00000E+000	-4.13909E-004	-8.10990E-002	3.46960E-002	3.09426E+001	11	...........	5.78819E-002	-3.53875E-003	5.48308E-001	6.93984E-001	-2.99929E-002	-3.19900E-002	6.15607E-001	-4.29486E-002	-4.79537E-004	2.93176E-005	-4.54258E-003	-5.74947E-003	2.48483E-004	2.65029E-004	-5.10014E-003	3.55818E-004
	157	157	4.99622E-002	-8.19773E-003	0.00000E+000	-4.09576E-004	-8.02310E-002	3.46925E-002	3.07283E+001	11	...........	5.78912E-002	-3.55264E-003	5.48299E-001	6.93922E-001	-3.08471E-002	-3.21867E-002	6.15664E-001	-4.29343E-002	-4.74577E-004	2.91236E-005	-4.49481E-003	-5.68858E-003	2.52876E-004	2.63858E-004	-5.04705E-003	3.51964E-004
	158	158	4.99614E-002	-8.03795E-003	0.00000E+000	-4.01587E-004	-7.86480E-002	3.43018E-002	3.03346E+001	11	...........	5.72608E-002	-3.58708E-003	5.48287E-001	6.93920E-001	-3.15440E-002	-3.24601E-002	6.15677E-001	-4.28171E-002	-4.60260E-004	2.88328E-005	-4.40711E-003	-5.57769E-003	2.53549E-004	2.60913E-004	-4.94878E-003	3.44161E-004
	159	159	4.99615E-002	-8.16660E-003	0.00000E+000	-4.08015E-004	-7.99237E-002	3.50035E-002	3.08073E+001	11	...........	5.84074E-002	-3.50611E-003	5.48366E-001	6.93935E-001	-3.20762E-002	-3.27821E-002	6.15864E-001	-4.27990E-002	-4.76989E-004	2.86330E-005	-4.47828E-003	-5.66709E-003	2.61954E-004	2.67718E-004	-5.02951E-003	3.49522E-004
	160	160	4.99592E-002	-7.87300E-003	0.00000E+000	-3.93329E-004	-7.70163E-002	3.45507E-002	3.07186E+001	11	...........	5.76801E-002	-3.53083E-003	5.48290E-001	6.94054E-001	-3.25049E-002	-3.30694E-002	6.15887E-001	-4.28500E-002	-4.54116E-004	2.77983E-005	-4.31669E-003	-5.46429E-003	2.55911E-004	2.60356E-004	-4.84887E-003	3.37358E-004
	161	161	4.99630E-002	-7.82863E-003	0.00000E+000	-3.91142E-004	-7.65727E-002	3.46387E-002	3.04707E+001	11	...........	5.78240E-002	-3.62236E-003	5.48366E-001	6.93949E-001	-3.27971E-002	-3.33318E-002	6.15858E-001	-4.28207E-002	-4.52683E-004	2.83581E-005	-4.29296E-003	-5.43268E-003	2.56756E-004	2.60942E-004	-4.82133E-003	3.35228E-004
	162	162	4.99635E-002	-7.88962E-003	0.00000E+000	-3.94193E-004	-7.71630E-002	3.46607E-002	3.12478E+001	11	...........	5.78468E-002	-3.50764E-003	5.48316E-001	6.93872E-001	-3.30051E-002	-3.36300E-002	6.15807E-001	-4.29675E-002	-4.56389E-004	2.76739E-005	-4.32600E-003	-5.47439E-003	2.60398E-004	2.65328E-004	-4.85849E-003	3.38997E-004
	163	163	4.99584E-002	-7.74761E-003	0.00000E+000	-3.87058E-004	-7.57667E-002	3.46163E-002	3.04978E+001	11	...........	5.77240E-002	-3.42597E-003	5.48405E-001	6.93786E-001	-3.31551E-002	-3.39314E-002	6.15672E-001	-4.29661E-002	-4.47223E-004	2.65431E-005	-4.24883E-003	-5.37518E-003	2.56873E-004	2.62887E-004	-4.76999E-003	3.32885E-004
	164	164	4.99633E-002	-7.71843E-003	0.00000E+000	-3.85638E-004	-7.54837E-002	3.47775E-002	3.07270E+001	11	...........	5.80333E-002	-3.57292E-003	5.48467E-001	6.93590E-001	-3.32247E-002	-3.42544E-002	6.15586E-001	-4.29053E-002	-4.47926E-004	2.75773E-005	-4.23330E-003	-5.35343E-003	2.56443E-004	2.64390E-004	-4.75135E-003	3.31161E-004
	165	165	4.99628E-002	-7.65164E-003	0.00000E+000	-3.82297E-004	-7.48137E-002	3.47194E-002	3.14701E+001	11	...........	5.79540E-002	-3.58458E-003	5.48636E-001	6.93478E-001	-3.32650E-002	-3.45325E-002	6.15492E-001	-4.28850E-002	-4.43443E-004	2.74279E-005	-4.19796E-003	-5.30624E-003	2.54532E-004	2.64230E-004	-4.70952E-003	3.28141E-004
	166	166	4.99611E-002	-7.56356E-003	0.00000E+000	-3.77884E-004	-7.39340E-002	3.46023E-002	3.10577E+001	11	...........	5.77735E-002	-3.43625E-003	5.48677E-001	6.93499E-001	-3.32471E-002	-3.48072E-002	6.15519E-001	-4.29361E-002	-4.36973E-004	2.59903E-005	-4.14995E-003	-5.24532E-003	2.51466E-004	2.63267E-004	-4.65551E-003	3.24750E-004
	167	167	4.99605E-002	-7.50459E-003	0.00000E+000	-3.74934E-004	-7.33473E-002	3.46837E-002	3.07138E+001	11	...........	5.78801E-002	-3.41514E-003	5.48470E-001	6.93399E-001	-3.32010E-002	-3.50847E-002	6.15595E-001	-4.28481E-002	-4.34367E-004	2.56292E-005	-4.11605E-003	-5.20368E-003	2.49160E-004	2.63297E-004	-4.61979E-003	3.21557E-004
	168	168	4.99639E-002	-7.50580E-003	0.00000E+000	-3.75019E-004	-7.33510E-002	3.47296E-002	3.10062E+001	11	...........	5.79199E-002	-3.42083E-003	5.48486E-001	6.93309E-001	-3.31919E-002	-3.53704E-002	6.15756E-001	-4.29093E-002	-4.34735E-004	2.56761E-005	-4.11683E-003	-5.20384E-003	2.49132E-004	2.65483E-004	-4.62174E-003	3.22069E-004
	169	169	4.99610E-002	-7.36697E-003	0.00000E+000	-3.68061E-004	-7.19720E-002	3.46383E-002	3.08173E+001	11	...........	5.77726E-002	-3.48681E-003	5.48418E-001	6.93285E-001	-3.31818E-002	-3.56586E-002	6.15659E-001	-4.28874E-002	-4.25609E-004	2.56872E-005	-4.04018E-003	-5.10741E-003	2.44449E-004	2.62696E-004	-4.53555E-003	3.15950E-004
	170	170	4.99610E-002	-7.29313E-003	0.00000E+000	-3.64372E-004	-7.12353E-002	3.46713E-002	3.09121E+001	11	...........	5.78676E-002	-3.58153E-003	5.48503E-001	6.93153E-001	-3.31078E-002	-3.59642E-002	6.15796E-001	-4.28231E-002	-4.22036E-004	2.61205E-005	-4.00030E-003	-5.05525E-003	2.41459E-004	2.62291E-004	-4.49108E-003	3.12314E-004
	171	171	4.99617E-002	-7.27306E-003	0.00000E+000	-3.63374E-004	-7.10420E-002	3.47422E-002	3.10689E+001	11	...........	5.79968E-002	-3.50694E-003	5.48427E-001	6.93165E-001	-3.29987E-002	-3.62208E-002	6.15860E-001	-4.28328E-002	-4.21814E-004	2.55062E-005	-3.98874E-003	-5.04143E-003	2.40002E-004	2.63436E-004	-4.47918E-003	3.11525E-004
	172	172	4.99602E-002	-7.19836E-003	0.00000E+000	-3.59632E-004	-7.02923E-002	3.46763E-002	3.12592E+001	11	...........	5.78779E-002	-3.56944E-003	5.48257E-001	6.93128E-001	-3.29043E-002	-3.64307E-002	6.15763E-001	-4.30087E-002	-4.16626E-004	2.56942E-005	-3.94656E-003	-4.98939E-003	2.36857E-004	2.62241E-004	-4.43248E-003	3.09593E-004
	173	173	4.99603E-002	-7.07260E-003	0.00000E+000	-3.53349E-004	-6.90420E-002	3.46722E-002	3.06706E+001	11	...........	5.78396E-002	-3.55014E-003	5.48158E-001	6.92948E-001	-3.27999E-002	-3.66217E-002	6.15798E-001	-4.30569E-002	-4.09076E-004	2.51087E-005	-3.87690E-003	-4.90094E-003	2.31980E-004	2.59010E-004	-4.35529E-003	3.04524E-004
	174	174	4.99655E-002	-7.05148E-003	0.00000E+000	-3.52330E-004	-6.88300E-002	3.47892E-002	3.12444E+001	11	...........	5.80857E-002	-3.57750E-003	5.48226E-001	6.93035E-001	-3.27410E-002	-3.67889E-002	6.15924E-001	-4.29642E-002	-4.09590E-004	2.52267E-005	-3.86580E-003	-4.88692E-003	2.30872E-004	2.59416E-004	-4.34317E-003	3.02961E-004
	175	175	4.99599E-002	-6.97891E-003	0.00000E+000	-3.48665E-004	-6.81100E-002	3.46923E-002	3.13138E+001	11	...........	5.78860E-002	-3.55181E-003	5.48314E-001	6.92945E-001	-3.26117E-002	-3.70169E-002	6.16003E-001	-4.29893E-002	-4.03981E-004	2.47877E-005	-3.82663E-003	-4.83600E-003	2.27594E-004	2.58338E-004	-4.29903E-003	3.00018E-004
	176	176	4.99626E-002	-6.91890E-003	0.00000E+000	-3.45686E-004	-6.75123E-002	3.46602E-002	3.09997E+001	11	...........	5.78465E-002	-3.50194E-003	5.48239E-001	6.93081E-001	-3.24468E-002	-3.72133E-002	6.15868E-001	-4.29247E-002	-4.00234E-004	2.42296E-005	-3.79321E-003	-4.79535E-003	2.24496E-004	2.57475E-004	-4.26113E-003	2.96992E-004
	177	177	4.99616E-002	-6.89318E-003	0.00000E+000	-3.44394E-004	-6.72507E-002	3.48407E-002	3.08503E+001	11	...........	5.81529E-002	-3.52194E-003	5.48216E-001	6.93125E-001	-3.22897E-002	-3.73656E-002	6.15885E-001	-4.28869E-002	-4.00858E-004	2.42774E-005	-3.77895E-003	-4.77783E-003	2.22579E-004	2.57567E-004	-4.24540E-003	2.95627E-004
	178	178	4.99625E-002	-6.81634E-003	0.00000E+000	-3.40561E-004	-6.64823E-002	3.47457E-002	3.11302E+001	11	...........	5.79926E-002	-3.55542E-003	5.48174E-001	6.93122E-001	-3.21689E-002	-3.75189E-002	6.15738E-001	-4.28729E-002	-3.95298E-004	2.42349E-005	-3.73654E-003	-4.72456E-003	2.19274E-004	2.55741E-004	-4.19708E-003	2.92236E-004
	179	179	4.99604E-002	-6.72746E-003	0.00000E+000	-3.36107E-004	-6.55943E-002	3.46093E-002	3.13614E+001	11	...........	5.77407E-002	-3.51208E-003	5.48116E-001	6.93025E-001	-3.20883E-002	-3.76714E-002	6.15801E-001	-4.29960E-002	-3.88448E-004	2.36274E-005	-3.68743E-003	-4.66230E-003	2.15873E-004	2.53433E-004	-4.14278E-003	2.89254E-004
	180	180	4.99613E-002	-6.66087E-003	0.00000E+000	-3.32786E-004	-6.49317E-002	3.47748E-002	3.09170E+001	11	...........	5.80315E-002	-3.58403E-003	5.48067E-001	6.92818E-001	-3.20071E-002	-3.77501E-002	6.15802E-001	-4.28765E-002	-3.86540E-004	2.38727E-005	-3.65060E-003	-4.61477E-003	2.13195E-004	2.51449E-004	-4.10178E-003	2.85595E-004
	181	181	4.99625E-002	-6.63648E-003	0.00000E+000	-3.31575E-004	-6.46863E-002	3.47892E-002	3.11627E+001	11	...........	5.80533E-002	-3.57681E-003	5.48072E-001	6.92754E-001	-3.19282E-002	-3.78779E-002	6.15808E-001	-4.29867E-002	-3.85270E-004	2.37374E-005	-3.63727E-003	-4.59745E-003	2.11891E-004	2.51376E-004	-4.08680E-003	2.85280E-004
	182	182	4.99627E-002	-6.59287E-003	0.00000E+000	-3.29398E-004	-6.42550E-002	3.47392E-002	3.14601E+001	11	...........	5.79561E-002	-3.53736E-003	5.48131E-001	6.92659E-001	-3.19007E-002	-3.79612E-002	6.15802E-001	-4.29219E-002	-3.82097E-004	2.33214E-005	-3.61376E-003	-4.56661E-003	2.10317E-004	2.50274E-004	-4.05990E-003	2.82979E-004
	183	183	4.99608E-002	-6.54928E-003	0.00000E+000	-3.27208E-004	-6.38243E-002	3.47654E-002	3.10676E+001	11	...........	5.80247E-002	-3.40444E-003	5.48005E-001	6.92527E-001	-3.18165E-002	-3.80925E-002	6.15821E-001	-4.29744E-002	-3.80020E-004	2.22967E-005	-3.58904E-003	-4.53556E-003	2.08375E-004	2.49479E-004	-4.03319E-003	2.81452E-004
	184	184	4.99634E-002	-6.45953E-003	0.00000E+000	-3.22740E-004	-6.29423E-002	3.47099E-002	3.14167E+001	11	...........	5.79106E-002	-3.36264E-003	5.47921E-001	6.92487E-001	-3.17350E-002	-3.81807E-002	6.15835E-001	-4.29771E-002	-3.74075E-004	2.17211E-005	-3.53931E-003	-4.47314E-003	2.04993E-004	2.46629E-004	-3.97800E-003	2.77612E-004
	185	185	4.99607E-002	-6.36518E-003	0.00000E+000	-3.18009E-004	-6.20103E-002	3.47546E-002	3.09435E+001	11	...........	5.79825E-002	-3.50069E-003	5.47804E-001	6.92451E-001	-3.16740E-002	-3.82742E-002	6.15871E-001	-4.31324E-002	-3.69069E-004	2.22826E-005	-3.48687E-003	-4.40758E-003	2.01611E-004	2.43622E-004	-3.92013E-003	2.74545E-004
	186	186	4.99600E-002	-6.37391E-003	0.00000E+000	-3.18441E-004	-6.21000E-002	3.48209E-002	3.14960E+001	11	...........	5.81272E-002	-3.61014E-003	5.47946E-001	6.92425E-001	-3.15996E-002	-3.83389E-002	6.15863E-001	-4.29564E-002	-3.70497E-004	2.30107E-005	-3.49256E-003	-4.41345E-003	2.01413E-004	2.44368E-004	-3.92545E-003	2.73800E-004
	187	187	4.99625E-002	-6.24870E-003	0.00000E+000	-3.12201E-004	-6.08557E-002	3.47819E-002	3.07885E+001	11	...........	5.80786E-002	-3.52528E-003	5.48108E-001	6.92378E-001	-3.15332E-002	-3.84274E-002	6.15738E-001	-4.29561E-002	-3.62916E-004	2.20284E-005	-3.42497E-003	-4.32646E-003	1.97042E-004	2.40121E-004	-3.84757E-003	2.68420E-004
	188	188	4.99626E-002	-6.16087E-003	0.00000E+000	-3.07813E-004	-5.99753E-002	3.46744E-002	3.01936E+001	11	...........	5.78751E-002	-3.51625E-003	5.48281E-001	6.92221E-001	-3.16606E-002	-3.85024E-002	6.15904E-001	-4.28625E-002	-3.56561E-004	2.16632E-005	-3.37789E-003	-4.26468E-003	1.95057E-004	2.37208E-004	-3.79451E-003	2.64070E-004
	189	189	4.99610E-002	-6.13785E-003	0.00000E+000	-3.06653E-004	-5.97443E-002	3.46654E-002	3.07058E+001	11	...........	5.78371E-002	-3.55097E-003	5.48392E-001	6.92221E-001	-3.78121E-002	-3.83569E-002	6.16040E-001	-4.30035E-002	-3.54995E-004	2.17953E-005	-3.36595E-003	-4.24874E-003	2.32085E-004	2.35429E-004	-3.78116E-003	2.63949E-004
	190	190	4.99616E-002	-6.16470E-003	0.00000E+000	-3.07999E-004	-6.00143E-002	3.49112E-002	3.13580E+001	11	...........	5.82542E-002	-4.23139E-003	5.49945E-001	6.87444E-001	-3.56738E-001	-7.07960E-002	6.21916E-001	-4.47340E-002	-3.59120E-004	2.60853E-005	-3.39025E-003	-4.23789E-003	2.19919E-003	4.36436E-004	-3.83393E-003	2.75772E-004
	191	191	4.99634E-002	-6.06463E-003	0.00000E+000	-3.03009E-004	-5.90190E-002	3.48713E-002	3.10095E+001	11	...........	5.82439E-002	-3.23972E-003	5.48721E-001	6.91741E-001	-4.28404E-002	-6.92749E-002	6.13738E-001	-4.24537E-002	-3.53228E-004	1.96477E-005	-3.32779E-003	-4.19515E-003	2.59811E-004	4.20126E-004	-3.72210E-003	2.57466E-004
	192	192	4.99607E-002	-6.00971E-003	0.00000E+000	-3.00249E-004	-5.84713E-002	3.46847E-002	3.04334E+001	11	...........	5.78728E-002	-3.18306E-003	5.47933E-001	6.93428E-001	5.63250E-002	-6.42201E-002	6.13150E-001	-4.20981E-002	-3.47799E-004	1.91293E-005	-3.29292E-003	-4.16730E-003	-3.38497E-004	3.85945E-004	-3.68486E-003	2.52997E-004
	193	193	4.99606E-002	-5.97792E-003	0.00000E+000	-2.98661E-004	-5.81567E-002	3.48646E-002	3.09163E+001	11	...........	5.82131E-002	-3.24778E-003	5.48079E-001	6.93223E-001	3.87449E-002	-5.67258E-002	6.14461E-001	-4.25740E-002	-3.47993E-004	1.94150E-005	-3.27637E-003	-4.14403E-003	-2.31614E-004	3.39103E-004	-3.67320E-003	2.54504E-004
	194	194	4.99636E-002	-5.93610E-003	0.00000E+000	-2.96589E-004	-5.77363E-002	3.48339E-002	3.09750E+001	11	...........	5.81411E-002	-3.32972E-003	5.48215E-001	6.93101E-001	2.37511E-002	-5.03319E-002	6.15176E-001	-4.28368E-002	-3.45131E-004	1.97656E-005	-3.25426E-003	-4.11432E-003	-1.40989E-004	2.98775E-004	-3.65174E-003	2.54284E-004
	195	195	4.99624E-002	-5.89646E-003	0.00000E+000	-2.94601E-004	-5.73403E-002	3.48076E-002	3.11900E+001	11	...........	5.80849E-002	-3.34514E-003	5.48151E-001	6.92951E-001	1.28240E-002	-4.55843E-002	6.15633E-001	-4.29457E-002	-3.42495E-004	1.97245E-005	-3.23216E-003	-4.08596E-003	-7.56164E-005	2.68786E-004	-3.63006E-003	2.53228E-004
	196	196	4.99617E-002	-5.88062E-003	0.00000E+000	-2.93806E-004	-5.71867E-002	3.47398E-002	3.10328E+001	11	...........	5.79790E-002	-3.41153E-003	5.48053E-001	6.92995E-001	3.86097E-003	-4.22362E-002	6.15788E-001	-4.30176E-002	-3.40952E-004	2.00619E-005	-3.22289E-003	-4.07524E-003	-2.27049E-005	2.48375E-004	-3.62121E-003	2.52970E-004
	197	197	4.99609E-002	-5.79578E-003	0.00000E+000	-2.89562E-004	-5.63397E-002	3.48643E-002	3.04814E+001	11	...........	5.81837E-002	-3.42444E-003	5.47873E-001	6.92827E-001	-3.44153E-003	-3.96686E-002	6.15972E-001	-4.28996E-002	-3.37220E-004	1.98473E-005	-3.17535E-003	-4.01547E-003	1.99463E-005	2.29910E-004	-3.57004E-003	2.48636E-004
	198	198	4.99633E-002	-5.75830E-003	0.00000E+000	-2.87704E-004	-5.59730E-002	3.47526E-002	3.13058E+001	11	...........	5.79876E-002	-3.44486E-003	5.47745E-001	6.92750E-001	-9.30278E-003	-3.77307E-002	6.16040E-001	-4.28306E-002	-3.33910E-004	1.98365E-005	-3.15408E-003	-3.98906E-003	5.35682E-005	2.17265E-004	-3.54734E-003	2.46631E-004
	199	199	4.99616E-002	-5.75767E-003	0.00000E+000	-2.87662E-004	-5.59640E-002	3.48762E-002	3.15669E+001	11	...........	5.82435E-002	-3.46292E-003	5.47744E-001	6.92500E-001	-1.40021E-002	-3.63082E-002	6.15957E-001	-4.28321E-002	-3.35346E-004	1.99383E-005	-3.15373E-003	-3.98718E-003	8.06193E-005	2.09050E-004	-3.54648E-003	2.46613E-004
	200	200	4.99609E-002	-5.70802E-003	0.00000E+000	-2.85178E-004	-5.54697E-002	3.48584E-002	3.09381E+001	11	...........	5.81653E-002	-3.52708E-003	5.47708E-001	6.92259E-001	-1.78133E-002	-3.52681E-002	6.16073E-001	-4.29143E-002	-3.32009E-004	2.01327E-005	-3.12633E-003	-3.95143E-003	1.01679E-004	2.01311E-004	-3.51656E-003	2.44956E-004
	201	201	4.99636E-002	-5.61152E-003	0.00000E+000	-2.80372E-004	-5.45103E-002	3.47264E-002	3.07103E+001	11	...........	5.79799E-002	-3.50847E-003	5.47615E-001	6.92320E-001	-2.09115E-002	-3.45354E-002	6.16164E-001	-4.28796E-002	-3.25355E-004	1.96878E-005	-3.07295E-003	-3.88496E-003	1.17345E-004	1.93796E-004	-3.45761E-003	2.40619E-004
	202	202	4.99613E-002	-5.59809E-003	0.00000E+000	-2.79688E-004	-5.43737E-002	3.47712E-002	3.14399E+001	11	...........	5.80118E-002	-3.57181E-003	5.47742E-001	6.92506E-001	-2.32906E-002	-3.39989E-002	6.16253E-001	-4.29854E-002	-3.24755E-004	1.99953E-005	-3.06631E-003	-3.87671E-003	1.30383E-004	1.90329E-004	-3.44984E-003	2.40636E-004
	203	203	4.99617E-002	-5.62310E-003	0.00000E+000	-2.80939E-004	-5.46220E-002	3.49258E-002	3.10942E+001	11	...........	5.82944E-002	-3.59014E-003	5.47859E-001	6.92530E-001	-2.53871E-002	-3.36960E-002	6.16276E-001	-4.28860E-002	-3.27795E-004	2.01877E-005	-3.08067E-003	-3.89417E-003	1.42754E-004	1.89476E-004	-3.46538E-003	2.41152E-004
	204	204	4.99619E-002	-5.52169E-003	0.00000E+000	-2.75874E-004	-5.36110E-002	3.49424E-002	3.09275E+001	11	...........	5.83004E-002	-3.63931E-003	5.47864E-001	6.92448E-001	-2.70669E-002	-3.35285E-002	6.16314E-001	-4.30586E-002	-3.21917E-004	2.00951E-005	-3.02514E-003	-3.82349E-003	1.49455E-004	1.85134E-004	-3.40309E-003	2.37756E-004
	205	205	4.99619E-002	-5.43300E-003	0.00000E+000	-2.71443E-004	-5.27303E-002	3.47751E-002	3.06351E+001	11	...........	5.80897E-002	-3.57792E-003	5.47826E-001	6.92294E-001	-2.93558E-002	-3.34439E-002	6.16245E-001	-4.29496E-002	-3.15602E-004	1.94388E-005	-2.97634E-003	-3.76124E-003	1.59490E-004	1.81701E-004	-3.34806E-003	2.33345E-004
	206	206	4.99618E-002	-5.38807E-003	0.00000E+000	-2.69197E-004	-5.22827E-002	3.47627E-002	3.10947E+001	11	...........	5.79924E-002	-3.48000E-003	5.47801E-001	6.92315E-001	-3.04054E-002	-3.35103E-002	6.16137E-001	-4.28707E-002	-3.12467E-004	1.87505E-005	-2.95159E-003	-3.73024E-003	1.63827E-004	1.80556E-004	-3.31979E-003	2.30990E-004
	207	207	4.99624E-002	-5.39683E-003	0.00000E+000	-2.69639E-004	-5.23683E-002	3.49244E-002	3.08084E+001	11	...........	5.82928E-002	-3.50125E-003	5.48022E-001	6.92234E-001	-3.11211E-002	-3.35996E-002	6.16149E-001	-4.29118E-002	-3.14596E-004	1.88957E-005	-2.95758E-003	-3.73587E-003	1.67955E-004	1.81331E-004	-3.32525E-003	2.31588E-004
	208	208	4.99623E-002	-5.29754E-003	0.00000E+000	-2.64677E-004	-5.13853E-002	3.48089E-002	3.06399E+001	11	...........	5.80831E-002	-3.43861E-003	5.48177E-001	6.92176E-001	-3.17432E-002	-3.37414E-002	6.16086E-001	-4.32543E-002	-3.07697E-004	1.82162E-005	-2.90399E-003	-3.66683E-003	1.68161E-004	1.78746E-004	-3.26374E-003	2.29141E-004
	209	209	4.99622E-002	-5.32417E-003	0.00000E+000	-2.66007E-004	-5.16477E-002	3.49133E-002	3.14134E+001	11	...........	5.82137E-002	-3.40333E-003	5.48295E-001	6.92325E-001	-3.21964E-002	-3.39549E-002	6.16039E-001	-4.30737E-002	-3.09940E-004	1.81199E-005	-2.91922E-003	-3.68605E-003	1.71419E-004	1.80781E-004	-3.27990E-003	2.29332E-004
	210	210	4.99621E-002	-5.29219E-003	0.00000E+000	-2.64409E-004	-5.13317E-002	3.48654E-002	3.10955E+001	11	...........	5.81765E-002	-3.39653E-003	5.48356E-001	6.92475E-001	-3.25308E-002	-3.41771E-002	6.15974E-001	-4.30365E-002	-3.07881E-004	1.79751E-005	-2.90201E-003	-3.66471E-003	1.72159E-004	1.80872E-004	-3.25986E-003	2.27758E-004
	211	211	4.99602E-002	-5.28707E-003	0.00000E+000	-2.64143E-004	-5.12833E-002	3.49617E-002	3.12298E+001	11	...........	5.83533E-002	-3.34403E-003	5.48374E-001	6.92582E-001	-3.27476E-002	-3.43969E-002	6.15944E-001	-4.30417E-002	-3.08518E-004	1.76801E-005	-2.89929E-003	-3.66173E-003	1.73139E-004	1.81859E-004	-3.25654E-003	2.27564E-004
	212	212	4.99632E-002	-5.13911E-003	0.00000E+000	-2.56766E-004	-4.98207E-002	3.47338E-002	3.08004E+001	11	...........	5.79556E-002	-3.42819E-003	5.48473E-001	6.92772E-001	-3.29281E-002	-3.46644E-002	6.16009E-001	-4.31428E-002	-2.97840E-004	1.76179E-005	-2.81866E-003	-3.56023E-003	1.69221E-004	1.78144E-004	-3.16574E-003	2.21716E-004
	213	213	4.99627E-002	-5.16315E-003	0.00000E+000	-2.57965E-004	-5.00630E-002	3.48870E-002	3.09097E+001	11	...........	5.82446E-002	-3.45194E-003	5.48683E-001	6.92887E-001	-3.30037E-002	-3.49186E-002	6.15971E-001	-4.30849E-002	-3.00726E-004	1.78229E-005	-2.83294E-003	-3.57748E-003	1.70403E-004	1.80290E-004	-3.18035E-003	2.22454E-004
	214	214	4.99615E-002	-5.15741E-003	0.00000E+000	-2.57672E-004	-5.00067E-002	3.49469E-002	3.13758E+001	11	...........	5.83615E-002	-3.52139E-003	5.48721E-001	6.92978E-001	-3.30761E-002	-3.51406E-002	6.15911E-001	-4.31203E-002	-3.00994E-004	1.81612E-005	-2.82998E-003	-3.57397E-003	1.70587E-004	1.81234E-004	-3.17650E-003	2.22389E-004
	215	214.767	4.99605E-002	-5.11481E-003	0.00000E+000	-2.55538E-004	-4.95839E-002	3.48810E-002	3.11032E+001	11	...........	5.82214E-002	-3.39058E-003	5.48666E-001	6.92848E-001	-3.30768E-002	-3.53411E-002	6.15915E-001	-4.30830E-002	-2.97791E-004	1.73422E-005	-2.80632E-003	-3.54378E-003	1.69181E-004	1.80763E-004	-3.15029E-003	2.20361E-004
STARTTIMEOFFSET	QUANT	425568.6	Start Time Offset (s)
