EXPLAIN
TAG	PWR800_DISCHARGE
TITLE	LABEL	PWR Discharge	Test Identifier
DATE	LABEL	10/18/2022	Date
TIME	LABEL	0:43:17	Time
NOTES	NOTES	1	Notes...
	
PSTAT	PSTAT	REF3000-21114	Potentiostat
CAPACITY	QUANT	5.30000E-002	Capacity (A-hr)
CELLTYPE	SELECTOR	1	Cell Type
WORKINGCONNECTION	SELECTOR	0	Working Connection
MAXDISCHARGETIME	VARIABLEANDUNITS	7.20000E+003	s	2.00000E+000	hour(s)	Max Discharge Time
DISCHARGEMODE	MULTIPARAM	0	1.00000E-001	Discharge Mode	Constant Current	Amp(s)
VOLTAGEFINISH	TWOPARAM	T	5.00000E-003	7.20000E+003	Voltage Finish	I (A) <	Max Time(s)
SAMPLETIME	QUANT	1.00000E+000	Sample Period (s)
DISCHARGESTOPAT1	MULTIPARAM	1	5.00000E-002	Stop At 1	|Voltage| < Limit	V
DISCHARGESTOPAT2	MULTIPARAM	0	0.00000E+000	Stop At 2	None	N/A
AESELECTOR	AESELECTOR	0x1	T	Set Limits	AE Channels
AESBHCSELECTOR	TOGGLE	F	Save Both Half Cells
IRCOMP	TOGGLE	F	IR Measure
EOC	QUANT	0.5139792	Open Circuit (V)
SEQUENCER	TOGGLE	TRUE	Run as Sequence
PSTATMODEL	IQUANT	5	Pstat Model
PSTATSECTION	LABEL	REF3000-21114	Pstat Section
PSTATSERIALNO	LABEL	21114	Pstat Serial Number
CTRLMODE	IQUANT	0	Control Mode
ELECTROMETER	IQUANT	0	RE=0 or CS=1
IESTAB	IQUANT	0	I/E Stability
CASPEED	IQUANT	4	Control Amp Speed
CONVENTION	IQUANT	1	Current Convention
ICHRANGE	IQUANT	2	Ich Range
ICHRANGEMODE	TOGGLE	T	Ich Auto Range
ICHOFFSETENABLE	TOGGLE	F	Ich Offset Enable
ICHOFFSET	QUANT	0	Ich Offset (V)
ICHFILTER	IQUANT	1	Ich Filter
VCHRANGE	IQUANT	3	Vch Range
VCHRANGEMODE	TOGGLE	T	Vch Auto Range
VCHOFFSETENABLE	TOGGLE	F	Vch Offset Enable
VCHOFFSET	QUANT	0	Vch Offset (V)
VCHFILTER	IQUANT	1	Vch Filter
ACHRANGE	IQUANT	2	Ach Range
ACHOFFSETENABLE	TOGGLE	F	Ach Offset Enable
ACHOFFSET	QUANT	0	Ach Offset (V)
ACHFILTER	IQUANT	1	Ach Filter
IERANGELOWERLIMIT	IQUANT	9	I/E Range Lower Limit
IERANGEMODE	TOGGLE	F	I/E AutoRange
IERANGE	IQUANT	9	I/E Range
POSFEEDENABLE	TOGGLE	F	Positive Feedback IR Comp
POSFEEDRESISTANCE	QUANT	0	Positive Feedback Resistance (ohm)
ACHSELECT	IQUANT	1	Ach Select
SENSECABLEID	IQUANT	13	Sense Cable ID
PWRCABLEID	IQUANT	13	Power Cable ID
DCCALDATE	LABEL		DC Calibration Date
ACCALDATE	LABEL		AC Calibration Date
THERMOSELECT	IQUANT	1	Thermo Select
FRAMEWORKVERSION	LABEL	7.8.6	Framework Version
INSTRUMENTVERSION	LABEL	4.50	Instrument Version
COMPLIANCEVOLTAGE	IQUANT	0	Compliance Voltage
CURVE	TABLE	52
	Pt	T	Vf	Im	Vu	Pwr	Sig	Ach	Temp	IERange	Over	Vf1	Vf2	Vf3	Vf4	Vf5	Vf6	Vf7	Vf8	Pwr1	Pwr2	Pwr3	Pwr4	Pwr5	Pwr6	Pwr7	Pwr8
	#	s	V	A	V	W	V	V	deg C	#	bits	V	V	V	V	V	V	V	V	W	W	W	W	W	W	W	W
	0	1	2.69231E-001	-1.00093E-001	0.00000E+000	-2.69481E-002	-9.94000E-001	3.48688E-002	2.83341E+001	11	...........	5.78272E-002	-5.13194E-003	6.02566E-001	5.34021E-001	-2.72379E-002	-3.83244E-002	7.02024E-001	-4.38661E-002	-5.78808E-003	5.13670E-004	-6.03125E-002	-5.34516E-002	2.72632E-003	3.83600E-003	-7.02675E-002	4.39068E-003
	1	2	1.71141E-001	-1.00093E-001	0.00000E+000	-1.71300E-002	-9.94000E-001	3.49337E-002	2.80611E+001	11	...........	5.78962E-002	-5.12028E-003	6.02589E-001	5.33992E-001	-2.72579E-002	-3.83118E-002	7.02085E-001	-4.39014E-002	-5.79502E-003	5.12505E-004	-6.03150E-002	-5.34490E-002	2.72833E-003	3.83475E-003	-7.02739E-002	4.39423E-003
	2	2.91	8.72935E-002	-1.00093E-001	0.00000E+000	-8.73751E-003	-9.94000E-001	3.48668E-002	2.72337E+001	11	...........	5.78109E-002	-5.07311E-003	6.02569E-001	5.33983E-001	-2.72970E-002	-3.83071E-002	7.02017E-001	-4.38150E-002	-5.78649E-003	5.07785E-004	-6.03132E-002	-5.34482E-002	2.73225E-003	3.83429E-003	-7.02673E-002	4.38560E-003
	3	3	4.90841E-002	-9.73958E-002	0.00000E+000	-4.78059E-003	-9.67163E-001	3.49139E-002	2.69294E+001	11	...........	5.78565E-002	-5.05401E-003	6.02659E-001	5.34005E-001	-2.70525E-002	-3.83719E-002	7.02032E-001	-4.38194E-002	-5.63498E-003	4.92239E-004	-5.86964E-002	-5.20098E-002	2.63480E-003	3.73726E-003	-6.83750E-002	4.26783E-003
	4	4	4.93872E-002	-7.32427E-002	0.00000E+000	-3.61726E-003	-7.27025E-001	3.49960E-002	2.78495E+001	11	...........	5.80210E-002	-5.16875E-003	6.02613E-001	5.34092E-001	-2.72317E-002	-3.83312E-002	7.02038E-001	-4.37946E-002	-4.24961E-003	3.78573E-004	-4.41370E-002	-3.91183E-002	1.99452E-003	2.80748E-003	-5.14192E-002	3.20763E-003
	5	5	4.96542E-002	-4.83930E-002	0.00000E+000	-2.40292E-003	-4.79981E-001	3.51599E-002	2.92700E+001	11	...........	5.83037E-002	-5.18778E-003	6.02680E-001	5.33995E-001	-2.72572E-002	-3.83342E-002	7.02056E-001	-4.37326E-002	-2.82150E-003	2.51052E-004	-2.91655E-002	-2.58416E-002	1.31906E-003	1.85511E-003	-3.39746E-002	2.11635E-003
	6	6	4.97612E-002	-3.50548E-002	0.00000E+000	-1.74437E-003	-3.47371E-001	3.51715E-002	2.98671E+001	11	...........	5.82808E-002	-5.26444E-003	6.02770E-001	5.33923E-001	-2.73281E-002	-3.83474E-002	7.02011E-001	-4.38254E-002	-2.04302E-003	1.84544E-004	-2.11300E-002	-1.87165E-002	9.57978E-004	1.34426E-003	-2.46088E-002	1.53629E-003
	7	7	4.98139E-002	-2.71740E-002	0.00000E+000	-1.35364E-003	-2.69029E-001	3.51662E-002	3.03492E+001	11	...........	5.82811E-002	-5.33500E-003	6.02940E-001	5.33961E-001	-2.72937E-002	-3.83660E-002	7.01863E-001	-4.39710E-002	-1.58373E-003	1.44973E-004	-1.63843E-002	-1.45099E-002	7.41681E-004	1.04256E-003	-1.90724E-002	1.19487E-003
	8	8	4.98414E-002	-2.20579E-002	0.00000E+000	-1.09940E-003	-2.18159E-001	3.52584E-002	3.07593E+001	11	...........	5.84962E-002	-5.40472E-003	6.02808E-001	5.34056E-001	-2.73122E-002	-3.84128E-002	7.01952E-001	-4.38517E-002	-1.29031E-003	1.19217E-004	-1.32967E-002	-1.17802E-002	6.02451E-004	8.47306E-004	-1.54836E-002	9.67276E-004
	9	9	4.98567E-002	-1.85604E-002	0.00000E+000	-9.25360E-004	-1.83384E-001	3.52432E-002	3.10627E+001	11	...........	5.84751E-002	-5.34361E-003	6.02696E-001	5.33987E-001	-2.73592E-002	-3.84110E-002	7.02076E-001	-4.38785E-002	-1.08532E-003	9.91795E-005	-1.11863E-002	-9.91101E-003	5.07797E-004	7.12922E-004	-1.30308E-002	8.14401E-004
	10	10	4.98714E-002	-1.60876E-002	0.00000E+000	-8.02313E-004	-1.58791E-001	3.53397E-002	3.12445E+001	11	...........	5.86462E-002	-5.36431E-003	6.02685E-001	5.34004E-001	-2.72935E-002	-3.84193E-002	7.02019E-001	-4.40462E-002	-9.43480E-004	8.62990E-005	-9.69578E-003	-8.59087E-003	4.39088E-004	6.18076E-004	-1.12938E-002	7.08600E-004
	11	11	4.98789E-002	-1.42280E-002	0.00000E+000	-7.09677E-004	-1.40294E-001	3.52428E-002	3.06622E+001	11	...........	5.84661E-002	-5.36903E-003	6.02777E-001	5.33876E-001	-2.72801E-002	-3.84237E-002	7.01953E-001	-4.40353E-002	-8.31856E-004	7.63905E-005	-8.57631E-003	-7.59599E-003	3.88142E-004	5.46693E-004	-9.98739E-003	6.26534E-004
	12	12	4.98838E-002	-1.29384E-002	0.00000E+000	-6.45419E-004	-1.27485E-001	3.53454E-002	3.12528E+001	11	...........	5.86540E-002	-5.33444E-003	6.02830E-001	5.33653E-001	-2.73589E-002	-3.84754E-002	7.01986E-001	-4.39521E-002	-7.58892E-004	6.90194E-005	-7.79968E-003	-6.90464E-003	3.53982E-004	4.97812E-004	-9.08261E-003	5.68672E-004
	13	13	4.98869E-002	-1.19648E-002	0.00000E+000	-5.96885E-004	-1.17798E-001	3.52033E-002	3.17137E+001	11	...........	5.88681E-002	-5.21389E-003	6.02830E-001	5.33587E-001	-2.72899E-002	-3.84914E-002	7.02130E-001	-4.38815E-002	-7.04343E-004	6.23830E-005	-7.21272E-003	-6.38424E-003	3.26517E-004	4.60541E-004	-8.40082E-003	5.25032E-004
	14	14	4.98897E-002	-1.11476E-002	0.00000E+000	-5.56150E-004	-1.09653E-001	3.54247E-002	3.16197E+001	11	...........	5.88089E-002	-5.42208E-003	6.02917E-001	5.33622E-001	-2.72346E-002	-3.84810E-002	7.02216E-001	-4.38650E-002	-6.55577E-004	6.04432E-005	-6.72107E-003	-5.94860E-003	3.03600E-004	4.28970E-004	-7.82801E-003	4.88989E-004
	15	15	4.98902E-002	-1.04893E-002	0.00000E+000	-5.23316E-004	-1.03133E-001	3.54560E-002	3.16324E+001	11	...........	5.88496E-002	-5.41417E-003	6.02965E-001	5.33603E-001	-2.72864E-002	-3.85049E-002	7.02218E-001	-4.38515E-002	-6.17294E-004	5.67911E-005	-6.32471E-003	-5.59715E-003	2.86216E-004	4.03891E-004	-7.36581E-003	4.59974E-004
	16	16	4.98942E-002	-9.90083E-003	0.00000E+000	-4.93994E-004	-9.73113E-002	3.54167E-002	3.14640E+001	11	...........	5.87885E-002	-5.29014E-003	6.02835E-001	5.33633E-001	-2.72762E-002	-3.84768E-002	7.02096E-001	-4.39067E-002	-5.82054E-004	5.23767E-005	-5.96856E-003	-5.28341E-003	2.70057E-004	3.80952E-004	-6.95133E-003	4.34712E-004
	17	17	4.98953E-002	-9.44755E-003	0.00000E+000	-4.71388E-004	-9.27920E-002	3.54088E-002	3.14182E+001	11	...........	5.87444E-002	-5.22500E-003	6.02788E-001	5.33757E-001	-2.72419E-002	-3.84728E-002	7.02079E-001	-4.38408E-002	-5.54991E-004	4.93635E-005	-5.69488E-003	-5.04269E-003	2.57370E-004	3.63474E-004	-6.63293E-003	4.14189E-004
	18	18	4.98944E-002	-9.14551E-003	0.00000E+000	-4.56309E-004	-8.97727E-002	3.55653E-002	3.17188E+001	11	...........	5.90392E-002	-5.34292E-003	6.02834E-001	5.33886E-001	-2.72965E-002	-3.84808E-002	7.02030E-001	-4.38982E-002	-5.39943E-004	4.88637E-005	-5.51322E-003	-4.88266E-003	2.49641E-004	3.51927E-004	-6.42042E-003	4.01471E-004
	19	19	4.98967E-002	-8.79893E-003	0.00000E+000	-4.39038E-004	-8.63260E-002	3.54577E-002	3.17031E+001	11	...........	5.88937E-002	-5.26083E-003	6.02875E-001	5.33823E-001	-2.73050E-002	-3.84524E-002	7.02111E-001	-4.38125E-002	-5.18202E-004	4.62897E-005	-5.30465E-003	-4.69707E-003	2.40255E-004	3.38340E-004	-6.17783E-003	3.85503E-004
	20	20	4.98966E-002	-8.51436E-003	0.00000E+000	-4.24838E-004	-8.34927E-002	3.54386E-002	3.19338E+001	11	...........	5.89871E-002	-5.33486E-003	6.02998E-001	5.33705E-001	-2.72544E-002	-3.84200E-002	7.02198E-001	-4.37321E-002	-5.02237E-004	4.54230E-005	-5.13414E-003	-4.54416E-003	2.32054E-004	3.27122E-004	-5.97877E-003	3.72351E-004
	21	21	4.98971E-002	-8.29580E-003	0.00000E+000	-4.13937E-004	-8.13200E-002	3.54083E-002	3.20169E+001	11	...........	5.90375E-002	-5.22944E-003	6.03202E-001	5.33624E-001	-2.72944E-002	-3.84207E-002	7.02259E-001	-4.37761E-002	-4.89763E-004	4.33824E-005	-5.00404E-003	-4.42683E-003	2.26429E-004	3.18730E-004	-5.82580E-003	3.63158E-004
	22	22	4.98971E-002	-8.06144E-003	0.00000E+000	-4.02242E-004	-7.89913E-002	3.53258E-002	3.23022E+001	11	...........	5.89171E-002	-5.18333E-003	6.03232E-001	5.33625E-001	-2.73076E-002	-3.84399E-002	7.02184E-001	-4.39283E-002	-4.74956E-004	4.17851E-005	-4.86292E-003	-4.30178E-003	2.20139E-004	3.09881E-004	-5.66061E-003	3.54125E-004
	23	23	4.98970E-002	-7.85400E-003	0.00000E+000	-3.91891E-004	-7.69507E-002	3.54200E-002	3.23589E+001	11	...........	5.90515E-002	-5.22264E-003	6.03253E-001	5.33547E-001	-2.72401E-002	-3.84424E-002	7.02190E-001	-4.39740E-002	-4.63791E-004	4.10186E-005	-4.73795E-003	-4.19048E-003	2.13944E-004	3.01926E-004	-5.51500E-003	3.45372E-004
	24	24	4.98952E-002	-7.61886E-003	0.00000E+000	-3.80145E-004	-7.46107E-002	3.54288E-002	3.13917E+001	11	...........	5.90878E-002	-5.26931E-003	6.03079E-001	5.33455E-001	-2.72444E-002	-3.84239E-002	7.02209E-001	-4.39479E-002	-4.50182E-004	4.01461E-005	-4.59478E-003	-4.06432E-003	2.07572E-004	2.92746E-004	-5.35003E-003	3.34833E-004
	25	25	4.99002E-002	-7.48175E-003	0.00000E+000	-3.73341E-004	-7.32373E-002	3.53887E-002	3.20264E+001	11	...........	5.89924E-002	-5.30222E-003	6.02953E-001	5.33589E-001	-2.72975E-002	-3.84118E-002	7.02168E-001	-4.39878E-002	-4.41366E-004	3.96699E-005	-4.51114E-003	-3.99218E-003	2.04233E-004	2.87387E-004	-5.25344E-003	3.29105E-004
	26	26	4.98977E-002	-7.35225E-003	0.00000E+000	-3.66860E-004	-7.19567E-002	3.53894E-002	3.26545E+001	11	...........	5.90181E-002	-5.28847E-003	6.03038E-001	5.33481E-001	-2.72907E-002	-3.84485E-002	7.02178E-001	-4.39460E-002	-4.33915E-004	3.88821E-005	-4.43369E-003	-3.92228E-003	2.00648E-004	2.82683E-004	-5.16258E-003	3.23102E-004
	27	27	4.98959E-002	-7.14313E-003	0.00000E+000	-3.56413E-004	-6.98740E-002	3.54785E-002	3.14520E+001	11	...........	5.91379E-002	-5.38472E-003	6.03023E-001	5.33337E-001	-2.73033E-002	-3.84210E-002	7.02169E-001	-4.39194E-002	-4.22430E-004	3.84638E-005	-4.30747E-003	-3.80969E-003	1.95031E-004	2.74446E-004	-5.01569E-003	3.13722E-004
	28	28	4.99001E-002	-6.96361E-003	0.00000E+000	-3.47485E-004	-6.80873E-002	3.52657E-002	3.13008E+001	11	...........	5.88086E-002	-5.33806E-003	6.02908E-001	5.33295E-001	-2.73249E-002	-3.84185E-002	7.02268E-001	-4.38281E-002	-4.09520E-004	3.71721E-005	-4.19842E-003	-3.71366E-003	1.90280E-004	2.67531E-004	-4.89032E-003	3.05202E-004
	29	29	4.98977E-002	-6.92074E-003	0.00000E+000	-3.45329E-004	-6.76587E-002	3.56163E-002	3.19606E+001	11	...........	5.93596E-002	-5.41083E-003	6.02996E-001	5.33327E-001	-2.72997E-002	-3.84271E-002	7.02164E-001	-4.38737E-002	-4.10812E-004	3.74470E-005	-4.17318E-003	-3.69102E-003	1.88934E-004	2.65944E-004	-4.85949E-003	3.03639E-004
	30	30	4.98985E-002	-6.76677E-003	0.00000E+000	-3.37652E-004	-6.61240E-002	3.55388E-002	3.15756E+001	11	...........	5.92264E-002	-5.29583E-003	6.03019E-001	5.33184E-001	-2.72683E-002	-3.84425E-002	7.02040E-001	-4.37400E-002	-4.00771E-004	3.58357E-005	-4.08049E-003	-3.60794E-003	1.84519E-004	2.60132E-004	-4.75054E-003	2.95979E-004
	31	31	4.98974E-002	-6.64819E-003	0.00000E+000	-3.31727E-004	-6.49393E-002	3.55292E-002	3.21817E+001	11	...........	5.92006E-002	-5.23250E-003	6.02860E-001	5.33337E-001	-2.73181E-002	-3.84624E-002	7.02082E-001	-4.37072E-002	-3.93576E-004	3.47866E-005	-4.00792E-003	-3.54573E-003	1.81616E-004	2.55705E-004	-4.66757E-003	2.90574E-004
	32	32	4.98980E-002	-6.51650E-003	0.00000E+000	-3.25160E-004	-6.36073E-002	3.55473E-002	3.16885E+001	11	...........	5.92351E-002	-5.37361E-003	6.02795E-001	5.33275E-001	-2.73337E-002	-3.84310E-002	7.02102E-001	-4.37989E-002	-3.86006E-004	3.50171E-005	-3.92811E-003	-3.47508E-003	1.78120E-004	2.50435E-004	-4.57524E-003	2.85415E-004
	33	33	4.98998E-002	-6.41829E-003	0.00000E+000	-3.20271E-004	-6.26467E-002	3.54796E-002	3.20375E+001	11	...........	5.91546E-002	-5.35681E-003	6.02891E-001	5.33202E-001	-2.73160E-002	-3.84357E-002	7.02126E-001	-4.38511E-002	-3.79671E-004	3.43815E-005	-3.86953E-003	-3.42225E-003	1.75322E-004	2.46692E-004	-4.50645E-003	2.81449E-004
	34	34	4.98984E-002	-6.31554E-003	0.00000E+000	-3.15135E-004	-6.16220E-002	3.55397E-002	3.22262E+001	11	...........	5.92156E-002	-5.34653E-003	6.02894E-001	5.33231E-001	-2.73481E-002	-3.84072E-002	7.02130E-001	-4.38200E-002	-3.73978E-004	3.37662E-005	-3.80760E-003	-3.36764E-003	1.72718E-004	2.42562E-004	-4.43433E-003	2.76747E-004
	35	35	4.98991E-002	-6.22915E-003	0.00000E+000	-3.10829E-004	-6.07553E-002	3.55668E-002	3.20755E+001	11	...........	5.92461E-002	-5.30306E-003	6.02835E-001	5.33240E-001	-2.73321E-002	-3.84099E-002	7.02236E-001	-4.36744E-002	-3.69053E-004	3.30335E-005	-3.75515E-003	-3.32163E-003	1.70256E-004	2.39261E-004	-4.37433E-003	2.72054E-004
	36	36	4.98981E-002	-6.11033E-003	0.00000E+000	-3.04894E-004	-5.95767E-002	3.54946E-002	3.22412E+001	11	...........	5.91315E-002	-5.19125E-003	6.02819E-001	5.33177E-001	-2.72671E-002	-3.84469E-002	7.02304E-001	-4.36969E-002	-3.61313E-004	3.17203E-005	-3.68342E-003	-3.25789E-003	1.66611E-004	2.34924E-004	-4.29131E-003	2.67003E-004
	37	37	4.98990E-002	-6.02205E-003	0.00000E+000	-3.00494E-004	-5.87007E-002	3.55790E-002	3.18600E+001	11	...........	5.92929E-002	-5.16986E-003	6.02800E-001	5.33314E-001	-2.72883E-002	-3.84450E-002	7.02144E-001	-4.38119E-002	-3.57065E-004	3.11331E-005	-3.63009E-003	-3.21164E-003	1.64332E-004	2.31518E-004	-4.22834E-003	2.63838E-004
	38	38	4.98990E-002	-5.95126E-003	0.00000E+000	-2.96962E-004	-5.79960E-002	3.55892E-002	3.25610E+001	11	...........	5.93035E-002	-5.18778E-003	6.02781E-001	5.33252E-001	-2.72981E-002	-3.84290E-002	7.02270E-001	-4.38018E-002	-3.52931E-004	3.08738E-005	-3.58731E-003	-3.17353E-003	1.62458E-004	2.28701E-004	-4.17939E-003	2.60676E-004
	39	39	4.98991E-002	-5.86955E-003	0.00000E+000	-2.92885E-004	-5.71813E-002	3.55714E-002	3.23063E+001	11	...........	5.92543E-002	-5.20528E-003	6.02722E-001	5.33164E-001	-2.72856E-002	-3.84592E-002	7.02343E-001	-4.38464E-002	-3.47796E-004	3.05526E-005	-3.53770E-003	-3.12943E-003	1.60154E-004	2.25738E-004	-4.12243E-003	2.57358E-004
	40	40	4.98984E-002	-5.77990E-003	0.00000E+000	-2.88407E-004	-5.62960E-002	3.55886E-002	3.25798E+001	11	...........	5.92943E-002	-5.25847E-003	6.02590E-001	5.33384E-001	-2.73108E-002	-3.84483E-002	7.02464E-001	-4.37603E-002	-3.42715E-004	3.03934E-005	-3.48291E-003	-3.08291E-003	1.57854E-004	2.22227E-004	-4.06017E-003	2.52930E-004
	41	41	4.98985E-002	-5.67985E-003	0.00000E+000	-2.83416E-004	-5.52973E-002	3.55937E-002	3.19437E+001	11	...........	5.93021E-002	-5.19611E-003	6.02377E-001	5.33418E-001	-2.72633E-002	-3.84301E-002	7.02379E-001	-4.36583E-002	-3.36827E-004	2.95131E-005	-3.42141E-003	-3.02973E-003	1.54852E-004	2.18277E-004	-3.98941E-003	2.47973E-004
	42	42	4.98992E-002	-5.60646E-003	0.00000E+000	-2.79758E-004	-5.45693E-002	3.55740E-002	3.21349E+001	11	...........	5.92517E-002	-5.27458E-003	6.02377E-001	5.33324E-001	-2.72339E-002	-3.84603E-002	7.02201E-001	-4.37222E-002	-3.32192E-004	2.95717E-005	-3.37720E-003	-2.99006E-003	1.52686E-004	2.15626E-004	-3.93686E-003	2.45127E-004
	43	43	4.98998E-002	-5.56546E-003	0.00000E+000	-2.77715E-004	-5.41600E-002	3.56467E-002	3.27524E+001	11	...........	5.93944E-002	-5.33361E-003	6.02516E-001	5.33106E-001	-2.72972E-002	-3.84611E-002	7.02195E-001	-4.37592E-002	-3.30558E-004	2.96840E-005	-3.35328E-003	-2.96698E-003	1.51922E-004	2.14054E-004	-3.90804E-003	2.43540E-004
	44	44	4.98983E-002	-5.47541E-003	0.00000E+000	-2.73213E-004	-5.32693E-002	3.55835E-002	3.25677E+001	11	...........	5.92949E-002	-5.32861E-003	6.02574E-001	5.33120E-001	-2.73097E-002	-3.84849E-002	7.02189E-001	-4.39682E-002	-3.24664E-004	2.91763E-005	-3.29934E-003	-2.91905E-003	1.49532E-004	2.10720E-004	-3.84477E-003	2.40744E-004
	45	45	4.98986E-002	-5.39992E-003	0.00000E+000	-2.69449E-004	-5.25187E-002	3.56330E-002	3.23228E+001	11	...........	5.93781E-002	-5.26000E-003	6.02592E-001	5.33088E-001	-2.72775E-002	-3.84850E-002	7.02227E-001	-4.40222E-002	-3.20637E-004	2.84036E-005	-3.25395E-003	-2.87863E-003	1.47296E-004	2.07816E-004	-3.79197E-003	2.37717E-004
	46	46	4.98996E-002	-5.32980E-003	0.00000E+000	-2.65955E-004	-5.18273E-002	3.56459E-002	3.27428E+001	11	...........	5.94092E-002	-5.29972E-003	6.02595E-001	5.33092E-001	-2.72875E-002	-3.84885E-002	7.02232E-001	-4.38440E-002	-3.16639E-004	2.82465E-005	-3.21171E-003	-2.84128E-003	1.45437E-004	2.05136E-004	-3.74276E-003	2.33680E-004
	47	47	4.98989E-002	-5.24383E-003	0.00000E+000	-2.61661E-004	-5.09820E-002	3.55476E-002	3.25452E+001	11	...........	5.92443E-002	-5.25347E-003	6.02631E-001	5.33003E-001	-2.73133E-002	-3.84782E-002	7.02120E-001	-4.37874E-002	-3.10667E-004	2.75483E-005	-3.16009E-003	-2.79497E-003	1.43226E-004	2.01773E-004	-3.68179E-003	2.29613E-004
	48	48	4.98996E-002	-5.19878E-003	0.00000E+000	-2.59417E-004	-5.05460E-002	3.56054E-002	3.23145E+001	11	...........	5.93299E-002	-5.23236E-003	6.02516E-001	5.32982E-001	-2.72329E-002	-3.84657E-002	7.02175E-001	-4.37326E-002	-3.08443E-004	2.72019E-005	-3.13235E-003	-2.77086E-003	1.41578E-004	1.99975E-004	-3.65046E-003	2.27356E-004
	49	49	4.98990E-002	-5.15169E-003	0.00000E+000	-2.57065E-004	-5.00773E-002	3.56762E-002	3.31187E+001	11	...........	5.94547E-002	-5.22014E-003	6.02488E-001	5.32975E-001	-2.72765E-002	-3.84681E-002	7.02165E-001	-4.36894E-002	-3.06292E-004	2.68926E-005	-3.10384E-003	-2.74572E-003	1.40520E-004	1.98176E-004	-3.61734E-003	2.25075E-004
	50	50	4.98990E-002	-5.10337E-003	0.00000E+000	-2.54653E-004	-4.95940E-002	3.56584E-002	3.28244E+001	11	...........	5.94318E-002	-5.18139E-003	6.02539E-001	5.32992E-001	-2.72856E-002	-3.84617E-002	7.02137E-001	-4.38912E-002	-3.03302E-004	2.64425E-005	-3.07498E-003	-2.72006E-003	1.39248E-004	1.96284E-004	-3.58327E-003	2.23993E-004
	51	50.0683	4.98917E-002	-5.03361E-003	0.00000E+000	-2.51136E-004	-4.89073E-002	3.55939E-002	3.20878E+001	11	...........	5.92602E-002	-5.10976E-003	6.02492E-001	5.33014E-001	-2.72520E-002	-3.84451E-002	7.02098E-001	-4.39634E-002	-2.98293E-004	2.57205E-005	-3.03271E-003	-2.68299E-003	1.37176E-004	1.93518E-004	-3.53409E-003	2.21295E-004
STARTTIMEOFFSET	QUANT	966688	Start Time Offset (s)
