EXPLAIN
TAG	PWR800_DISCHARGE
TITLE	LABEL	PWR Discharge	Test Identifier
DATE	LABEL	10/15/2022	Date
TIME	LABEL	19:51:04	Time
NOTES	NOTES	1	Notes...
	
PSTAT	PSTAT	REF3000-21114	Potentiostat
CAPACITY	QUANT	5.30000E-002	Capacity (A-hr)
CELLTYPE	SELECTOR	1	Cell Type
WORKINGCONNECTION	SELECTOR	0	Working Connection
MAXDISCHARGETIME	VARIABLEANDUNITS	7.20000E+003	s	2.00000E+000	hour(s)	Max Discharge Time
DISCHARGEMODE	MULTIPARAM	0	1.00000E-001	Discharge Mode	Constant Current	Amp(s)
VOLTAGEFINISH	TWOPARAM	T	5.00000E-003	7.20000E+003	Voltage Finish	I (A) <	Max Time(s)
SAMPLETIME	QUANT	1.00000E+000	Sample Period (s)
DISCHARGESTOPAT1	MULTIPARAM	1	5.00000E-002	Stop At 1	|Voltage| < Limit	V
DISCHARGESTOPAT2	MULTIPARAM	0	0.00000E+000	Stop At 2	None	N/A
AESELECTOR	AESELECTOR	0x1	T	Set Limits	AE Channels
AESBHCSELECTOR	TOGGLE	F	Save Both Half Cells
IRCOMP	TOGGLE	F	IR Measure
EOC	QUANT	0.5546049	Open Circuit (V)
SEQUENCER	TOGGLE	TRUE	Run as Sequence
PSTATMODEL	IQUANT	5	Pstat Model
PSTATSECTION	LABEL	REF3000-21114	Pstat Section
PSTATSERIALNO	LABEL	21114	Pstat Serial Number
CTRLMODE	IQUANT	0	Control Mode
ELECTROMETER	IQUANT	0	RE=0 or CS=1
IESTAB	IQUANT	0	I/E Stability
CASPEED	IQUANT	4	Control Amp Speed
CONVENTION	IQUANT	1	Current Convention
ICHRANGE	IQUANT	2	Ich Range
ICHRANGEMODE	TOGGLE	T	Ich Auto Range
ICHOFFSETENABLE	TOGGLE	F	Ich Offset Enable
ICHOFFSET	QUANT	0	Ich Offset (V)
ICHFILTER	IQUANT	1	Ich Filter
VCHRANGE	IQUANT	3	Vch Range
VCHRANGEMODE	TOGGLE	T	Vch Auto Range
VCHOFFSETENABLE	TOGGLE	F	Vch Offset Enable
VCHOFFSET	QUANT	0	Vch Offset (V)
VCHFILTER	IQUANT	1	Vch Filter
ACHRANGE	IQUANT	2	Ach Range
ACHOFFSETENABLE	TOGGLE	F	Ach Offset Enable
ACHOFFSET	QUANT	0	Ach Offset (V)
ACHFILTER	IQUANT	1	Ach Filter
IERANGELOWERLIMIT	IQUANT	9	I/E Range Lower Limit
IERANGEMODE	TOGGLE	F	I/E AutoRange
IERANGE	IQUANT	9	I/E Range
POSFEEDENABLE	TOGGLE	F	Positive Feedback IR Comp
POSFEEDRESISTANCE	QUANT	0	Positive Feedback Resistance (ohm)
ACHSELECT	IQUANT	1	Ach Select
SENSECABLEID	IQUANT	13	Sense Cable ID
PWRCABLEID	IQUANT	13	Power Cable ID
DCCALDATE	LABEL		DC Calibration Date
ACCALDATE	LABEL		AC Calibration Date
THERMOSELECT	IQUANT	1	Thermo Select
FRAMEWORKVERSION	LABEL	7.8.6	Framework Version
INSTRUMENTVERSION	LABEL	4.50	Instrument Version
COMPLIANCEVOLTAGE	IQUANT	0	Compliance Voltage
CURVE	TABLE	151
	Pt	T	Vf	Im	Vu	Pwr	Sig	Ach	Temp	IERange	Over	Vf1	Vf2	Vf3	Vf4	Vf5	Vf6	Vf7	Vf8	Pwr1	Pwr2	Pwr3	Pwr4	Pwr5	Pwr6	Pwr7	Pwr8
	#	s	V	A	V	W	V	V	deg C	#	bits	V	V	V	V	V	V	V	V	W	W	W	W	W	W	W	W
	0	1	3.16379E-001	-1.00092E-001	0.00000E+000	-3.16670E-002	-9.94000E-001	3.57728E-002	3.01373E+001	11	...........	5.92386E-002	-4.02889E-003	5.69625E-001	6.15007E-001	-2.87603E-002	-3.88040E-002	6.50811E-001	-4.32050E-002	-5.92930E-003	4.03259E-004	-5.70148E-002	-6.15571E-002	2.87867E-003	3.88396E-003	-6.51408E-002	4.32447E-003
	1	2	2.22849E-001	-1.00092E-001	0.00000E+000	-2.23055E-002	-9.94000E-001	3.58038E-002	2.94180E+001	11	...........	5.93051E-002	-4.02736E-003	5.69833E-001	6.14937E-001	-2.87621E-002	-3.87935E-002	6.50808E-001	-4.31554E-002	-5.93599E-003	4.03108E-004	-5.70360E-002	-6.15505E-002	2.87887E-003	3.88293E-003	-6.51410E-002	4.31953E-003
	2	3	1.45310E-001	-1.00093E-001	0.00000E+000	-1.45445E-002	-9.94000E-001	3.57452E-002	2.85091E+001	11	...........	5.92561E-002	-4.11083E-003	5.69987E-001	6.15075E-001	-2.87296E-002	-3.87611E-002	6.50811E-001	-4.32778E-002	-5.93111E-003	4.11465E-004	-5.70517E-002	-6.15646E-002	2.87563E-003	3.87971E-003	-6.51415E-002	4.33180E-003
	3	3.90833	7.93198E-002	-1.00093E-001	0.00000E+000	-7.93937E-003	-9.94000E-001	3.57169E-002	2.79923E+001	11	...........	5.92079E-002	-4.22875E-003	5.70110E-001	6.14931E-001	-2.87277E-002	-3.87709E-002	6.50791E-001	-4.32734E-002	-5.92631E-003	4.23269E-004	-5.70641E-002	-6.15504E-002	2.87544E-003	3.88071E-003	-6.51397E-002	4.33137E-003
	4	4	4.93053E-002	-9.78076E-002	0.00000E+000	-4.82243E-003	-9.71258E-001	3.55273E-002	2.74481E+001	11	...........	5.91076E-002	-4.16061E-003	5.70161E-001	6.14982E-001	-2.88167E-002	-3.87333E-002	6.50830E-001	-4.31864E-002	-5.78117E-003	4.06939E-004	-5.57661E-002	-6.01499E-002	2.81849E-003	3.78842E-003	-6.36562E-002	4.22396E-003
	5	5	4.95414E-002	-7.81924E-002	0.00000E+000	-3.87376E-003	-7.76251E-001	3.57059E-002	2.80898E+001	11	...........	5.93518E-002	-4.12722E-003	5.70217E-001	6.14833E-001	-2.87589E-002	-3.87990E-002	6.50737E-001	-4.31528E-002	-4.64086E-003	3.22717E-004	-4.45866E-002	-4.80753E-002	2.24873E-003	3.03379E-003	-5.08827E-002	3.37422E-003
	6	6	4.97389E-002	-5.79782E-002	0.00000E+000	-2.88377E-003	-5.75289E-001	3.57940E-002	2.90452E+001	11	...........	5.94535E-002	-4.06222E-003	5.70022E-001	6.14733E-001	-2.87471E-002	-3.87990E-002	6.50752E-001	-4.31853E-002	-3.44700E-003	2.35520E-004	-3.30488E-002	-3.56411E-002	1.66670E-003	2.24950E-003	-3.77294E-002	2.50380E-003
	7	7	4.98268E-002	-4.74369E-002	0.00000E+000	-2.36362E-003	-4.70506E-001	3.59306E-002	3.04780E+001	11	...........	5.96811E-002	-4.10861E-003	5.70117E-001	6.14757E-001	-2.87597E-002	-3.87847E-002	6.50921E-001	-4.31404E-002	-2.83108E-003	1.94900E-004	-2.70446E-002	-2.91621E-002	1.36427E-003	1.83983E-003	-3.08777E-002	2.04645E-003
	8	8	4.98592E-002	-4.07292E-002	0.00000E+000	-2.03073E-003	-4.03823E-001	3.59187E-002	3.04162E+001	11	...........	5.96417E-002	-4.19181E-003	5.70017E-001	6.14735E-001	-2.87981E-002	-3.87451E-002	6.50827E-001	-4.31858E-002	-2.42916E-003	1.70729E-004	-2.32163E-002	-2.50377E-002	1.17292E-003	1.57806E-003	-2.65076E-002	1.75892E-003
	9	9	4.98901E-002	-3.64158E-002	0.00000E+000	-1.81679E-003	-3.60935E-001	3.60146E-002	3.10463E+001	11	...........	5.98222E-002	-4.12181E-003	5.70068E-001	6.14714E-001	-2.88092E-002	-3.87549E-002	6.50871E-001	-4.32078E-002	-2.17847E-003	1.50099E-004	-2.07595E-002	-2.23853E-002	1.04911E-003	1.41129E-003	-2.37020E-002	1.57344E-003
	10	10	4.99046E-002	-3.35047E-002	0.00000E+000	-1.67204E-003	-3.31986E-001	3.60568E-002	3.11408E+001	11	...........	5.98765E-002	-4.31222E-003	5.69937E-001	6.14572E-001	-2.87810E-002	-3.87956E-002	6.50932E-001	-4.32099E-002	-2.00614E-003	1.44480E-004	-1.90956E-002	-2.05910E-002	9.64297E-004	1.29983E-003	-2.18093E-002	1.44773E-003
	11	11	4.99100E-002	-3.12583E-002	0.00000E+000	-1.56010E-003	-3.09662E-001	3.60254E-002	3.12681E+001	11	...........	5.98094E-002	-4.32569E-003	5.69806E-001	6.14651E-001	-2.88021E-002	-3.88178E-002	6.50898E-001	-4.32889E-002	-1.86954E-003	1.35214E-004	-1.78111E-002	-1.92129E-002	9.00303E-004	1.21338E-003	-2.03460E-002	1.35314E-003
	12	12	4.99105E-002	-2.97422E-002	0.00000E+000	-1.48445E-003	-2.94601E-001	3.61631E-002	3.15121E+001	11	...........	6.00768E-002	-4.28417E-003	5.69839E-001	6.14682E-001	-2.87733E-002	-3.87831E-002	6.50841E-001	-4.33031E-002	-1.78682E-003	1.27421E-004	-1.69483E-002	-1.82820E-002	8.55782E-004	1.15349E-003	-1.93574E-002	1.28793E-003
	13	13	4.99238E-002	-2.84186E-002	0.00000E+000	-1.41876E-003	-2.81436E-001	3.61646E-002	3.17313E+001	11	...........	6.00679E-002	-4.38319E-003	5.69922E-001	6.14718E-001	-2.87675E-002	-3.87569E-002	6.50773E-001	-4.32936E-002	-1.70705E-003	1.24564E-004	-1.61964E-002	-1.74694E-002	8.17532E-004	1.10142E-003	-1.84941E-002	1.23034E-003
	14	14	4.99224E-002	-2.71469E-002	0.00000E+000	-1.35523E-003	-2.68791E-001	3.61657E-002	3.15977E+001	11	...........	6.00858E-002	-4.13542E-003	5.69933E-001	6.14797E-001	-2.87731E-002	-3.87797E-002	6.50824E-001	-4.32971E-002	-1.63114E-003	1.12264E-004	-1.54719E-002	-1.66898E-002	7.81098E-004	1.05275E-003	-1.76678E-002	1.17538E-003
	15	15	4.99271E-002	-2.62990E-002	0.00000E+000	-1.31303E-003	-2.60348E-001	3.61702E-002	3.15787E+001	11	...........	6.00768E-002	-4.17472E-003	5.69903E-001	6.14815E-001	-2.87736E-002	-3.87871E-002	6.50826E-001	-4.32950E-002	-1.57996E-003	1.09791E-004	-1.49879E-002	-1.61690E-002	7.56717E-004	1.02006E-003	-1.71161E-002	1.13861E-003
	16	16	4.99222E-002	-2.57615E-002	0.00000E+000	-1.28607E-003	-2.55005E-001	3.63415E-002	3.19302E+001	11	...........	6.03710E-002	-4.35264E-003	5.69756E-001	6.14920E-001	-2.87754E-002	-3.87783E-002	6.50899E-001	-4.30936E-002	-1.55525E-003	1.12131E-004	-1.46778E-002	-1.58413E-002	7.41298E-004	9.98989E-004	-1.67681E-002	1.11016E-003
	17	17	4.99284E-002	-2.51050E-002	0.00000E+000	-1.25345E-003	-2.48484E-001	3.63293E-002	3.22714E+001	11	...........	6.03547E-002	-4.25958E-003	5.69652E-001	6.15056E-001	-2.87889E-002	-3.87828E-002	6.50974E-001	-4.32529E-002	-1.51521E-003	1.06937E-004	-1.43011E-002	-1.54410E-002	7.22746E-004	9.73643E-004	-1.63427E-002	1.08587E-003
	18	18	4.99275E-002	-2.42674E-002	0.00000E+000	-1.21161E-003	-2.40152E-001	3.62676E-002	3.18030E+001	11	...........	6.02481E-002	-4.30000E-003	5.69782E-001	6.15112E-001	-2.88260E-002	-3.88111E-002	6.51113E-001	-4.32957E-002	-1.46206E-003	1.04350E-004	-1.38271E-002	-1.49272E-002	6.99530E-004	9.41843E-004	-1.58008E-002	1.05067E-003
	19	19	4.99275E-002	-2.38362E-002	0.00000E+000	-1.19008E-003	-2.35856E-001	3.63621E-002	3.19678E+001	11	...........	6.03915E-002	-4.49986E-003	5.69962E-001	6.15188E-001	-2.88272E-002	-3.88178E-002	6.51048E-001	-4.33124E-002	-1.43951E-003	1.07260E-004	-1.35857E-002	-1.46638E-002	6.87132E-004	9.25270E-004	-1.55185E-002	1.03240E-003
	20	20	4.99207E-002	-2.32984E-002	0.00000E+000	-1.16307E-003	-2.30512E-001	3.62775E-002	3.23705E+001	11	...........	6.04274E-002	-4.48153E-003	5.69975E-001	6.14995E-001	-2.88571E-002	-3.88267E-002	6.50983E-001	-4.33051E-002	-1.40786E-003	1.04413E-004	-1.32795E-002	-1.43284E-002	6.72325E-004	9.04600E-004	-1.51669E-002	1.00894E-003
	21	21	4.99234E-002	-2.26508E-002	0.00000E+000	-1.13081E-003	-2.24079E-001	3.63159E-002	3.12941E+001	11	...........	6.06171E-002	-4.39750E-003	5.70116E-001	6.14869E-001	-2.88804E-002	-3.88122E-002	6.51013E-001	-4.32947E-002	-1.37303E-003	9.96071E-005	-1.29136E-002	-1.39273E-002	6.54166E-004	8.79129E-004	-1.47460E-002	9.80662E-004
	22	22	4.99438E-002	-2.21483E-002	0.00000E+000	-1.10617E-003	-2.19081E-001	3.61627E-002	3.17589E+001	11	...........	6.03425E-002	-4.38625E-003	5.70244E-001	6.14976E-001	-2.89115E-002	-3.88554E-002	6.50926E-001	-4.32958E-002	-1.33648E-003	9.71478E-005	-1.26299E-002	-1.36206E-002	6.40340E-004	8.60580E-004	-1.44169E-002	9.58927E-004
	23	23	4.99287E-002	-2.20746E-002	0.00000E+000	-1.10216E-003	-2.18351E-001	3.61874E-002	3.21246E+001	11	...........	6.03935E-002	-4.41236E-003	5.70266E-001	6.15135E-001	-2.89151E-002	-3.88981E-002	6.51040E-001	-4.33164E-002	-1.33316E-003	9.74013E-005	-1.25884E-002	-1.35789E-002	6.38291E-004	8.58661E-004	-1.43715E-002	9.56194E-004
	24	24	4.99325E-002	-2.17447E-002	0.00000E+000	-1.08577E-003	-2.15060E-001	3.64407E-002	3.22169E+001	11	...........	6.07947E-002	-4.40208E-003	5.70105E-001	6.15114E-001	-2.89014E-002	-3.88886E-002	6.51098E-001	-4.33096E-002	-1.32196E-003	9.57221E-005	-1.23968E-002	-1.33755E-002	6.28453E-004	8.45622E-004	-1.41580E-002	9.41755E-004
	25	25	4.99283E-002	-2.13855E-002	0.00000E+000	-1.06774E-003	-2.11484E-001	3.63507E-002	3.21444E+001	11	...........	6.06567E-002	-4.36569E-003	5.70014E-001	6.15098E-001	-2.88671E-002	-3.88636E-002	6.51115E-001	-4.33057E-002	-1.29717E-003	9.33625E-005	-1.21900E-002	-1.31542E-002	6.17337E-004	8.31118E-004	-1.39244E-002	9.26114E-004
	26	26	4.99297E-002	-2.08687E-002	0.00000E+000	-1.04197E-003	-2.06347E-001	3.63712E-002	3.22643E+001	11	...........	6.06792E-002	-4.40944E-003	5.69962E-001	6.15087E-001	-2.88796E-002	-3.88772E-002	6.51113E-001	-4.33237E-002	-1.26630E-003	9.20194E-005	-1.18944E-002	-1.28361E-002	6.02679E-004	8.11317E-004	-1.35879E-002	9.04110E-004
	27	27	4.99323E-002	-2.07088E-002	0.00000E+000	-1.03404E-003	-2.04766E-001	3.63636E-002	3.21310E+001	11	...........	6.06672E-002	-4.32042E-003	5.69910E-001	6.14915E-001	-2.88932E-002	-3.89208E-002	6.51253E-001	-4.33154E-002	-1.25634E-003	8.94706E-005	-1.18021E-002	-1.27341E-002	5.98343E-004	8.06003E-004	-1.34866E-002	8.97009E-004
	28	28	4.99319E-002	-2.03288E-002	0.00000E+000	-1.01506E-003	-2.00996E-001	3.63440E-002	3.23197E+001	11	...........	6.06346E-002	-4.19736E-003	5.69813E-001	6.14954E-001	-2.88757E-002	-3.89426E-002	6.51358E-001	-4.33135E-002	-1.23263E-003	8.53273E-005	-1.15836E-002	-1.25013E-002	5.87008E-004	7.91657E-004	-1.32413E-002	8.80511E-004
	29	29	4.99316E-002	-2.01737E-002	0.00000E+000	-1.00731E-003	-1.99452E-001	3.64696E-002	3.25346E+001	11	...........	6.08222E-002	-4.21986E-003	5.69757E-001	6.14846E-001	-2.88589E-002	-3.89032E-002	6.51255E-001	-4.33444E-002	-1.22701E-003	8.51304E-005	-1.14941E-002	-1.24038E-002	5.82192E-004	7.84823E-004	-1.31383E-002	8.74420E-004
	30	30	4.99308E-002	-1.97834E-002	0.00000E+000	-9.87799E-004	-1.95573E-001	3.63893E-002	3.25581E+001	11	...........	6.07157E-002	-4.30500E-003	5.69820E-001	6.14762E-001	-2.88764E-002	-3.89215E-002	6.51154E-001	-4.33287E-002	-1.20116E-003	8.51674E-005	-1.12730E-002	-1.21621E-002	5.71272E-004	7.69999E-004	-1.28820E-002	8.57188E-004
	31	31	4.99294E-002	-1.93694E-002	0.00000E+000	-9.67105E-004	-1.91454E-001	3.63100E-002	3.20797E+001	11	...........	6.06183E-002	-4.31736E-003	5.69800E-001	6.14708E-001	-2.88846E-002	-3.89197E-002	6.51159E-001	-4.33149E-002	-1.17414E-003	8.36249E-005	-1.10367E-002	-1.19065E-002	5.59478E-004	7.53853E-004	-1.26126E-002	8.38984E-004
	32	32	4.99327E-002	-1.92229E-002	0.00000E+000	-9.59852E-004	-1.89994E-001	3.64693E-002	3.25446E+001	11	...........	6.08675E-002	-4.45361E-003	5.69867E-001	6.14718E-001	-2.88831E-002	-3.89429E-002	6.51152E-001	-4.33365E-002	-1.17005E-003	8.56114E-005	-1.09545E-002	-1.18167E-002	5.55216E-004	7.48596E-004	-1.25170E-002	8.33054E-004
	33	33	4.99290E-002	-1.89426E-002	0.00000E+000	-9.45785E-004	-1.87203E-001	3.63972E-002	3.25975E+001	11	...........	6.07244E-002	-4.36236E-003	5.69882E-001	6.14798E-001	-2.88685E-002	-3.88915E-002	6.51149E-001	-4.33285E-002	-1.15028E-003	8.26345E-005	-1.07951E-002	-1.16459E-002	5.46844E-004	7.36707E-004	-1.23345E-002	8.20755E-004
	34	34	4.99311E-002	-1.85267E-002	0.00000E+000	-9.25056E-004	-1.83065E-001	3.65060E-002	3.24819E+001	11	...........	6.08992E-002	-4.16056E-003	5.69954E-001	6.14713E-001	-2.88786E-002	-3.88625E-002	6.51099E-001	-4.33318E-002	-1.12826E-003	7.70812E-005	-1.05593E-002	-1.13886E-002	5.35024E-004	7.19992E-004	-1.20627E-002	8.02793E-004
	35	35	4.99325E-002	-1.83393E-002	0.00000E+000	-9.15727E-004	-1.81199E-001	3.64742E-002	3.26028E+001	11	...........	6.08915E-002	-4.21125E-003	5.69992E-001	6.14604E-001	-2.88937E-002	-3.89183E-002	6.51073E-001	-4.33142E-002	-1.11671E-003	7.72314E-005	-1.04533E-002	-1.12714E-002	5.29891E-004	7.13735E-004	-1.19402E-002	7.94351E-004
	36	36	4.99327E-002	-1.82517E-002	0.00000E+000	-9.11356E-004	-1.80334E-001	3.65004E-002	3.31271E+001	11	...........	6.09090E-002	-4.40208E-003	5.69913E-001	6.14541E-001	-2.88635E-002	-3.89078E-002	6.50966E-001	-4.33176E-002	-1.11169E-003	8.03454E-005	-1.04019E-002	-1.12164E-002	5.26807E-004	7.10133E-004	-1.18812E-002	7.90620E-004
	37	37	4.99249E-002	-1.79008E-002	0.00000E+000	-8.93696E-004	-1.76865E-001	3.65079E-002	3.22373E+001	11	...........	6.08961E-002	-4.15083E-003	5.69977E-001	6.14604E-001	-2.88701E-002	-3.89153E-002	6.51037E-001	-4.33074E-002	-1.09009E-003	7.43033E-005	-1.02030E-002	-1.10019E-002	5.16799E-004	6.96615E-004	-1.16541E-002	7.75237E-004
	38	38	4.99342E-002	-1.74702E-002	0.00000E+000	-8.72359E-004	-1.72565E-001	3.65627E-002	3.20054E+001	11	...........	6.10106E-002	-4.05528E-003	5.70017E-001	6.14676E-001	-2.88453E-002	-3.88842E-002	6.51131E-001	-4.32078E-002	-1.06586E-003	7.08464E-005	-9.95829E-003	-1.07385E-002	5.03932E-004	6.79313E-004	-1.13754E-002	7.54847E-004
	39	39	4.99345E-002	-1.72522E-002	0.00000E+000	-8.61481E-004	-1.70400E-001	3.64649E-002	3.30218E+001	11	...........	6.08564E-002	-4.13542E-003	5.70098E-001	6.14650E-001	-2.88160E-002	-3.89082E-002	6.51105E-001	-4.32347E-002	-1.04991E-003	7.13450E-005	-9.83545E-003	-1.06041E-002	4.97139E-004	6.71252E-004	-1.12330E-002	7.45894E-004
	40	40	4.99293E-002	-1.72053E-002	0.00000E+000	-8.59051E-004	-1.69930E-001	3.65919E-002	3.29146E+001	11	...........	6.10464E-002	-4.08153E-003	5.70284E-001	6.14740E-001	-2.88015E-002	-3.89625E-002	6.51176E-001	-4.33154E-002	-1.05032E-003	7.02241E-005	-9.81193E-003	-1.05768E-002	4.95540E-004	6.70363E-004	-1.12037E-002	7.45256E-004
	41	41	4.99350E-002	-1.69014E-002	0.00000E+000	-8.43972E-004	-1.66920E-001	3.65583E-002	3.26391E+001	11	...........	6.09907E-002	-4.03861E-003	5.70453E-001	6.14935E-001	-2.88176E-002	-3.89692E-002	6.51111E-001	-4.33069E-002	-1.03083E-003	6.82583E-005	-9.64147E-003	-1.03933E-002	4.87059E-004	6.58635E-004	-1.10047E-002	7.31949E-004
	42	42	4.99311E-002	-1.64472E-002	0.00000E+000	-8.21229E-004	-1.62382E-001	3.65177E-002	3.25761E+001	11	...........	6.09225E-002	-4.00528E-003	5.70434E-001	6.14987E-001	-2.87842E-002	-3.89579E-002	6.51072E-001	-4.33082E-002	-1.00201E-003	6.58757E-005	-9.38205E-003	-1.01148E-002	4.73420E-004	6.40750E-004	-1.07083E-002	7.12300E-004
	43	43	4.99354E-002	-1.64133E-002	0.00000E+000	-8.19603E-004	-1.62042E-001	3.65712E-002	3.25709E+001	11	...........	6.10471E-002	-4.05208E-003	5.70260E-001	6.15158E-001	-2.87879E-002	-3.89565E-002	6.51020E-001	-4.32708E-002	-1.00198E-003	6.65079E-005	-9.35982E-003	-1.00968E-002	4.72504E-004	6.39404E-004	-1.06854E-002	7.10216E-004
	44	44	4.99294E-002	-1.62172E-002	0.00000E+000	-8.09717E-004	-1.60090E-001	3.65583E-002	3.32862E+001	11	...........	6.10114E-002	-4.07083E-003	5.70173E-001	6.15058E-001	-2.87817E-002	-3.89762E-002	6.51171E-001	-4.32564E-002	-9.89435E-004	6.60176E-005	-9.24663E-003	-9.97453E-003	4.66759E-004	6.32087E-004	-1.05602E-002	7.01499E-004
	45	45	4.99315E-002	-1.60241E-002	0.00000E+000	-8.00109E-004	-1.58171E-001	3.66205E-002	3.30076E+001	11	...........	6.11072E-002	-4.10167E-003	5.70082E-001	6.15021E-001	-2.88204E-002	-3.89340E-002	6.51225E-001	-4.33250E-002	-9.79191E-004	6.57257E-005	-9.13507E-003	-9.85518E-003	4.61822E-004	6.23884E-004	-1.04353E-002	6.94246E-004
	46	46	4.99332E-002	-1.57866E-002	0.00000E+000	-7.88276E-004	-1.55811E-001	3.67102E-002	3.28680E+001	11	...........	6.12633E-002	-4.12500E-003	5.70202E-001	6.15061E-001	-2.88144E-002	-3.89264E-002	6.51211E-001	-4.33167E-002	-9.67141E-004	6.51198E-005	-9.00157E-003	-9.70973E-003	4.54883E-004	6.14516E-004	-1.02804E-002	6.83824E-004
	47	47	4.99293E-002	-1.55955E-002	0.00000E+000	-7.78671E-004	-1.53915E-001	3.65680E-002	3.26846E+001	11	...........	6.09958E-002	-4.10861E-003	5.70227E-001	6.15001E-001	-2.88103E-002	-3.88971E-002	6.51388E-001	-4.33143E-002	-9.51258E-004	6.40757E-005	-8.89295E-003	-9.59122E-003	4.49309E-004	6.06618E-004	-1.01587E-002	6.75506E-004
	48	48	4.99371E-002	-1.54541E-002	0.00000E+000	-7.71731E-004	-1.52520E-001	3.66585E-002	3.32913E+001	11	...........	6.11879E-002	-4.04139E-003	5.70315E-001	6.15030E-001	-2.88199E-002	-3.89428E-002	6.51322E-001	-4.33392E-002	-9.45602E-004	6.24559E-005	-8.81368E-003	-9.50470E-003	4.45384E-004	6.01824E-004	-1.00656E-002	6.69766E-004
	49	49	4.99287E-002	-1.52051E-002	0.00000E+000	-7.59172E-004	-1.50041E-001	3.66042E-002	3.29468E+001	11	...........	6.11031E-002	-4.01542E-003	5.70155E-001	6.14707E-001	-2.88442E-002	-3.89511E-002	6.51325E-001	-4.33481E-002	-9.29080E-004	6.10549E-005	-8.66928E-003	-9.34670E-003	4.38579E-004	5.92256E-004	-9.90347E-003	6.59113E-004
	50	50	4.99311E-002	-1.48758E-002	0.00000E+000	-7.42765E-004	-1.46767E-001	3.66109E-002	3.26657E+001	11	...........	6.10885E-002	-4.01472E-003	5.70215E-001	6.14498E-001	-2.88154E-002	-3.89262E-002	6.51374E-001	-4.33351E-002	-9.08740E-004	5.97222E-005	-8.48241E-003	-9.14115E-003	4.28652E-004	5.79059E-004	-9.68971E-003	6.44645E-004
	51	51	4.99360E-002	-1.47897E-002	0.00000E+000	-7.38539E-004	-1.45908E-001	3.67102E-002	3.35433E+001	11	...........	6.12849E-002	-4.00694E-003	5.70207E-001	6.14515E-001	-2.88383E-002	-3.88960E-002	6.51396E-001	-4.33342E-002	-9.06385E-004	5.92616E-005	-8.43319E-003	-9.08850E-003	4.26511E-004	5.75260E-004	-9.63396E-003	6.40900E-004
	52	52	4.99324E-002	-1.47022E-002	0.00000E+000	-7.34115E-004	-1.45041E-001	3.67264E-002	3.39177E+001	11	...........	6.13178E-002	-4.02319E-003	5.69900E-001	6.14617E-001	-2.88212E-002	-3.88924E-002	6.51379E-001	-4.33371E-002	-9.01506E-004	5.91498E-005	-8.37878E-003	-9.03623E-003	4.23736E-004	5.71803E-004	-9.57670E-003	6.37150E-004
	53	53	4.99297E-002	-1.43719E-002	0.00000E+000	-7.17584E-004	-1.41750E-001	3.66122E-002	3.27256E+001	11	...........	6.11056E-002	-3.98958E-003	5.70016E-001	6.14728E-001	-2.88515E-002	-3.88924E-002	6.51360E-001	-4.33325E-002	-8.78203E-004	5.73379E-005	-8.19221E-003	-8.83481E-003	4.14651E-004	5.58957E-004	-9.36128E-003	6.22770E-004
	54	54	4.99295E-002	-1.41521E-002	0.00000E+000	-7.06608E-004	-1.39571E-001	3.67782E-002	3.25677E+001	11	...........	6.13894E-002	-4.01250E-003	5.70339E-001	6.14721E-001	-2.88289E-002	-3.88828E-002	6.51370E-001	-4.33257E-002	-8.68790E-004	5.67854E-005	-8.07150E-003	-8.69961E-003	4.07990E-004	5.50274E-004	-9.21827E-003	6.13150E-004
	55	55	4.99395E-002	-1.40123E-002	0.00000E+000	-6.99770E-004	-1.38166E-001	3.66918E-002	3.34650E+001	11	...........	6.12614E-002	-4.06833E-003	5.70427E-001	6.14746E-001	-2.88171E-002	-3.88796E-002	6.51349E-001	-4.33349E-002	-8.58416E-004	5.70069E-005	-7.99302E-003	-8.61403E-003	4.03795E-004	5.44794E-004	-9.12694E-003	6.07223E-004
	56	56	4.99274E-002	-1.39950E-002	0.00000E+000	-6.98735E-004	-1.37996E-001	3.67904E-002	3.33434E+001	11	...........	6.13983E-002	-4.31347E-003	5.70562E-001	6.14774E-001	-2.88251E-002	-3.89022E-002	6.51270E-001	-4.32685E-002	-8.59272E-004	6.03672E-005	-7.98504E-003	-8.60378E-003	4.03409E-004	5.44438E-004	-9.11454E-003	6.05544E-004
	57	57	4.99357E-002	-1.36853E-002	0.00000E+000	-6.83387E-004	-1.34912E-001	3.67759E-002	3.30801E+001	11	...........	6.13628E-002	-4.28944E-003	5.70503E-001	6.15053E-001	-2.88207E-002	-3.88993E-002	6.51290E-001	-4.33078E-002	-8.39769E-004	5.87024E-005	-7.80752E-003	-8.41720E-003	3.94420E-004	5.32349E-004	-8.91311E-003	5.92681E-004
	58	58	4.99334E-002	-1.34106E-002	0.00000E+000	-6.69635E-004	-1.32180E-001	3.67112E-002	3.33893E+001	11	...........	6.12487E-002	-4.16514E-003	5.70557E-001	6.15092E-001	-2.88150E-002	-3.88717E-002	6.51145E-001	-4.33287E-002	-8.21381E-004	5.58569E-005	-7.65150E-003	-8.24874E-003	3.86426E-004	5.21291E-004	-8.73223E-003	5.81063E-004
	59	59	4.99319E-002	-1.33414E-002	0.00000E+000	-6.66164E-004	-1.31493E-001	3.67281E-002	3.29852E+001	11	...........	6.13043E-002	-4.17236E-003	5.70563E-001	6.14998E-001	-2.88151E-002	-3.88703E-002	6.51250E-001	-4.33386E-002	-8.17888E-004	5.56653E-005	-7.61214E-003	-8.20496E-003	3.84435E-004	5.18585E-004	-8.68861E-003	5.78199E-004
	60	60	4.99333E-002	-1.32192E-002	0.00000E+000	-6.60077E-004	-1.30275E-001	3.67851E-002	3.35520E+001	11	...........	6.13926E-002	-4.19528E-003	5.70590E-001	6.14798E-001	-2.88026E-002	-3.88649E-002	6.51252E-001	-4.33131E-002	-8.11560E-004	5.54581E-005	-7.54272E-003	-8.12713E-003	3.80747E-004	5.13761E-004	-8.60902E-003	5.72563E-004
	61	61	4.99308E-002	-1.30508E-002	0.00000E+000	-6.51636E-004	-1.28607E-001	3.68144E-002	3.32146E+001	11	...........	6.14531E-002	-4.34958E-003	5.70585E-001	6.14700E-001	-2.87725E-002	-3.88761E-002	6.51293E-001	-4.32796E-002	-8.02010E-004	5.67654E-005	-7.44658E-003	-8.02232E-003	3.75504E-004	5.07363E-004	-8.49988E-003	5.64832E-004
	62	62	4.99298E-002	-1.27588E-002	0.00000E+000	-6.37042E-004	-1.25702E-001	3.67354E-002	3.26847E+001	11	...........	6.13257E-002	-4.23417E-003	5.70664E-001	6.14757E-001	-2.88096E-002	-3.89040E-002	6.51345E-001	-4.32783E-002	-7.82440E-004	5.40227E-005	-7.28096E-003	-7.84354E-003	3.67574E-004	4.96367E-004	-8.31036E-003	5.52178E-004
	63	63	4.99384E-002	-1.26513E-002	0.00000E+000	-6.31786E-004	-1.24635E-001	3.68131E-002	3.35075E+001	11	...........	6.14426E-002	-4.16167E-003	5.70777E-001	6.14984E-001	-2.88158E-002	-3.88964E-002	6.51238E-001	-4.33168E-002	-7.77330E-004	5.26505E-005	-7.22107E-003	-7.78036E-003	3.64558E-004	4.92090E-004	-8.23901E-003	5.48014E-004
	64	64	4.99345E-002	-1.26255E-002	0.00000E+000	-6.30448E-004	-1.24376E-001	3.68435E-002	3.33312E+001	11	...........	6.14751E-002	-4.19889E-003	5.70778E-001	6.15173E-001	-2.87944E-002	-3.89018E-002	6.51277E-001	-4.33336E-002	-7.76154E-004	5.30130E-005	-7.20635E-003	-7.76686E-003	3.63544E-004	4.91154E-004	-8.22269E-003	5.47108E-004
	65	65	4.99298E-002	-1.22871E-002	0.00000E+000	-6.13492E-004	-1.21008E-001	3.68121E-002	3.30259E+001	11	...........	6.14312E-002	-4.18139E-003	5.70912E-001	6.15204E-001	-2.88244E-002	-3.89129E-002	6.51255E-001	-4.33392E-002	-7.54811E-004	5.13771E-005	-7.01484E-003	-7.55906E-003	3.54168E-004	4.78126E-004	-8.00203E-003	5.32512E-004
	66	66	4.99333E-002	-1.21367E-002	0.00000E+000	-6.06026E-004	-1.19511E-001	3.67507E-002	3.26596E+001	11	...........	6.13471E-002	-4.24194E-003	5.71006E-001	6.15261E-001	-2.88129E-002	-3.88829E-002	6.51321E-001	-4.33283E-002	-7.44552E-004	5.14832E-005	-6.93014E-003	-7.46724E-003	3.49694E-004	4.71911E-004	-7.90489E-003	5.25863E-004
	67	67	4.99349E-002	-1.21208E-002	0.00000E+000	-6.05252E-004	-1.19360E-001	3.69688E-002	3.39071E+001	11	...........	6.17156E-002	-4.32708E-003	5.71109E-001	6.15213E-001	-2.88193E-002	-3.89050E-002	6.51365E-001	-4.33265E-002	-7.48044E-004	5.24478E-005	-6.92232E-003	-7.45689E-003	3.49314E-004	4.71561E-004	-7.89508E-003	5.25153E-004
	68	68	4.99284E-002	-1.19542E-002	0.00000E+000	-5.96854E-004	-1.17706E-001	3.68760E-002	3.31644E+001	11	...........	6.15650E-002	-4.29444E-003	5.71004E-001	6.15175E-001	-2.87915E-002	-3.89201E-002	6.51415E-001	-4.33203E-002	-7.35961E-004	5.13367E-005	-6.82590E-003	-7.35394E-003	3.44180E-004	4.65260E-004	-7.78715E-003	5.17860E-004
	69	69	4.99364E-002	-1.17361E-002	0.00000E+000	-5.86059E-004	-1.15535E-001	3.68423E-002	3.32049E+001	11	...........	6.14987E-002	-4.15458E-003	5.70911E-001	6.15152E-001	-2.88075E-002	-3.89168E-002	6.51395E-001	-4.33307E-002	-7.21757E-004	4.87587E-005	-6.70028E-003	-7.21950E-003	3.38088E-004	4.56732E-004	-7.64486E-003	5.08534E-004
	70	70	4.99328E-002	-1.16523E-002	0.00000E+000	-5.81832E-004	-1.14709E-001	3.68868E-002	3.37662E+001	11	...........	6.15686E-002	-4.27306E-003	5.70906E-001	6.14977E-001	-2.88525E-002	-3.89058E-002	6.51226E-001	-4.32386E-002	-7.17417E-004	4.97910E-005	-6.65237E-003	-7.16590E-003	3.36198E-004	4.53343E-004	-7.58829E-003	5.03830E-004
	71	71	4.99322E-002	-1.14742E-002	0.00000E+000	-5.72930E-004	-1.12919E-001	3.69228E-002	3.35193E+001	11	...........	6.16108E-002	-4.49181E-003	5.70962E-001	6.14951E-001	-2.88853E-002	-3.88976E-002	6.51231E-001	-4.32831E-002	-7.06933E-004	5.15397E-005	-6.55131E-003	-7.05606E-003	3.31434E-004	4.46318E-004	-7.47233E-003	4.96637E-004
	72	72	4.99339E-002	-1.13075E-002	0.00000E+000	-5.64628E-004	-1.11263E-001	3.68282E-002	3.27757E+001	11	...........	6.14621E-002	-4.50111E-003	5.71027E-001	6.14936E-001	-2.88985E-002	-3.89314E-002	6.51382E-001	-4.32653E-002	-6.94983E-004	5.08963E-005	-6.45689E-003	-6.95340E-003	3.26770E-004	4.40217E-004	-7.36550E-003	4.89222E-004
	73	73	4.99311E-002	-1.12851E-002	0.00000E+000	-5.63475E-004	-1.11038E-001	3.70169E-002	3.34046E+001	11	...........	6.17556E-002	-4.37889E-003	5.70997E-001	6.14703E-001	-2.88512E-002	-3.89150E-002	6.51361E-001	-4.33179E-002	-6.96916E-004	4.94161E-005	-6.44374E-003	-6.93696E-003	3.25588E-004	4.39158E-004	-7.35066E-003	4.88846E-004
	74	74	4.99370E-002	-1.11386E-002	0.00000E+000	-5.56229E-004	-1.09584E-001	3.68818E-002	3.37096E+001	11	...........	6.15361E-002	-4.33569E-003	5.70844E-001	6.14905E-001	-2.88615E-002	-3.89094E-002	6.51416E-001	-4.33146E-002	-6.85427E-004	4.82936E-005	-6.35842E-003	-6.84919E-003	3.21477E-004	4.33397E-004	-7.25588E-003	4.82465E-004
	75	75	4.99318E-002	-1.10042E-002	0.00000E+000	-5.49460E-004	-1.08249E-001	3.69041E-002	3.39004E+001	11	...........	6.16128E-002	-4.36736E-003	5.70855E-001	6.14911E-001	-2.88606E-002	-3.89311E-002	6.51422E-001	-4.31649E-002	-6.77999E-004	4.80593E-005	-6.28181E-003	-6.76660E-003	3.17587E-004	4.28406E-004	-7.16838E-003	4.74995E-004
	76	76	4.99325E-002	-1.08427E-002	0.00000E+000	-5.41404E-004	-1.06642E-001	3.69533E-002	3.33938E+001	11	...........	6.16907E-002	-4.25694E-003	5.70917E-001	6.14722E-001	-2.88539E-002	-3.88975E-002	6.51480E-001	-4.31582E-002	-6.68895E-004	4.61568E-005	-6.19029E-003	-6.66526E-003	3.12855E-004	4.21755E-004	-7.06381E-003	4.67952E-004
	77	77	4.99346E-002	-1.06995E-002	0.00000E+000	-5.34277E-004	-1.05217E-001	3.68798E-002	3.34237E+001	11	...........	6.15540E-002	-4.24917E-003	5.71017E-001	6.14843E-001	-2.88146E-002	-3.88304E-002	6.51466E-001	-4.32649E-002	-6.58600E-004	4.54641E-005	-6.10962E-003	-6.57854E-003	3.08303E-004	4.15468E-004	-6.97039E-003	4.62914E-004
	78	78	4.99345E-002	-1.06506E-002	0.00000E+000	-5.31835E-004	-1.04731E-001	3.69721E-002	3.36943E+001	11	...........	6.16831E-002	-4.46639E-003	5.71107E-001	6.15053E-001	-2.88114E-002	-3.88411E-002	6.51380E-001	-4.32847E-002	-6.56964E-004	4.75699E-005	-6.08266E-003	-6.55071E-003	3.06860E-004	4.13683E-004	-6.93762E-003	4.61010E-004
	79	79	4.99326E-002	-1.05097E-002	0.00000E+000	-5.24777E-004	-1.03335E-001	3.68919E-002	3.37958E+001	11	...........	6.15675E-002	-4.58347E-003	5.70935E-001	6.15187E-001	-2.87868E-002	-3.88999E-002	6.51548E-001	-4.33096E-002	-6.47057E-004	4.81710E-005	-6.00037E-003	-6.46544E-003	3.02541E-004	4.08827E-004	-6.84759E-003	4.55171E-004
	80	80	4.99328E-002	-1.04106E-002	0.00000E+000	-5.19832E-004	-1.02355E-001	3.70021E-002	3.38613E+001	11	...........	6.17608E-002	-4.51389E-003	5.71021E-001	6.14976E-001	-2.88010E-002	-3.88786E-002	6.51592E-001	-4.33069E-002	-6.42969E-004	4.69924E-005	-5.94469E-003	-6.40229E-003	2.99836E-004	4.04751E-004	-6.78349E-003	4.50853E-004
	81	81	4.99322E-002	-1.02055E-002	0.00000E+000	-5.09581E-004	-1.00347E-001	3.70053E-002	3.30376E+001	11	...........	6.17518E-002	-4.41403E-003	5.71171E-001	6.14756E-001	-2.87578E-002	-3.88375E-002	6.51607E-001	-4.33203E-002	-6.30205E-004	4.50472E-005	-5.82907E-003	-6.27387E-003	2.93486E-004	3.96354E-004	-6.64995E-003	4.42103E-004
	82	82	4.99331E-002	-9.97634E-003	0.00000E+000	-4.98150E-004	-9.80670E-002	3.67987E-002	3.25510E+001	11	...........	6.14135E-002	-4.33611E-003	5.71194E-001	6.14916E-001	-2.87632E-002	-3.88883E-002	6.51595E-001	-4.33417E-002	-6.12682E-004	4.32585E-005	-5.69843E-003	-6.13461E-003	2.86951E-004	3.87963E-004	-6.50053E-003	4.32391E-004
	83	83	4.99356E-002	-9.98828E-003	0.00000E+000	-4.98770E-004	-9.81850E-002	3.70352E-002	3.37843E+001	11	...........	6.18021E-002	-4.35639E-003	5.71313E-001	6.14956E-001	-2.87350E-002	-3.88747E-002	6.51437E-001	-4.33231E-002	-6.17297E-004	4.35128E-005	-5.70644E-003	-6.14235E-003	2.87013E-004	3.88292E-004	-6.50674E-003	4.32723E-004
	84	84	4.99323E-002	-9.89104E-003	0.00000E+000	-4.93882E-004	-9.72167E-002	3.70179E-002	3.36206E+001	11	...........	6.17901E-002	-4.36986E-003	5.71471E-001	6.14949E-001	-2.87065E-002	-3.88474E-002	6.51517E-001	-4.33349E-002	-6.11169E-004	4.32225E-005	-5.65244E-003	-6.08249E-003	2.83937E-004	3.84241E-004	-6.44419E-003	4.28627E-004
	85	85	4.99330E-002	-9.76972E-003	0.00000E+000	-4.87831E-004	-9.60057E-002	3.70584E-002	3.33347E+001	11	...........	6.18297E-002	-4.29778E-003	5.71412E-001	6.14861E-001	-2.87289E-002	-3.88825E-002	6.51484E-001	-4.33144E-002	-6.04059E-004	4.19881E-005	-5.58253E-003	-6.00702E-003	2.80673E-004	3.79871E-004	-6.36482E-003	4.23170E-004
	86	86	4.99348E-002	-9.65080E-003	0.00000E+000	-4.81911E-004	-9.48317E-002	3.70535E-002	3.37797E+001	11	...........	6.18279E-002	-4.21847E-003	5.71601E-001	6.14910E-001	-2.87361E-002	-3.88575E-002	6.51423E-001	-4.33247E-002	-5.96689E-004	4.07116E-005	-5.51641E-003	-5.93437E-003	2.77326E-004	3.75006E-004	-6.28675E-003	4.18118E-004
	87	87	4.99327E-002	-9.52870E-003	0.00000E+000	-4.75794E-004	-9.36163E-002	3.68100E-002	3.30944E+001	11	...........	6.14244E-002	-4.20597E-003	5.71528E-001	6.14970E-001	-2.87556E-002	-3.88706E-002	6.51417E-001	-4.33265E-002	-5.85295E-004	4.00775E-005	-5.44592E-003	-5.85987E-003	2.74003E-004	3.70386E-004	-6.20716E-003	4.12846E-004
	88	88	4.99352E-002	-9.51484E-003	0.00000E+000	-4.75125E-004	-9.34753E-002	3.71778E-002	3.43293E+001	11	...........	6.20594E-002	-4.34986E-003	5.71598E-001	6.15036E-001	-2.88074E-002	-3.89207E-002	6.51502E-001	-4.33276E-002	-5.90486E-004	4.13882E-005	-5.43867E-003	-5.85197E-003	2.74097E-004	3.70324E-004	-6.19894E-003	4.12255E-004
	89	89	4.99321E-002	-9.40936E-003	0.00000E+000	-4.69829E-004	-9.24387E-002	3.70708E-002	3.35521E+001	11	...........	6.18771E-002	-4.55069E-003	5.71561E-001	6.14801E-001	-2.88181E-002	-3.88993E-002	6.51468E-001	-4.33035E-002	-5.82224E-004	4.28191E-005	-5.37803E-003	-5.78488E-003	2.71159E-004	3.66018E-004	-6.12990E-003	4.07458E-004
	90	90	4.99337E-002	-9.22864E-003	0.00000E+000	-4.60820E-004	-9.06437E-002	3.69423E-002	3.35933E+001	11	...........	6.16415E-002	-4.37000E-003	5.71522E-001	6.14749E-001	-2.88103E-002	-3.88919E-002	6.51503E-001	-4.33224E-002	-5.68867E-004	4.03291E-005	-5.27437E-003	-5.67329E-003	2.65880E-004	3.58920E-004	-6.01248E-003	3.99806E-004
	91	91	4.99341E-002	-9.16561E-003	0.00000E+000	-4.57677E-004	-9.00110E-002	3.71407E-002	3.34615E+001	11	...........	6.19617E-002	-4.32681E-003	5.71632E-001	6.14734E-001	-2.88137E-002	-3.88693E-002	6.51599E-001	-4.33276E-002	-5.67916E-004	3.96578E-005	-5.23935E-003	-5.63441E-003	2.64095E-004	3.56261E-004	-5.97230E-003	3.97124E-004
	92	92	4.99346E-002	-9.04162E-003	0.00000E+000	-4.51490E-004	-8.87843E-002	3.70043E-002	3.37344E+001	11	...........	6.17346E-002	-4.15569E-003	5.71689E-001	6.14750E-001	-2.88403E-002	-3.88661E-002	6.51429E-001	-4.33497E-002	-5.58181E-004	3.75742E-005	-5.16900E-003	-5.55834E-003	2.60763E-004	3.51413E-004	-5.88997E-003	3.91952E-004
	93	93	4.99330E-002	-8.93352E-003	0.00000E+000	-4.46077E-004	-8.76953E-002	3.69361E-002	3.32948E+001	11	...........	6.16542E-002	-4.28736E-003	5.71776E-001	6.14714E-001	-2.88297E-002	-3.88654E-002	6.51460E-001	-4.33111E-002	-5.50789E-004	3.83012E-005	-5.10797E-003	-5.49156E-003	2.57551E-004	3.47205E-004	-5.81983E-003	3.86921E-004
	94	94	4.99342E-002	-8.87428E-003	0.00000E+000	-4.43130E-004	-8.70960E-002	3.70970E-002	3.40464E+001	11	...........	6.19162E-002	-4.22833E-003	5.71747E-001	6.14736E-001	-2.88517E-002	-3.89021E-002	6.51549E-001	-4.33272E-002	-5.49462E-004	3.75234E-005	-5.07384E-003	-5.45533E-003	2.56038E-004	3.45228E-004	-5.78203E-003	3.84498E-004
	95	95	4.99334E-002	-8.77140E-003	0.00000E+000	-4.37986E-004	-8.60723E-002	3.71721E-002	3.38754E+001	11	...........	6.20332E-002	-4.17000E-003	5.71778E-001	6.14647E-001	-2.88200E-002	-3.88412E-002	6.51681E-001	-4.33237E-002	-5.44118E-004	3.65767E-005	-5.01529E-003	-5.39132E-003	2.52792E-004	3.40692E-004	-5.71616E-003	3.80010E-004
	96	96	4.99336E-002	-8.62351E-003	0.00000E+000	-4.30602E-004	-8.46040E-002	3.69128E-002	3.32054E+001	11	...........	6.16022E-002	-4.22208E-003	5.71739E-001	6.14838E-001	-2.88369E-002	-3.88268E-002	6.51692E-001	-4.32864E-002	-5.31227E-004	3.64092E-005	-4.93040E-003	-5.30206E-003	2.48676E-004	3.34823E-004	-5.61987E-003	3.73281E-004
	97	97	4.99346E-002	-8.58259E-003	0.00000E+000	-4.28568E-004	-8.42003E-002	3.71534E-002	3.43762E+001	11	...........	6.19843E-002	-4.31833E-003	5.71900E-001	6.14856E-001	-2.88621E-002	-3.88801E-002	6.51744E-001	-4.32821E-002	-5.31986E-004	3.70625E-005	-4.90839E-003	-5.27706E-003	2.47711E-004	3.33692E-004	-5.59365E-003	3.71472E-004
	98	98	4.99330E-002	-8.52490E-003	0.00000E+000	-4.25674E-004	-8.36203E-002	3.70442E-002	3.38465E+001	11	...........	6.18146E-002	-4.45625E-003	5.71930E-001	6.14921E-001	-2.88839E-002	-3.88461E-002	6.51691E-001	-4.33476E-002	-5.26963E-004	3.79891E-005	-4.87564E-003	-5.24214E-003	2.46232E-004	3.31159E-004	-5.55560E-003	3.69534E-004
	99	99	4.99336E-002	-8.39754E-003	0.00000E+000	-4.19319E-004	-8.23547E-002	3.71176E-002	3.39067E+001	11	...........	6.19158E-002	-4.33208E-003	5.71884E-001	6.14967E-001	-2.88894E-002	-3.88408E-002	6.51739E-001	-4.33386E-002	-5.19941E-004	3.63789E-005	-4.80242E-003	-5.16421E-003	2.42600E-004	3.26168E-004	-5.47301E-003	3.63938E-004
	100	100	4.99328E-002	-8.26249E-003	0.00000E+000	-4.12570E-004	-8.10177E-002	3.71013E-002	3.30473E+001	11	...........	6.18958E-002	-4.35056E-003	5.71798E-001	6.15155E-001	-2.88931E-002	-3.88710E-002	6.51619E-001	-4.33336E-002	-5.11414E-004	3.59464E-005	-4.72448E-003	-5.08272E-003	2.38729E-004	3.21171E-004	-5.38400E-003	3.58044E-004
	101	101	4.99352E-002	-8.16341E-003	0.00000E+000	-4.07641E-004	-8.00283E-002	3.70209E-002	3.37726E+001	11	...........	6.17707E-002	-4.40819E-003	5.71839E-001	6.15119E-001	-2.88754E-002	-3.88440E-002	6.51575E-001	-4.33303E-002	-5.04259E-004	3.59859E-005	-4.66815E-003	-5.02147E-003	2.35722E-004	3.17100E-004	-5.31908E-003	3.53723E-004
	102	102	4.99346E-002	-8.16631E-003	0.00000E+000	-4.07781E-004	-8.00550E-002	3.71679E-002	3.40943E+001	11	...........	6.20018E-002	-4.40028E-003	5.71856E-001	6.14914E-001	-2.88787E-002	-3.88443E-002	6.51593E-001	-4.33122E-002	-5.06326E-004	3.59340E-005	-4.66996E-003	-5.02158E-003	2.35833E-004	3.17215E-004	-5.32111E-003	3.53701E-004
	103	103	4.99325E-002	-8.02975E-003	0.00000E+000	-4.00945E-004	-7.87007E-002	3.70254E-002	3.37254E+001	11	...........	6.17929E-002	-4.21014E-003	5.71881E-001	6.14894E-001	-2.88765E-002	-3.89021E-002	6.51617E-001	-4.33011E-002	-4.96182E-004	3.38064E-005	-4.59207E-003	-4.93745E-003	2.31871E-004	3.12374E-004	-5.23232E-003	3.47697E-004
	104	104	4.99350E-002	-7.96663E-003	0.00000E+000	-3.97814E-004	-7.80730E-002	3.72060E-002	3.43438E+001	11	...........	6.20750E-002	-4.35097E-003	5.71727E-001	6.15014E-001	-2.89039E-002	-3.89037E-002	6.51758E-001	-4.32525E-002	-4.94529E-004	3.46626E-005	-4.55474E-003	-4.89959E-003	2.30267E-004	3.09932E-004	-5.19232E-003	3.44577E-004
	105	105	4.99334E-002	-7.87739E-003	0.00000E+000	-3.93345E-004	-7.71917E-002	3.71005E-002	3.35799E+001	11	...........	6.19115E-002	-4.30083E-003	5.71774E-001	6.14839E-001	-2.89301E-002	-3.88681E-002	6.51832E-001	-4.32979E-002	-4.87701E-004	3.38794E-005	-4.50409E-003	-4.84333E-003	2.27894E-004	3.06179E-004	-5.13473E-003	3.41075E-004
	106	106	4.99333E-002	-7.76183E-003	0.00000E+000	-3.87574E-004	-7.60627E-002	3.71051E-002	3.36923E+001	11	...........	6.19375E-002	-4.08667E-003	5.71736E-001	6.14759E-001	-2.89065E-002	-3.88862E-002	6.51815E-001	-4.32821E-002	-4.80748E-004	3.17200E-005	-4.43772E-003	-4.77165E-003	2.24367E-004	3.01828E-004	-5.05927E-003	3.35948E-004
	107	107	4.99348E-002	-7.72991E-003	0.00000E+000	-3.85992E-004	-7.57447E-002	3.71443E-002	3.36802E+001	11	...........	6.19854E-002	-4.30625E-003	5.71726E-001	6.14829E-001	-2.89117E-002	-3.89214E-002	6.51812E-001	-4.33324E-002	-4.79142E-004	3.32869E-005	-4.41939E-003	-4.75258E-003	2.23485E-004	3.00859E-004	-5.03845E-003	3.34955E-004
	108	108	4.99319E-002	-7.61012E-003	0.00000E+000	-3.79988E-004	-7.45377E-002	3.71278E-002	3.37605E+001	11	...........	6.19744E-002	-4.36625E-003	5.71688E-001	6.14901E-001	-2.89054E-002	-3.89185E-002	6.51882E-001	-4.33585E-002	-4.71633E-004	3.32277E-005	-4.35062E-003	-4.67948E-003	2.19974E-004	2.96174E-004	-4.96090E-003	3.29963E-004
	109	109	4.99339E-002	-7.49809E-003	0.00000E+000	-3.74409E-004	-7.34193E-002	3.71449E-002	3.29486E+001	11	...........	6.19608E-002	-4.23792E-003	5.71772E-001	6.14726E-001	-2.89431E-002	-3.89061E-002	6.51846E-001	-4.33478E-002	-4.64588E-004	3.17763E-005	-4.28719E-003	-4.60927E-003	2.17017E-004	2.91721E-004	-4.88760E-003	3.25025E-004
	110	110	4.99348E-002	-7.45224E-003	0.00000E+000	-3.72126E-004	-7.29610E-002	3.71678E-002	3.34771E+001	11	...........	6.20135E-002	-4.25181E-003	5.71720E-001	6.14807E-001	-2.89519E-002	-3.89125E-002	6.51739E-001	-4.33790E-002	-4.62139E-004	3.16855E-005	-4.26060E-003	-4.58169E-003	2.15757E-004	2.89985E-004	-4.85692E-003	3.23271E-004
	111	111	4.99347E-002	-7.39565E-003	0.00000E+000	-3.69300E-004	-7.24017E-002	3.71535E-002	3.38923E+001	11	...........	6.19850E-002	-4.20222E-003	5.71803E-001	6.14991E-001	-2.89253E-002	-3.88783E-002	6.51788E-001	-4.33764E-002	-4.58420E-004	3.10782E-005	-4.22885E-003	-4.54826E-003	2.13921E-004	2.87531E-004	-4.82040E-003	3.20797E-004
	112	112	4.99345E-002	-7.32038E-003	0.00000E+000	-3.65540E-004	-7.16493E-002	3.71374E-002	3.35848E+001	11	...........	6.19683E-002	-4.16347E-003	5.71772E-001	6.15198E-001	-2.89026E-002	-3.88450E-002	6.51880E-001	-4.33497E-002	-4.53632E-004	3.04782E-005	-4.18559E-003	-4.50349E-003	2.11578E-004	2.84360E-004	-4.77201E-003	3.17337E-004
	113	113	4.99333E-002	-7.23030E-003	0.00000E+000	-3.61033E-004	-7.07547E-002	3.71679E-002	3.37318E+001	11	...........	6.20108E-002	-4.26417E-003	5.71740E-001	6.15192E-001	-2.88986E-002	-3.88314E-002	6.51835E-001	-4.33197E-002	-4.48357E-004	3.08312E-005	-4.13385E-003	-4.44802E-003	2.08946E-004	2.80763E-004	-4.71296E-003	3.13215E-004
	114	114	4.99343E-002	-7.17676E-003	0.00000E+000	-3.58367E-004	-7.02213E-002	3.71664E-002	3.38631E+001	11	...........	6.20085E-002	-4.33500E-003	5.71748E-001	6.15268E-001	-2.88840E-002	-3.89122E-002	6.51824E-001	-4.32444E-002	-4.45020E-004	3.11113E-005	-4.10330E-003	-4.41564E-003	2.07294E-004	2.79264E-004	-4.67799E-003	3.10355E-004
	115	115	4.99342E-002	-7.11891E-003	0.00000E+000	-3.55477E-004	-6.96407E-002	3.71800E-002	3.42760E+001	11	...........	6.20332E-002	-4.27875E-003	5.71562E-001	6.15339E-001	-2.88782E-002	-3.89182E-002	6.51819E-001	-4.32421E-002	-4.41609E-004	3.04600E-005	-4.06890E-003	-4.38054E-003	2.05581E-004	2.77055E-004	-4.64024E-003	3.07837E-004
	116	116	4.99342E-002	-7.01239E-003	0.00000E+000	-3.50158E-004	-6.85890E-002	3.71223E-002	3.36346E+001	11	...........	6.19489E-002	-4.33569E-003	5.71617E-001	6.15328E-001	-2.88708E-002	-3.89251E-002	6.51823E-001	-4.32781E-002	-4.34410E-004	3.04036E-005	-4.00840E-003	-4.31492E-003	2.02453E-004	2.72958E-004	-4.57084E-003	3.03482E-004
	117	117	4.99336E-002	-6.93975E-003	0.00000E+000	-3.46527E-004	-6.78630E-002	3.71365E-002	3.36823E+001	11	...........	6.19799E-002	-4.58361E-003	5.71472E-001	6.15312E-001	-2.88893E-002	-3.89593E-002	6.51933E-001	-4.32600E-002	-4.30125E-004	3.18091E-005	-3.96587E-003	-4.27011E-003	2.00485E-004	2.70368E-004	-4.52425E-003	3.00214E-004
	118	118	4.99346E-002	-6.91296E-003	0.00000E+000	-3.45196E-004	-6.75930E-002	3.72146E-002	3.45837E+001	11	...........	6.20858E-002	-4.51167E-003	5.71264E-001	6.15309E-001	-2.88822E-002	-3.89574E-002	6.51839E-001	-4.32540E-002	-4.29197E-004	3.11890E-005	-3.94913E-003	-4.25361E-003	1.99662E-004	2.69311E-004	-4.50614E-003	2.99013E-004
	119	119	4.99327E-002	-6.83841E-003	0.00000E+000	-3.41461E-004	-6.68617E-002	3.71942E-002	3.39873E+001	11	...........	6.20556E-002	-4.25444E-003	5.71329E-001	6.15298E-001	-2.88667E-002	-3.89608E-002	6.51862E-001	-4.32599E-002	-4.24361E-004	2.90936E-005	-3.90698E-003	-4.20766E-003	1.97402E-004	2.66430E-004	-4.45770E-003	2.95829E-004
	120	120	4.99351E-002	-6.75739E-003	0.00000E+000	-3.37431E-004	-6.60470E-002	3.72271E-002	3.41964E+001	11	...........	6.21150E-002	-4.17167E-003	5.71339E-001	6.15310E-001	-2.88539E-002	-3.89394E-002	6.51786E-001	-4.32272E-002	-4.19735E-004	2.81896E-005	-3.86076E-003	-4.15789E-003	1.94977E-004	2.63129E-004	-4.40437E-003	2.92103E-004
	121	121	4.99332E-002	-6.68152E-003	0.00000E+000	-3.33629E-004	-6.52990E-002	3.71787E-002	3.37710E+001	11	...........	6.20056E-002	-4.29431E-003	5.71338E-001	6.15247E-001	-2.88657E-002	-3.89615E-002	6.51844E-001	-4.32333E-002	-4.14291E-004	2.86925E-005	-3.81741E-003	-4.11078E-003	1.92867E-004	2.60322E-004	-4.35531E-003	2.88864E-004
	122	122	4.99343E-002	-6.57918E-003	0.00000E+000	-3.28527E-004	-6.42833E-002	3.72255E-002	3.34039E+001	11	...........	6.20924E-002	-4.18042E-003	5.71248E-001	6.15248E-001	-2.88561E-002	-3.89515E-002	6.51800E-001	-4.32542E-002	-4.08517E-004	2.75037E-005	-3.75834E-003	-4.04783E-003	1.89849E-004	2.56269E-004	-4.28831E-003	2.84577E-004
	123	123	4.99349E-002	-6.50777E-003	0.00000E+000	-3.24965E-004	-6.35953E-002	3.71152E-002	3.35536E+001	11	...........	6.19419E-002	-4.07944E-003	5.71167E-001	6.15221E-001	-2.88412E-002	-3.89858E-002	6.51756E-001	-4.33197E-002	-4.03104E-004	2.65481E-005	-3.71703E-003	-4.00372E-003	1.87692E-004	2.53711E-004	-4.24148E-003	2.81915E-004
	124	124	4.99344E-002	-6.49537E-003	0.00000E+000	-3.24343E-004	-6.34643E-002	3.72359E-002	3.42179E+001	11	...........	6.21144E-002	-4.30542E-003	5.71207E-001	6.15273E-001	-2.88476E-002	-3.89992E-002	6.51692E-001	-4.33425E-002	-4.03457E-004	2.79653E-005	-3.71020E-003	-3.99643E-003	1.87376E-004	2.53314E-004	-4.23299E-003	2.81526E-004
	125	125	4.99335E-002	-6.42806E-003	0.00000E+000	-3.20976E-004	-6.27803E-002	3.72638E-002	3.38252E+001	11	...........	6.21572E-002	-4.44514E-003	5.71228E-001	6.15272E-001	-2.88665E-002	-3.89907E-002	6.51730E-001	-4.33181E-002	-3.99551E-004	2.85736E-005	-3.67189E-003	-3.95501E-003	1.85556E-004	2.50635E-004	-4.18936E-003	2.78451E-004
	126	126	4.99346E-002	-6.35227E-003	0.00000E+000	-3.17198E-004	-6.20120E-002	3.72253E-002	3.34960E+001	11	...........	6.21131E-002	-4.39083E-003	5.71216E-001	6.15214E-001	-2.88687E-002	-3.89796E-002	6.51821E-001	-4.33165E-002	-3.94559E-004	2.78918E-005	-3.62852E-003	-3.90801E-003	1.83382E-004	2.47609E-004	-4.14054E-003	2.75158E-004
	127	127	4.99342E-002	-6.31687E-003	0.00000E+000	-3.15428E-004	-6.16600E-002	3.72452E-002	3.42131E+001	11	...........	6.21624E-002	-4.51486E-003	5.71372E-001	6.15328E-001	-2.88972E-002	-3.89722E-002	6.51798E-001	-4.33296E-002	-3.92672E-004	2.85198E-005	-3.60929E-003	-3.88695E-003	1.82540E-004	2.46183E-004	-4.11733E-003	2.73707E-004
	128	128	4.99339E-002	-6.25343E-003	0.00000E+000	-3.12258E-004	-6.10280E-002	3.72400E-002	3.43452E+001	11	...........	6.21108E-002	-4.60389E-003	5.71175E-001	6.15311E-001	-2.88587E-002	-3.89621E-002	6.51907E-001	-4.33250E-002	-3.88406E-004	2.87901E-005	-3.57180E-003	-3.84780E-003	1.80466E-004	2.43647E-004	-4.07666E-003	2.70930E-004
	129	129	4.99339E-002	-6.16260E-003	0.00000E+000	-3.07723E-004	-6.01193E-002	3.72329E-002	3.35971E+001	11	...........	6.21203E-002	-4.63028E-003	5.71171E-001	6.15208E-001	-2.88351E-002	-3.90068E-002	6.51849E-001	-4.33167E-002	-3.82823E-004	2.85346E-005	-3.51990E-003	-3.79128E-003	1.77700E-004	2.40383E-004	-4.01709E-003	2.66943E-004
	130	130	4.99350E-002	-6.12781E-003	0.00000E+000	-3.05992E-004	-5.97750E-002	3.72647E-002	3.42267E+001	11	...........	6.21904E-002	-4.60444E-003	5.71116E-001	6.15255E-001	-2.88360E-002	-3.89868E-002	6.51732E-001	-4.33290E-002	-3.81091E-004	2.82152E-005	-3.49969E-003	-3.77017E-003	1.76701E-004	2.38904E-004	-3.99369E-003	2.65512E-004
	131	131	4.99342E-002	-6.07748E-003	0.00000E+000	-3.03474E-004	-5.92780E-002	3.71957E-002	3.40840E+001	11	...........	6.20699E-002	-4.51264E-003	5.71225E-001	6.15331E-001	-2.88299E-002	-3.89550E-002	6.51780E-001	-4.33293E-002	-3.77229E-004	2.74255E-005	-3.47161E-003	-3.73967E-003	1.75213E-004	2.36748E-004	-3.96118E-003	2.63333E-004
	132	132	4.99338E-002	-6.01050E-003	0.00000E+000	-3.00127E-004	-5.86107E-002	3.72587E-002	3.36248E+001	11	...........	6.21732E-002	-4.48417E-003	5.71355E-001	6.15321E-001	-2.88340E-002	-3.89576E-002	6.51760E-001	-4.33074E-002	-3.73692E-004	2.69521E-005	-3.43412E-003	-3.69838E-003	1.73307E-004	2.34155E-004	-3.91740E-003	2.60299E-004
	133	133	4.99344E-002	-5.92809E-003	0.00000E+000	-2.96016E-004	-5.77913E-002	3.73187E-002	3.36912E+001	11	...........	6.22818E-002	-4.38042E-003	5.71578E-001	6.15266E-001	-2.88414E-002	-3.89774E-002	6.51820E-001	-4.33437E-002	-3.69212E-004	2.59675E-005	-3.38837E-003	-3.64735E-003	1.70974E-004	2.31061E-004	-3.86405E-003	2.56946E-004
	134	134	4.99340E-002	-5.85986E-003	0.00000E+000	-2.92606E-004	-5.71123E-002	3.71527E-002	3.37944E+001	11	...........	6.20089E-002	-4.22181E-003	5.71603E-001	6.15305E-001	-2.88343E-002	-3.89792E-002	6.51870E-001	-4.33499E-002	-3.63364E-004	2.47392E-005	-3.34951E-003	-3.60560E-003	1.68965E-004	2.28413E-004	-3.81987E-003	2.54024E-004
	135	135	4.99338E-002	-5.86663E-003	0.00000E+000	-2.92943E-004	-5.71827E-002	3.73844E-002	3.41926E+001	11	...........	6.23485E-002	-4.29319E-003	5.71629E-001	6.15311E-001	-2.88078E-002	-3.89740E-002	6.51797E-001	-4.33281E-002	-3.65775E-004	2.51866E-005	-3.35354E-003	-3.60980E-003	1.69005E-004	2.28646E-004	-3.82385E-003	2.54190E-004
	136	136	4.99336E-002	-5.81504E-003	0.00000E+000	-2.90366E-004	-5.66690E-002	3.73220E-002	3.39993E+001	11	...........	6.22565E-002	-4.36625E-003	5.71604E-001	6.15308E-001	-2.88012E-002	-3.89396E-002	6.51917E-001	-4.33117E-002	-3.62024E-004	2.53899E-005	-3.32390E-003	-3.57804E-003	1.67480E-004	2.26435E-004	-3.79093E-003	2.51859E-004
	137	137	4.99358E-002	-5.73432E-003	0.00000E+000	-2.86348E-004	-5.58670E-002	3.72607E-002	3.42565E+001	11	...........	6.21744E-002	-4.33069E-003	5.71586E-001	6.15301E-001	-2.88074E-002	-3.89247E-002	6.52031E-001	-4.32926E-002	-3.56528E-004	2.48336E-005	-3.27766E-003	-3.52833E-003	1.65191E-004	2.23207E-004	-3.73895E-003	2.48254E-004
	138	138	4.99336E-002	-5.69917E-003	0.00000E+000	-2.84580E-004	-5.55233E-002	3.72702E-002	3.42562E+001	11	...........	6.21835E-002	-4.23042E-003	5.71590E-001	6.15282E-001	-2.88357E-002	-3.89508E-002	6.52134E-001	-4.32825E-002	-3.54394E-004	2.41098E-005	-3.25758E-003	-3.50660E-003	1.64339E-004	2.21987E-004	-3.71662E-003	2.46674E-004
	139	139	4.99346E-002	-5.64867E-003	0.00000E+000	-2.82064E-004	-5.50117E-002	3.72765E-002	3.40788E+001	11	...........	6.22157E-002	-4.28139E-003	5.71726E-001	6.15176E-001	-2.88321E-002	-3.89744E-002	6.52083E-001	-4.33274E-002	-3.51436E-004	2.41841E-005	-3.22949E-003	-3.47492E-003	1.62863E-004	2.20154E-004	-3.68340E-003	2.44742E-004
	140	140	4.99348E-002	-5.59688E-003	0.00000E+000	-2.79479E-004	-5.44990E-002	3.72657E-002	3.43639E+001	11	...........	6.21674E-002	-4.35500E-003	5.71775E-001	6.15202E-001	-2.88551E-002	-3.89756E-002	6.52025E-001	-4.33343E-002	-3.47943E-004	2.43744E-005	-3.20015E-003	-3.44321E-003	1.61499E-004	2.18141E-004	-3.64930E-003	2.42537E-004
	141	141	4.99348E-002	-5.56263E-003	0.00000E+000	-2.77769E-004	-5.41607E-002	3.72879E-002	3.44732E+001	11	...........	6.22222E-002	-4.40264E-003	5.71927E-001	6.15221E-001	-2.88471E-002	-3.89667E-002	6.51798E-001	-4.33278E-002	-3.46119E-004	2.44902E-005	-3.18142E-003	-3.42224E-003	1.60466E-004	2.16757E-004	-3.62571E-003	2.41016E-004
	142	142	4.99343E-002	-5.50316E-003	0.00000E+000	-2.74796E-004	-5.35617E-002	3.72777E-002	3.43066E+001	11	...........	6.22021E-002	-4.43014E-003	5.71793E-001	6.15248E-001	-2.88321E-002	-3.89529E-002	6.51806E-001	-4.33235E-002	-3.42308E-004	2.43798E-005	-3.14667E-003	-3.38581E-003	1.58668E-004	2.14364E-004	-3.58700E-003	2.38416E-004
	143	143	4.99338E-002	-5.44649E-003	0.00000E+000	-2.71964E-004	-5.30013E-002	3.71495E-002	3.41676E+001	11	...........	6.20046E-002	-4.42972E-003	5.71667E-001	6.15236E-001	-2.88261E-002	-3.89496E-002	6.51795E-001	-4.33443E-002	-3.37707E-004	2.41264E-005	-3.11358E-003	-3.35088E-003	1.57001E-004	2.12138E-004	-3.54999E-003	2.36074E-004
	144	144	4.99343E-002	-5.41905E-003	0.00000E+000	-2.70596E-004	-5.27313E-002	3.74572E-002	3.43899E+001	11	...........	6.25056E-002	-4.40653E-003	5.71672E-001	6.15239E-001	-2.88125E-002	-3.89651E-002	6.51840E-001	-4.33533E-002	-3.38720E-004	2.38792E-005	-3.09792E-003	-3.33401E-003	1.56136E-004	2.11154E-004	-3.53235E-003	2.34934E-004
	145	145	4.99337E-002	-5.32999E-003	0.00000E+000	-2.66146E-004	-5.18360E-002	3.72439E-002	3.38930E+001	11	...........	6.21308E-002	-4.38347E-003	5.71575E-001	6.15167E-001	-2.88006E-002	-3.89694E-002	6.51904E-001	-4.33494E-002	-3.31157E-004	2.33639E-005	-3.04649E-003	-3.27883E-003	1.53507E-004	2.07707E-004	-3.47464E-003	2.31052E-004
	146	146	4.99354E-002	-5.29248E-003	0.00000E+000	-2.64282E-004	-5.14653E-002	3.72963E-002	3.44587E+001	11	...........	6.22392E-002	-4.39250E-003	5.71527E-001	6.15279E-001	-2.87996E-002	-3.90168E-002	6.51939E-001	-4.33660E-002	-3.29399E-004	2.32472E-005	-3.02479E-003	-3.25635E-003	1.52421E-004	2.06496E-004	-3.45037E-003	2.29513E-004
	147	147	4.99333E-002	-5.26931E-003	0.00000E+000	-2.63114E-004	-5.12450E-002	3.73440E-002	3.41257E+001	11	...........	6.22921E-002	-4.53486E-003	5.71468E-001	6.15295E-001	-2.88031E-002	-3.89854E-002	6.51841E-001	-4.33322E-002	-3.28237E-004	2.38956E-005	-3.01125E-003	-3.24218E-003	1.51772E-004	2.05426E-004	-3.43476E-003	2.28331E-004
	148	148	4.99342E-002	-5.15425E-003	0.00000E+000	-2.57373E-004	-5.01087E-002	3.72599E-002	3.31337E+001	11	...........	6.21649E-002	-4.47278E-003	5.71443E-001	6.15319E-001	-2.88018E-002	-3.90001E-002	6.51867E-001	-4.33439E-002	-3.20413E-004	2.30538E-005	-2.94536E-003	-3.17150E-003	1.48452E-004	2.01016E-004	-3.35988E-003	2.23405E-004
	149	149	4.99358E-002	-5.13595E-003	0.00000E+000	-2.56468E-004	-4.99270E-002	3.73043E-002	3.43335E+001	11	...........	6.22418E-002	-4.52972E-003	5.71362E-001	6.15378E-001	-2.87807E-002	-3.90089E-002	6.51721E-001	-4.33437E-002	-3.19671E-004	2.32644E-005	-2.93449E-003	-3.16056E-003	1.47816E-004	2.00348E-004	-3.34721E-003	2.22611E-004
	150	149.982	4.99330E-002	-5.13023E-003	0.00000E+000	-2.56168E-004	-4.98621E-002	3.73424E-002	3.40565E+001	11	...........	6.23094E-002	-4.49731E-003	5.71356E-001	6.15414E-001	-2.87810E-002	-3.90136E-002	6.51721E-001	-4.33598E-002	-3.19662E-004	2.30723E-005	-2.93119E-003	-3.15722E-003	1.47653E-004	2.00149E-004	-3.34348E-003	2.22446E-004
STARTTIMEOFFSET	QUANT	776400.2	Start Time Offset (s)
