EXPLAIN
TAG	PWR800_DISCHARGE
TITLE	LABEL	PWR Discharge	Test Identifier
DATE	LABEL	10/12/2022	Date
TIME	LABEL	6:13:58	Time
NOTES	NOTES	1	Notes...
	
PSTAT	PSTAT	REF3000-21114	Potentiostat
CAPACITY	QUANT	5.30000E-002	Capacity (A-hr)
CELLTYPE	SELECTOR	1	Cell Type
WORKINGCONNECTION	SELECTOR	0	Working Connection
MAXDISCHARGETIME	VARIABLEANDUNITS	7.20000E+003	s	2.00000E+000	hour(s)	Max Discharge Time
DISCHARGEMODE	MULTIPARAM	0	1.00000E-001	Discharge Mode	Constant Current	Amp(s)
VOLTAGEFINISH	TWOPARAM	T	5.00000E-003	7.20000E+003	Voltage Finish	I (A) <	Max Time(s)
SAMPLETIME	QUANT	1.00000E+000	Sample Period (s)
DISCHARGESTOPAT1	MULTIPARAM	1	5.00000E-002	Stop At 1	|Voltage| < Limit	V
DISCHARGESTOPAT2	MULTIPARAM	0	0.00000E+000	Stop At 2	None	N/A
AESELECTOR	AESELECTOR	0x1	T	Set Limits	AE Channels
AESBHCSELECTOR	TOGGLE	F	Save Both Half Cells
IRCOMP	TOGGLE	F	IR Measure
EOC	QUANT	0.5440516	Open Circuit (V)
SEQUENCER	TOGGLE	TRUE	Run as Sequence
PSTATMODEL	IQUANT	5	Pstat Model
PSTATSECTION	LABEL	REF3000-21114	Pstat Section
PSTATSERIALNO	LABEL	21114	Pstat Serial Number
CTRLMODE	IQUANT	0	Control Mode
ELECTROMETER	IQUANT	0	RE=0 or CS=1
IESTAB	IQUANT	0	I/E Stability
CASPEED	IQUANT	4	Control Amp Speed
CONVENTION	IQUANT	1	Current Convention
ICHRANGE	IQUANT	2	Ich Range
ICHRANGEMODE	TOGGLE	T	Ich Auto Range
ICHOFFSETENABLE	TOGGLE	F	Ich Offset Enable
ICHOFFSET	QUANT	0	Ich Offset (V)
ICHFILTER	IQUANT	1	Ich Filter
VCHRANGE	IQUANT	3	Vch Range
VCHRANGEMODE	TOGGLE	T	Vch Auto Range
VCHOFFSETENABLE	TOGGLE	F	Vch Offset Enable
VCHOFFSET	QUANT	0	Vch Offset (V)
VCHFILTER	IQUANT	1	Vch Filter
ACHRANGE	IQUANT	2	Ach Range
ACHOFFSETENABLE	TOGGLE	F	Ach Offset Enable
ACHOFFSET	QUANT	0	Ach Offset (V)
ACHFILTER	IQUANT	1	Ach Filter
IERANGELOWERLIMIT	IQUANT	9	I/E Range Lower Limit
IERANGEMODE	TOGGLE	F	I/E AutoRange
IERANGE	IQUANT	9	I/E Range
POSFEEDENABLE	TOGGLE	F	Positive Feedback IR Comp
POSFEEDRESISTANCE	QUANT	0	Positive Feedback Resistance (ohm)
ACHSELECT	IQUANT	1	Ach Select
SENSECABLEID	IQUANT	13	Sense Cable ID
PWRCABLEID	IQUANT	13	Power Cable ID
DCCALDATE	LABEL		DC Calibration Date
ACCALDATE	LABEL		AC Calibration Date
THERMOSELECT	IQUANT	1	Thermo Select
FRAMEWORKVERSION	LABEL	7.8.6	Framework Version
INSTRUMENTVERSION	LABEL	4.50	Instrument Version
COMPLIANCEVOLTAGE	IQUANT	0	Compliance Voltage
CURVE	TABLE	107
	Pt	T	Vf	Im	Vu	Pwr	Sig	Ach	Temp	IERange	Over	Vf1	Vf2	Vf3	Vf4	Vf5	Vf6	Vf7	Vf8	Pwr1	Pwr2	Pwr3	Pwr4	Pwr5	Pwr6	Pwr7	Pwr8
	#	s	V	A	V	W	V	V	deg C	#	bits	V	V	V	V	V	V	V	V	W	W	W	W	W	W	W	W
	0	1	3.24299E-001	-1.00080E-001	0.00000E+000	-3.24559E-002	-9.94000E-001	3.31871E-002	2.66670E+001	11	...........	5.51247E-002	-3.72681E-003	5.62109E-001	6.55988E-001	-3.01121E-002	-3.93389E-002	6.50449E-001	-4.30008E-002	-5.51689E-003	3.72979E-004	-5.62560E-002	-6.56515E-002	3.01362E-003	3.93704E-003	-6.50970E-002	4.30353E-003
	1	2	2.26991E-001	-1.00081E-001	0.00000E+000	-2.27174E-002	-9.94000E-001	3.31160E-002	2.64297E+001	11	...........	5.50111E-002	-3.67778E-003	5.62181E-001	6.56251E-001	-3.01583E-002	-3.93324E-002	6.50536E-001	-4.30471E-002	-5.50555E-003	3.68075E-004	-5.62635E-002	-6.56781E-002	3.01827E-003	3.93641E-003	-6.51062E-002	4.30818E-003
	2	3	1.46046E-001	-1.00081E-001	0.00000E+000	-1.46164E-002	-9.94000E-001	3.31123E-002	2.55266E+001	11	...........	5.50528E-002	-3.62917E-003	5.62208E-001	6.56288E-001	-3.01601E-002	-3.93128E-002	6.50491E-001	-4.30401E-002	-5.50972E-003	3.63210E-004	-5.62662E-002	-6.56818E-002	3.01845E-003	3.93445E-003	-6.51016E-002	4.30749E-003
	3	3.82167	7.81065E-002	-1.00081E-001	0.00000E+000	-7.81696E-003	-9.94000E-001	3.30340E-002	2.53983E+001	11	...........	5.48891E-002	-3.77265E-003	5.62266E-001	6.56380E-001	-3.01342E-002	-3.93054E-002	6.50634E-001	-4.29630E-002	-5.49335E-003	3.77570E-004	-5.62720E-002	-6.56910E-002	3.01586E-003	3.93372E-003	-6.51160E-002	4.29977E-003
	4	4	4.92377E-002	-9.50092E-002	0.00000E+000	-4.67804E-003	-9.43559E-001	3.32799E-002	2.54775E+001	11	...........	5.52640E-002	-3.71106E-003	5.62341E-001	6.56417E-001	-3.01472E-002	-3.93053E-002	6.50687E-001	-4.29283E-002	-5.25059E-003	3.52585E-004	-5.34276E-002	-6.23656E-002	2.86426E-003	3.73436E-003	-6.18212E-002	4.07859E-003
	5	5	4.95842E-002	-7.06899E-002	0.00000E+000	-3.50510E-003	-7.01754E-001	3.32568E-002	2.60927E+001	11	...........	5.52658E-002	-3.73944E-003	5.62323E-001	6.56369E-001	-3.01315E-002	-3.92892E-002	6.50550E-001	-4.29869E-002	-3.90673E-003	2.64341E-004	-3.97506E-002	-4.63987E-002	2.12999E-003	2.77735E-003	-4.59873E-002	3.03874E-003
	6	6	4.97896E-002	-4.99908E-002	0.00000E+000	-2.48902E-003	-4.95948E-001	3.33773E-002	2.64725E+001	11	...........	5.54344E-002	-3.86708E-003	5.62484E-001	6.56574E-001	-3.00876E-002	-3.93087E-002	6.50571E-001	-4.30515E-002	-2.77121E-003	1.93318E-004	-2.81190E-002	-3.28226E-002	1.50410E-003	1.96507E-003	-3.25225E-002	2.15218E-003
	7	7	4.98957E-002	-3.90195E-002	0.00000E+000	-1.94690E-003	-3.86870E-001	3.34693E-002	2.72354E+001	11	...........	5.56192E-002	-3.79694E-003	5.62689E-001	6.56652E-001	-3.01057E-002	-3.92919E-002	6.50544E-001	-4.31814E-002	-2.17023E-003	1.48155E-004	-2.19558E-002	-2.56222E-002	1.17471E-003	1.53315E-003	-2.53839E-002	1.68491E-003
	8	8	4.99239E-002	-3.24597E-002	0.00000E+000	-1.62051E-003	-3.21643E-001	3.33278E-002	2.72076E+001	11	...........	5.54749E-002	-3.75389E-003	5.62737E-001	6.56599E-001	-3.01136E-002	-3.93121E-002	6.50581E-001	-4.30608E-002	-1.80070E-003	1.21850E-004	-1.82663E-002	-2.13130E-002	9.77478E-004	1.27606E-003	-2.11177E-002	1.39774E-003
	9	9	4.99436E-002	-2.83315E-002	0.00000E+000	-1.41497E-003	-2.80608E-001	3.34481E-002	2.76803E+001	11	...........	5.55494E-002	-3.83819E-003	5.62775E-001	6.56649E-001	-3.00833E-002	-3.93158E-002	6.50551E-001	-4.31819E-002	-1.57380E-003	1.08742E-004	-1.59442E-002	-1.86038E-002	8.52304E-004	1.11387E-003	-1.84310E-002	1.22341E-003
	10	10	4.99693E-002	-2.54319E-002	0.00000E+000	-1.27082E-003	-2.51770E-001	3.36441E-002	2.72216E+001	11	...........	5.58790E-002	-3.89125E-003	5.62797E-001	6.56675E-001	-3.00960E-002	-3.93411E-002	6.50537E-001	-4.31760E-002	-1.42111E-003	9.89620E-005	-1.43130E-002	-1.67005E-002	7.65398E-004	1.00052E-003	-1.65444E-002	1.09805E-003
	11	11	4.99678E-002	-2.35315E-002	0.00000E+000	-1.17582E-003	-2.32873E-001	3.34217E-002	2.76264E+001	11	...........	5.55186E-002	-3.89292E-003	5.62691E-001	6.56599E-001	-3.01111E-002	-3.93454E-002	6.50556E-001	-4.31326E-002	-1.30644E-003	9.16063E-005	-1.32410E-002	-1.54508E-002	7.08560E-004	9.25858E-004	-1.53086E-002	1.01498E-003
	12	12	4.99692E-002	-2.19686E-002	0.00000E+000	-1.09775E-003	-2.17334E-001	3.35182E-002	2.82408E+001	11	...........	5.56585E-002	-3.85903E-003	5.62687E-001	6.56556E-001	-3.00914E-002	-3.93464E-002	6.50628E-001	-4.31112E-002	-1.22274E-003	8.47775E-005	-1.23615E-002	-1.44236E-002	6.61066E-004	8.64385E-004	-1.42934E-002	9.47094E-004
	13	13	4.99792E-002	-2.09390E-002	0.00000E+000	-1.04652E-003	-2.07095E-001	3.37386E-002	2.82735E+001	11	...........	5.60351E-002	-3.87514E-003	5.62605E-001	6.56517E-001	-3.00997E-002	-3.93457E-002	6.50817E-001	-4.31625E-002	-1.17332E-003	8.11417E-005	-1.17804E-002	-1.37468E-002	6.30259E-004	8.23861E-004	-1.36275E-002	9.03781E-004
	14	14	4.99784E-002	-1.99365E-002	0.00000E+000	-9.96396E-004	-1.97137E-001	3.36734E-002	2.80484E+001	11	...........	5.59237E-002	-3.92306E-003	5.62563E-001	6.56473E-001	-3.01442E-002	-3.93371E-002	6.50654E-001	-4.32728E-002	-1.11493E-003	7.82121E-005	-1.12156E-002	-1.30878E-002	6.00970E-004	7.84245E-004	-1.29718E-002	8.62709E-004
	15	15	4.99771E-002	-1.90234E-002	0.00000E+000	-9.50735E-004	-1.88046E-001	3.36019E-002	2.78604E+001	11	...........	5.58289E-002	-3.89514E-003	5.62576E-001	6.56472E-001	-3.01092E-002	-3.93435E-002	6.50520E-001	-4.32297E-002	-1.06205E-003	7.40987E-005	-1.07021E-002	-1.24883E-002	5.72778E-004	7.48446E-004	-1.23751E-002	8.22376E-004
	16	16	4.99897E-002	-1.82547E-002	0.00000E+000	-9.12550E-004	-1.80409E-001	3.36891E-002	2.78085E+001	11	...........	5.59672E-002	-3.84583E-003	5.62488E-001	6.56428E-001	-3.01051E-002	-3.93500E-002	6.50370E-001	-4.31740E-002	-1.02167E-003	7.02047E-005	-1.02681E-002	-1.19829E-002	5.49562E-004	7.18324E-004	-1.18723E-002	7.88131E-004
	17	17	4.99820E-002	-1.79316E-002	0.00000E+000	-8.96258E-004	-1.77202E-001	3.36886E-002	2.82035E+001	11	...........	5.59465E-002	-4.01389E-003	5.62487E-001	6.56433E-001	-3.01087E-002	-3.93414E-002	6.50377E-001	-4.30956E-002	-1.00321E-003	7.19755E-005	-1.00863E-002	-1.17709E-002	5.39898E-004	7.05454E-004	-1.16623E-002	7.72773E-004
	18	18	4.99870E-002	-1.73384E-002	0.00000E+000	-8.66692E-004	-1.71294E-001	3.38091E-002	2.83013E+001	11	...........	5.61624E-002	-3.98083E-003	5.62506E-001	6.56394E-001	-3.00844E-002	-3.93206E-002	6.50415E-001	-4.31342E-002	-9.73763E-004	6.90211E-005	-9.75292E-003	-1.13808E-002	5.21615E-004	6.81754E-004	-1.12771E-002	7.47876E-004
	19	19	4.99883E-002	-1.68298E-002	0.00000E+000	-8.41290E-004	-1.66230E-001	3.37118E-002	2.83687E+001	11	...........	5.59849E-002	-3.97042E-003	5.62597E-001	6.56227E-001	-3.01312E-002	-3.93247E-002	6.50429E-001	-4.31401E-002	-9.42211E-004	6.68211E-005	-9.46837E-003	-1.10441E-002	5.07101E-004	6.61825E-004	-1.09466E-002	7.26038E-004
	20	20	4.99840E-002	-1.64124E-002	0.00000E+000	-8.20358E-004	-1.62083E-001	3.36881E-002	2.79157E+001	11	...........	5.61162E-002	-4.00028E-003	5.62663E-001	6.56166E-001	-3.01524E-002	-3.93264E-002	6.50345E-001	-4.31586E-002	-9.21002E-004	6.56541E-005	-9.23465E-003	-1.07692E-002	4.94872E-004	6.45440E-004	-1.06737E-002	7.08336E-004
	21	21	4.99826E-002	-1.60274E-002	0.00000E+000	-8.01089E-004	-1.58251E-001	3.34576E-002	2.84943E+001	11	...........	5.58322E-002	-3.91167E-003	5.62731E-001	6.56094E-001	-3.01651E-002	-3.93243E-002	6.50452E-001	-4.32076E-002	-8.94843E-004	6.26937E-005	-9.01909E-003	-1.05154E-002	4.83467E-004	6.30264E-004	-1.04250E-002	6.92504E-004
	22	22	4.99882E-002	-1.57570E-002	0.00000E+000	-7.87661E-004	-1.55564E-001	3.38528E-002	2.82582E+001	11	...........	5.64904E-002	-4.05806E-003	5.62715E-001	6.56102E-001	-3.01636E-002	-3.93310E-002	6.50436E-001	-4.32251E-002	-8.90117E-004	6.39426E-005	-8.86667E-003	-1.03382E-002	4.75287E-004	6.19737E-004	-1.02489E-002	6.81097E-004
	23	23	4.99894E-002	-1.53626E-002	0.00000E+000	-7.67970E-004	-1.51645E-001	3.34658E-002	2.86692E+001	11	...........	5.58433E-002	-4.01153E-003	5.62588E-001	6.56237E-001	-3.01625E-002	-3.93307E-002	6.50401E-001	-4.32458E-002	-8.57902E-004	6.16277E-005	-8.64285E-003	-1.00815E-002	4.63376E-004	6.04224E-004	-9.99189E-003	6.64370E-004
	24	24	4.99836E-002	-1.50903E-002	0.00000E+000	-7.54266E-004	-1.48935E-001	3.37931E-002	2.81989E+001	11	...........	5.63882E-002	-3.92667E-003	5.62740E-001	6.56183E-001	-3.01806E-002	-3.93304E-002	6.50574E-001	-4.32594E-002	-8.50913E-004	5.92545E-005	-8.49191E-003	-9.90199E-003	4.55433E-004	5.93507E-004	-9.81734E-003	6.52797E-004
	25	25	4.99873E-002	-1.46824E-002	0.00000E+000	-7.33936E-004	-1.44873E-001	3.36527E-002	2.86723E+001	11	...........	5.61349E-002	-3.95333E-003	5.62636E-001	6.56065E-001	-3.01658E-002	-3.93324E-002	6.50660E-001	-4.32600E-002	-8.24196E-004	5.80445E-005	-8.26086E-003	-9.63263E-003	4.42908E-004	5.77495E-004	-9.55326E-003	6.35162E-004
	26	26	4.99892E-002	-1.44892E-002	0.00000E+000	-7.24302E-004	-1.42951E-001	3.37259E-002	2.87035E+001	11	...........	5.62656E-002	-3.99458E-003	5.62806E-001	6.56175E-001	-3.01392E-002	-3.93404E-002	6.50662E-001	-4.31915E-002	-8.15241E-004	5.78782E-005	-8.15459E-003	-9.50743E-003	4.36691E-004	5.70010E-004	-9.42756E-003	6.25809E-004
	27	27	4.99841E-002	-1.42244E-002	0.00000E+000	-7.10995E-004	-1.40321E-001	3.37785E-002	2.86562E+001	11	...........	5.63249E-002	-4.07167E-003	5.62780E-001	6.56210E-001	-3.01317E-002	-3.93437E-002	6.50678E-001	-4.30193E-002	-8.01189E-004	5.79171E-005	-8.00522E-003	-9.33422E-003	4.28606E-004	5.59643E-004	-9.25553E-003	6.11925E-004
	28	28	4.99887E-002	-1.37573E-002	0.00000E+000	-6.87712E-004	-1.35676E-001	3.37050E-002	2.84858E+001	11	...........	5.62289E-002	-4.07194E-003	5.62713E-001	6.56340E-001	-3.01486E-002	-3.93600E-002	6.50647E-001	-4.30169E-002	-7.73560E-004	5.60192E-005	-7.74143E-003	-9.02950E-003	4.14765E-004	5.41489E-004	-8.95118E-003	5.91799E-004
	29	29	4.99876E-002	-1.33823E-002	0.00000E+000	-6.68952E-004	-1.31942E-001	3.35963E-002	2.82793E+001	11	...........	5.60496E-002	-4.06847E-003	5.62777E-001	6.56396E-001	-3.01619E-002	-3.93260E-002	6.50651E-001	-4.31575E-002	-7.50075E-004	5.44457E-005	-7.53127E-003	-8.78412E-003	4.03637E-004	5.26274E-004	-8.70724E-003	5.77548E-004
	30	30	4.99954E-002	-1.33844E-002	0.00000E+000	-6.69157E-004	-1.31959E-001	3.38557E-002	2.90295E+001	11	...........	5.64943E-002	-4.05292E-003	5.62810E-001	6.56500E-001	-3.01771E-002	-3.93217E-002	6.50784E-001	-4.32496E-002	-7.56140E-004	5.42457E-005	-7.53285E-003	-8.78683E-003	4.03901E-004	5.26295E-004	-8.71033E-003	5.78868E-004
	31	31	4.99823E-002	-1.30681E-002	0.00000E+000	-6.53173E-004	-1.28822E-001	3.36486E-002	2.87763E+001	11	...........	5.61493E-002	-4.01792E-003	5.62890E-001	6.56523E-001	-3.01944E-002	-3.93542E-002	6.50749E-001	-4.32792E-002	-7.33764E-004	5.25065E-005	-7.35590E-003	-8.57950E-003	3.94584E-004	5.14284E-004	-8.50404E-003	5.65576E-004
	32	32	4.99921E-002	-1.29254E-002	0.00000E+000	-6.46168E-004	-1.27408E-001	3.39035E-002	2.85936E+001	11	...........	5.65704E-002	-4.04069E-003	5.62867E-001	6.56629E-001	-3.02131E-002	-3.93633E-002	6.50780E-001	-4.32483E-002	-7.31196E-004	5.22276E-005	-7.27529E-003	-8.48720E-003	3.90516E-004	5.08787E-004	-8.41160E-003	5.59002E-004
	33	33	4.99842E-002	-1.26798E-002	0.00000E+000	-6.33789E-004	-1.24962E-001	3.37753E-002	2.89882E+001	11	...........	5.63746E-002	-4.03097E-003	5.62856E-001	6.56561E-001	-3.01969E-002	-3.93711E-002	6.50670E-001	-4.32471E-002	-7.14817E-004	5.11118E-005	-7.13689E-003	-8.32506E-003	3.82891E-004	4.99217E-004	-8.25035E-003	5.48364E-004
	34	34	4.99906E-002	-1.22863E-002	0.00000E+000	-6.14199E-004	-1.21042E-001	3.38644E-002	2.87078E+001	11	...........	5.65047E-002	-4.04431E-003	5.62791E-001	6.56538E-001	-3.01971E-002	-3.93768E-002	6.50707E-001	-4.31904E-002	-6.94234E-004	4.96895E-005	-6.91462E-003	-8.06643E-003	3.71010E-004	4.83795E-004	-7.99478E-003	5.30650E-004
	35	35	4.99869E-002	-1.22593E-002	0.00000E+000	-6.12804E-004	-1.20774E-001	3.37235E-002	2.87393E+001	11	...........	5.62910E-002	-3.91000E-003	5.62683E-001	6.56539E-001	-3.02064E-002	-3.94008E-002	6.50752E-001	-4.32337E-002	-6.90087E-004	4.79338E-005	-6.89809E-003	-8.04870E-003	3.70309E-004	4.83026E-004	-7.97776E-003	5.30015E-004
	36	36	4.99847E-002	-1.19747E-002	0.00000E+000	-5.98550E-004	-1.17943E-001	3.37620E-002	2.88856E+001	11	...........	5.63310E-002	-3.90375E-003	5.62596E-001	6.56568E-001	-3.02021E-002	-3.93975E-002	6.50703E-001	-4.32587E-002	-6.74544E-004	4.67461E-005	-6.73689E-003	-7.86217E-003	3.61660E-004	4.71772E-004	-7.79194E-003	5.18009E-004
	37	37	4.99951E-002	-1.19473E-002	0.00000E+000	-5.97306E-004	-1.17670E-001	3.39936E-002	2.89102E+001	11	...........	5.67136E-002	-3.97264E-003	5.62581E-001	6.56520E-001	-3.02144E-002	-3.93799E-002	6.50834E-001	-4.32326E-002	-6.77574E-004	4.74623E-005	-6.72132E-003	-7.84364E-003	3.60981E-004	4.70483E-004	-7.77570E-003	5.16513E-004
	38	38	4.99844E-002	-1.14800E-002	0.00000E+000	-5.73821E-004	-1.13028E-001	3.37803E-002	2.90134E+001	11	...........	5.63787E-002	-4.02111E-003	5.62553E-001	6.56492E-001	-3.01869E-002	-3.93615E-002	6.50826E-001	-4.32744E-002	-6.47228E-004	4.61623E-005	-6.45811E-003	-7.53652E-003	3.46546E-004	4.51870E-004	-7.47148E-003	4.96790E-004
	39	39	4.99880E-002	-1.13724E-002	0.00000E+000	-5.68481E-004	-1.11960E-001	3.38103E-002	2.86431E+001	11	...........	5.63969E-002	-3.97806E-003	5.62610E-001	6.56505E-001	-3.01531E-002	-3.93431E-002	6.50649E-001	-4.32336E-002	-6.41366E-004	4.52399E-005	-6.39820E-003	-7.46601E-003	3.42911E-004	4.47423E-004	-7.39942E-003	4.91668E-004
	40	40	4.99934E-002	-1.13150E-002	0.00000E+000	-5.65675E-004	-1.11384E-001	3.39957E-002	2.91476E+001	11	...........	5.67106E-002	-3.89458E-003	5.62647E-001	6.56464E-001	-3.01558E-002	-3.93101E-002	6.50652E-001	-4.31497E-002	-6.41679E-004	4.40671E-005	-6.36634E-003	-7.42787E-003	3.41213E-004	4.44794E-004	-7.36212E-003	4.88238E-004
	41	41	4.99876E-002	-1.11148E-002	0.00000E+000	-5.55602E-004	-1.09391E-001	3.38822E-002	2.87856E+001	11	...........	5.65246E-002	-3.88569E-003	5.62505E-001	6.56311E-001	-3.01510E-002	-3.93099E-002	6.50780E-001	-4.32093E-002	-6.28260E-004	4.31887E-005	-6.25214E-003	-7.29477E-003	3.35122E-004	4.36922E-004	-7.23330E-003	4.80263E-004
	42	42	4.99887E-002	-1.09756E-002	0.00000E+000	-5.48657E-004	-1.08005E-001	3.38695E-002	2.87730E+001	11	...........	5.65226E-002	-3.89542E-003	5.62454E-001	6.56381E-001	-3.01928E-002	-3.93043E-002	6.50822E-001	-4.32169E-002	-6.20371E-004	4.27546E-005	-6.17328E-003	-7.20418E-003	3.31384E-004	4.31389E-004	-7.14317E-003	4.74333E-004
	43	43	4.99897E-002	-1.07469E-002	0.00000E+000	-5.37236E-004	-1.05725E-001	3.38123E-002	2.93555E+001	11	...........	5.64164E-002	-3.87014E-003	5.62553E-001	6.56394E-001	-3.01942E-002	-3.93279E-002	6.50734E-001	-4.31458E-002	-6.06304E-004	4.15922E-005	-6.04572E-003	-7.05422E-003	3.24495E-004	4.22655E-004	-6.99340E-003	4.63686E-004
	44	44	4.99863E-002	-1.06224E-002	0.00000E+000	-5.30973E-004	-1.04495E-001	3.40076E-002	2.90238E+001	11	...........	5.67407E-002	-3.98000E-003	5.62722E-001	6.56506E-001	-3.02050E-002	-3.93160E-002	6.50715E-001	-4.31164E-002	-6.02721E-004	4.22771E-005	-5.97745E-003	-6.97366E-003	3.20849E-004	4.17629E-004	-6.91214E-003	4.57999E-004
	45	45	4.99909E-002	-1.03819E-002	0.00000E+000	-5.18999E-004	-1.02132E-001	3.38965E-002	2.88946E+001	11	...........	5.65643E-002	-4.05236E-003	5.62695E-001	6.56550E-001	-3.02008E-002	-3.93403E-002	6.50794E-001	-4.29875E-002	-5.87243E-004	4.20710E-005	-5.84182E-003	-6.81621E-003	3.13541E-004	4.08425E-004	-6.75645E-003	4.46290E-004
	46	46	4.99895E-002	-1.02633E-002	0.00000E+000	-5.13059E-004	-1.00955E-001	3.38868E-002	2.91459E+001	11	...........	5.65517E-002	-4.04389E-003	5.62916E-001	6.56608E-001	-3.02039E-002	-3.93594E-002	6.50664E-001	-4.30140E-002	-5.80408E-004	4.15038E-005	-5.77739E-003	-6.73899E-003	3.09993E-004	4.03959E-004	-6.67798E-003	4.41467E-004
	47	47	4.99890E-002	-1.01090E-002	0.00000E+000	-5.05338E-004	-9.94297E-002	3.38970E-002	2.90621E+001	11	...........	5.65443E-002	-4.04819E-003	5.63021E-001	6.56698E-001	-3.01507E-002	-3.93276E-002	6.50712E-001	-4.29376E-002	-5.71605E-004	4.09231E-005	-5.69157E-003	-6.63855E-003	3.04793E-004	3.97562E-004	-6.57803E-003	4.34056E-004
	48	48	4.99889E-002	-9.94794E-003	0.00000E+000	-4.97286E-004	-9.78223E-002	3.39380E-002	2.90468E+001	11	...........	5.66196E-002	-4.08694E-003	5.63019E-001	6.56580E-001	-3.01311E-002	-3.93126E-002	6.50715E-001	-4.29947E-002	-5.63248E-004	4.06567E-005	-5.60087E-003	-6.53162E-003	2.99742E-004	3.91080E-004	-6.47327E-003	4.27709E-004
	49	49	4.99909E-002	-9.83113E-003	0.00000E+000	-4.91467E-004	-9.66570E-002	3.39851E-002	2.93772E+001	11	...........	5.67221E-002	-4.13403E-003	5.62953E-001	6.56722E-001	-3.01318E-002	-3.93239E-002	6.50687E-001	-4.30886E-002	-5.57642E-004	4.06422E-005	-5.53446E-003	-6.45632E-003	2.96230E-004	3.86598E-004	-6.39699E-003	4.23610E-004
	50	50	4.99856E-002	-9.55829E-003	0.00000E+000	-4.77777E-004	-9.39440E-002	3.38631E-002	2.94488E+001	11	...........	5.64682E-002	-4.05000E-003	5.62823E-001	6.56668E-001	-3.01579E-002	-3.93401E-002	6.50617E-001	-4.31472E-002	-5.39739E-004	3.87111E-005	-5.37962E-003	-6.27662E-003	2.88258E-004	3.76024E-004	-6.21879E-003	4.12414E-004
	51	51	4.99941E-002	-9.44674E-003	0.00000E+000	-4.72281E-004	-9.28377E-002	3.40521E-002	2.88166E+001	11	...........	5.68103E-002	-3.94458E-003	5.62800E-001	6.56656E-001	-3.01604E-002	-3.92940E-002	6.50834E-001	-4.32233E-002	-5.36672E-004	3.72635E-005	-5.31662E-003	-6.20326E-003	2.84918E-004	3.71201E-004	-6.14826E-003	4.08320E-004
	52	52	4.99878E-002	-9.46205E-003	0.00000E+000	-4.72987E-004	-9.29870E-002	3.38847E-002	2.94489E+001	11	...........	5.65353E-002	-3.88597E-003	5.62896E-001	6.56799E-001	-3.02015E-002	-3.92947E-002	6.50676E-001	-4.32249E-002	-5.34940E-004	3.67693E-005	-5.32615E-003	-6.21467E-003	2.85768E-004	3.71809E-004	-6.15672E-003	4.08996E-004
	53	53	4.99895E-002	-9.22088E-003	0.00000E+000	-4.60947E-004	-9.05900E-002	3.39234E-002	2.93647E+001	11	...........	5.65932E-002	-3.92319E-003	5.62968E-001	6.56878E-001	-3.01918E-002	-3.92935E-002	6.50540E-001	-4.32462E-002	-5.21839E-004	3.61753E-005	-5.19106E-003	-6.05699E-003	2.78395E-004	3.62320E-004	-5.99855E-003	3.98768E-004
	54	54	4.99907E-002	-9.06155E-003	0.00000E+000	-4.52993E-004	-8.90047E-002	3.40218E-002	2.88430E+001	11	...........	5.67593E-002	-3.91500E-003	5.63021E-001	6.56822E-001	-3.01575E-002	-3.92661E-002	6.50569E-001	-4.31047E-002	-5.14327E-004	3.54760E-005	-5.10184E-003	-5.95182E-003	2.73274E-004	3.55812E-004	-5.89516E-003	3.90595E-004
	55	55	4.99907E-002	-9.01708E-003	0.00000E+000	-4.50770E-004	-8.85640E-002	3.39732E-002	2.94237E+001	11	...........	5.66671E-002	-3.90986E-003	5.63103E-001	6.56794E-001	-3.01631E-002	-3.92746E-002	6.50497E-001	-4.31347E-002	-5.10972E-004	3.52555E-005	-5.07754E-003	-5.92236E-003	2.71983E-004	3.54142E-004	-5.86559E-003	3.88949E-004
	56	56	4.99881E-002	-8.90890E-003	0.00000E+000	-4.45339E-004	-8.74887E-002	3.39643E-002	2.93060E+001	11	...........	5.66682E-002	-3.89917E-003	5.63029E-001	6.56834E-001	-3.02112E-002	-3.92986E-002	6.50501E-001	-4.31218E-002	-5.04851E-004	3.47373E-005	-5.01597E-003	-5.85167E-003	2.69149E-004	3.50107E-004	-5.79525E-003	3.84168E-004
	57	57	4.99920E-002	-8.83065E-003	0.00000E+000	-4.41462E-004	-8.67077E-002	3.40892E-002	2.93596E+001	11	...........	5.68696E-002	-3.90264E-003	5.63000E-001	6.56784E-001	-3.02028E-002	-3.93201E-002	6.50634E-001	-4.31524E-002	-5.02195E-004	3.44628E-005	-4.97165E-003	-5.79983E-003	2.66710E-004	3.47222E-004	-5.74552E-003	3.81063E-004
	58	58	4.99868E-002	-8.63988E-003	0.00000E+000	-4.31880E-004	-8.48080E-002	3.40337E-002	2.88403E+001	11	...........	5.67447E-002	-3.89806E-003	5.62934E-001	6.56584E-001	-3.01675E-002	-3.92908E-002	6.50749E-001	-4.32019E-002	-4.90268E-004	3.36787E-005	-4.86368E-003	-5.67281E-003	2.60644E-004	3.39468E-004	-5.62239E-003	3.73260E-004
	59	59	4.99924E-002	-8.36314E-003	0.00000E+000	-4.18093E-004	-8.20540E-002	3.37127E-002	2.90393E+001	11	...........	5.62408E-002	-3.87153E-003	5.63003E-001	6.56631E-001	-3.01300E-002	-3.92829E-002	6.50724E-001	-4.33271E-002	-4.70350E-004	3.23781E-005	-4.70847E-003	-5.49150E-003	2.51982E-004	3.28529E-004	-5.44210E-003	3.62351E-004
	60	60	4.99890E-002	-8.47709E-003	0.00000E+000	-4.23761E-004	-8.31903E-002	3.41810E-002	2.93281E+001	11	...........	5.70382E-002	-3.88361E-003	5.63138E-001	6.56606E-001	-3.01097E-002	-3.93058E-002	6.50832E-001	-4.33901E-002	-4.83518E-004	3.29217E-005	-4.77377E-003	-5.56611E-003	2.55243E-004	3.33199E-004	-5.51716E-003	3.67822E-004
	61	61	4.99853E-002	-8.35316E-003	0.00000E+000	-4.17535E-004	-8.19583E-002	3.42141E-002	2.91600E+001	11	...........	5.70821E-002	-3.90444E-003	5.63269E-001	6.56562E-001	-3.01786E-002	-3.93321E-002	6.50750E-001	-4.33637E-002	-4.76816E-004	3.26144E-005	-4.70508E-003	-5.48437E-003	2.52087E-004	3.28547E-004	-5.43582E-003	3.62224E-004
	62	62	4.99920E-002	-8.11712E-003	0.00000E+000	-4.05791E-004	-7.96060E-002	3.39078E-002	2.92528E+001	11	...........	5.65753E-002	-3.85528E-003	5.63184E-001	6.56549E-001	-3.01912E-002	-3.93140E-002	6.50769E-001	-4.32814E-002	-4.59228E-004	3.12937E-005	-4.57143E-003	-5.32929E-003	2.45066E-004	3.19116E-004	-5.28237E-003	3.51320E-004
	63	63	4.99896E-002	-8.10646E-003	0.00000E+000	-4.05239E-004	-7.94963E-002	3.41397E-002	2.91559E+001	11	...........	5.69607E-002	-3.86736E-003	5.63415E-001	6.56519E-001	-3.01875E-002	-3.93047E-002	6.50770E-001	-4.32787E-002	-4.61750E-004	3.13506E-005	-4.56730E-003	-5.32205E-003	2.44714E-004	3.18622E-004	-5.27544E-003	3.50838E-004
	64	64	4.99905E-002	-7.90185E-003	0.00000E+000	-3.95018E-004	-7.74637E-002	3.39069E-002	2.92916E+001	11	...........	5.65921E-002	-3.99389E-003	5.63445E-001	6.56541E-001	-3.01611E-002	-3.93133E-002	6.50787E-001	-4.32369E-002	-4.47182E-004	3.15591E-005	-4.45226E-003	-5.18789E-003	2.38329E-004	3.10648E-004	-5.14242E-003	3.41652E-004
	65	65	4.99935E-002	-7.90203E-003	0.00000E+000	-3.95050E-004	-7.74700E-002	3.41686E-002	2.93328E+001	11	...........	5.70242E-002	-3.93681E-003	5.63402E-001	6.56666E-001	-3.02381E-002	-3.92915E-002	6.50792E-001	-4.33054E-002	-4.50607E-004	3.11087E-005	-4.45202E-003	-5.18899E-003	2.38942E-004	3.10483E-004	-5.14257E-003	3.42201E-004
	66	66	4.99885E-002	-7.80756E-003	0.00000E+000	-3.90288E-004	-7.65477E-002	3.40501E-002	2.96043E+001	11	...........	5.68079E-002	-4.02722E-003	5.63356E-001	6.56615E-001	-3.02333E-002	-3.92911E-002	6.50837E-001	-4.32362E-002	-4.43531E-004	3.14428E-005	-4.39843E-003	-5.12657E-003	2.36049E-004	3.06768E-004	-5.08145E-003	3.37570E-004
	67	67	4.99895E-002	-7.64974E-003	0.00000E+000	-3.82406E-004	-7.49743E-002	3.39725E-002	2.90913E+001	11	...........	5.66990E-002	-4.05278E-003	5.63279E-001	6.56589E-001	-3.01917E-002	-3.92993E-002	6.50774E-001	-4.33500E-002	-4.33733E-004	3.10027E-005	-4.30894E-003	-5.02273E-003	2.30958E-004	3.00630E-004	-4.97826E-003	3.31616E-004
	68	68	4.99913E-002	-7.63939E-003	0.00000E+000	-3.81903E-004	-7.48720E-002	3.42809E-002	2.95354E+001	11	...........	5.71868E-002	-4.00597E-003	5.63291E-001	6.56564E-001	-3.01539E-002	-3.93436E-002	6.50767E-001	-4.33706E-002	-4.36872E-004	3.06032E-005	-4.30320E-003	-5.01575E-003	2.30357E-004	3.00561E-004	-4.97147E-003	3.31325E-004
	69	69	4.99886E-002	-7.52576E-003	0.00000E+000	-3.76202E-004	-7.37393E-002	3.39947E-002	2.95432E+001	11	...........	5.67097E-002	-4.02764E-003	5.63277E-001	6.56473E-001	-3.01762E-002	-3.93518E-002	6.50773E-001	-4.32235E-002	-4.26784E-004	3.03111E-005	-4.23909E-003	-4.94046E-003	2.27099E-004	2.96152E-004	-4.89756E-003	3.25290E-004
	70	70	4.99897E-002	-7.40415E-003	0.00000E+000	-3.70131E-004	-7.25267E-002	3.39385E-002	2.93592E+001	11	...........	5.66343E-002	-3.85028E-003	5.63413E-001	6.56498E-001	-3.01744E-002	-3.93443E-002	6.50885E-001	-4.31532E-002	-4.19329E-004	2.85080E-005	-4.17159E-003	-4.86081E-003	2.23416E-004	2.91311E-004	-4.81925E-003	3.19513E-004
	71	71	4.99893E-002	-7.23355E-003	0.00000E+000	-3.61601E-004	-7.08257E-002	3.43082E-002	2.92517E+001	11	...........	5.72236E-002	-3.80944E-003	5.63364E-001	6.56537E-001	-3.01732E-002	-3.93244E-002	6.50862E-001	-4.31967E-002	-4.13930E-004	2.75558E-005	-4.07513E-003	-4.74910E-003	2.18259E-004	2.84455E-004	-4.70804E-003	3.12465E-004
	72	72	4.99918E-002	-7.20460E-003	0.00000E+000	-3.60171E-004	-7.05390E-002	3.40339E-002	2.89032E+001	11	...........	5.67854E-002	-3.87597E-003	5.63395E-001	6.56468E-001	-3.01599E-002	-3.93360E-002	6.50803E-001	-4.32150E-002	-4.09116E-004	2.79248E-005	-4.05904E-003	-4.72959E-003	2.17290E-004	2.83400E-004	-4.68877E-003	3.11347E-004
	73	73	4.99882E-002	-7.05473E-003	0.00000E+000	-3.52653E-004	-6.90503E-002	3.39877E-002	2.87160E+001	11	...........	5.67079E-002	-3.93903E-003	5.63350E-001	6.56446E-001	-3.02083E-002	-3.93689E-002	6.50681E-001	-4.32512E-002	-4.00059E-004	2.77888E-005	-3.97428E-003	-4.63105E-003	2.13112E-004	2.77737E-004	-4.59038E-003	3.05126E-004
	74	74	4.99918E-002	-7.04764E-003	0.00000E+000	-3.52324E-004	-6.89767E-002	3.41529E-002	2.91423E+001	11	...........	5.69579E-002	-3.81319E-003	5.63512E-001	6.56463E-001	-3.02611E-002	-3.93742E-002	6.50792E-001	-4.33219E-002	-4.01419E-004	2.68740E-005	-3.97143E-003	-4.62651E-003	2.13269E-004	2.77495E-004	-4.58654E-003	3.05317E-004
	75	75	4.99913E-002	-7.02905E-003	0.00000E+000	-3.51391E-004	-6.87953E-002	3.42818E-002	2.93983E+001	11	...........	5.71950E-002	-3.75111E-003	5.63681E-001	6.56550E-001	-3.02443E-002	-3.93757E-002	6.50790E-001	-4.33071E-002	-4.02027E-004	2.63668E-005	-3.96214E-003	-4.61493E-003	2.12589E-004	2.76774E-004	-4.57443E-003	3.04408E-004
	76	76	4.99897E-002	-6.88570E-003	0.00000E+000	-3.44214E-004	-6.73667E-002	3.40743E-002	2.92938E+001	11	...........	5.68567E-002	-3.84958E-003	5.63513E-001	6.56619E-001	-3.02044E-002	-3.93886E-002	6.50795E-001	-4.31961E-002	-3.91498E-004	2.65071E-005	-3.88018E-003	-4.52128E-003	2.07979E-004	2.71218E-004	-4.48118E-003	2.97435E-004
	77	77	4.99900E-002	-6.79085E-003	0.00000E+000	-3.39475E-004	-6.64193E-002	3.41658E-002	2.91147E+001	11	...........	5.69910E-002	-3.76347E-003	5.63477E-001	6.56563E-001	-3.02004E-002	-3.93944E-002	6.50806E-001	-4.31285E-002	-3.87017E-004	2.55572E-005	-3.82649E-003	-4.45862E-003	2.05087E-004	2.67522E-004	-4.41953E-003	2.92879E-004
	78	78	4.99888E-002	-6.74167E-003	0.00000E+000	-3.37008E-004	-6.59330E-002	3.41221E-002	2.93596E+001	11	...........	5.69282E-002	-3.81125E-003	5.63310E-001	6.56446E-001	-3.02372E-002	-3.93961E-002	6.50644E-001	-4.30765E-002	-3.83791E-004	2.56942E-005	-3.79765E-003	-4.42555E-003	2.03849E-004	2.65596E-004	-4.38643E-003	2.90408E-004
	79	79	4.99916E-002	-6.71517E-003	0.00000E+000	-3.35702E-004	-6.56707E-002	3.42021E-002	2.93457E+001	11	...........	5.70518E-002	-3.84542E-003	5.63318E-001	6.56400E-001	-3.02799E-002	-3.93951E-002	6.50624E-001	-4.30601E-002	-3.83112E-004	2.58226E-005	-3.78278E-003	-4.40784E-003	2.03334E-004	2.64545E-004	-4.36905E-003	2.89156E-004
	80	80	4.99898E-002	-6.60906E-003	0.00000E+000	-3.30385E-004	-6.46067E-002	3.41492E-002	2.92866E+001	11	...........	5.69743E-002	-3.86333E-003	5.63264E-001	6.56336E-001	-3.02835E-002	-3.93940E-002	6.50674E-001	-4.30504E-002	-3.76546E-004	2.55330E-005	-3.72264E-003	-4.33776E-003	2.00145E-004	2.60357E-004	-4.30034E-003	2.84523E-004
	81	81	4.99896E-002	-6.51224E-003	0.00000E+000	-3.25544E-004	-6.36533E-002	3.42048E-002	2.92009E+001	11	...........	5.70410E-002	-3.78861E-003	5.63269E-001	6.56407E-001	-3.02362E-002	-3.93847E-002	6.50611E-001	-4.31551E-002	-3.71465E-004	2.46724E-005	-3.66815E-003	-4.27468E-003	1.96906E-004	2.56483E-004	-4.23694E-003	2.81037E-004
	82	82	4.99901E-002	-6.44833E-003	0.00000E+000	-3.22352E-004	-6.30237E-002	3.41403E-002	2.92693E+001	11	...........	5.69544E-002	-3.84736E-003	5.63442E-001	6.56533E-001	-3.02517E-002	-3.93610E-002	6.50540E-001	-4.31462E-002	-3.67261E-004	2.48090E-005	-3.63326E-003	-4.23354E-003	1.95073E-004	2.53812E-004	-4.19490E-003	2.78221E-004
	83	83	4.99917E-002	-6.39721E-003	0.00000E+000	-3.19807E-004	-6.25083E-002	3.41470E-002	2.98826E+001	11	...........	5.69633E-002	-3.87639E-003	5.63420E-001	6.56699E-001	-3.02787E-002	-3.93747E-002	6.50670E-001	-4.31885E-002	-3.64406E-004	2.47981E-005	-3.60431E-003	-4.20104E-003	1.93700E-004	2.51888E-004	-4.16247E-003	2.76286E-004
	84	84	4.99902E-002	-6.30984E-003	0.00000E+000	-3.15430E-004	-6.16377E-002	3.41211E-002	2.91647E+001	11	...........	5.69403E-002	-3.89694E-003	5.63277E-001	6.56656E-001	-3.02756E-002	-3.93594E-002	6.50806E-001	-4.31779E-002	-3.59284E-004	2.45891E-005	-3.55419E-003	-4.14340E-003	1.91034E-004	2.48352E-004	-4.10649E-003	2.72446E-004
	85	85	4.99911E-002	-6.26505E-003	0.00000E+000	-3.13197E-004	-6.11930E-002	3.42510E-002	2.93256E+001	11	...........	5.71376E-002	-3.83806E-003	5.63220E-001	6.56682E-001	-3.02883E-002	-3.93417E-002	6.50817E-001	-4.30687E-002	-3.57970E-004	2.40456E-005	-3.52860E-003	-4.11414E-003	1.89758E-004	2.46477E-004	-4.07740E-003	2.69828E-004
	86	86	4.99895E-002	-6.25108E-003	0.00000E+000	-3.12488E-004	-6.10527E-002	3.43324E-002	2.96473E+001	11	...........	5.72965E-002	-3.84208E-003	5.63260E-001	6.56639E-001	-3.02608E-002	-3.93307E-002	6.50906E-001	-4.30489E-002	-3.58165E-004	2.40172E-005	-3.52098E-003	-4.10470E-003	1.89163E-004	2.45859E-004	-4.06886E-003	2.69102E-004
	87	87	4.99903E-002	-6.08294E-003	0.00000E+000	-3.04088E-004	-5.93787E-002	3.40575E-002	2.92716E+001	11	...........	5.68235E-002	-3.97653E-003	5.63298E-001	6.56635E-001	-3.02392E-002	-3.93608E-002	6.50761E-001	-4.30914E-002	-3.45654E-004	2.41890E-005	-3.42651E-003	-3.99427E-003	1.83943E-004	2.39429E-004	-3.95854E-003	2.62122E-004
	88	88	4.99892E-002	-6.03557E-003	0.00000E+000	-3.01713E-004	-5.89070E-002	3.42288E-002	2.93018E+001	11	...........	5.71115E-002	-3.91375E-003	5.63466E-001	6.56745E-001	-3.02647E-002	-3.93707E-002	6.50658E-001	-4.31594E-002	-3.44701E-004	2.36217E-005	-3.40084E-003	-3.96383E-003	1.82665E-004	2.37625E-004	-3.92709E-003	2.60492E-004
	89	89	4.99923E-002	-6.01710E-003	0.00000E+000	-3.00808E-004	-5.87240E-002	3.42437E-002	2.97441E+001	11	...........	5.71364E-002	-3.95264E-003	5.63329E-001	6.56781E-001	-3.02715E-002	-3.93719E-002	6.50735E-001	-4.31679E-002	-3.43795E-004	2.37834E-005	-3.38961E-003	-3.95191E-003	1.82147E-004	2.36905E-004	-3.91553E-003	2.59746E-004
	90	90	4.99893E-002	-5.91715E-003	0.00000E+000	-2.95794E-004	-5.77277E-002	3.41660E-002	2.97815E+001	11	...........	5.70051E-002	-3.97444E-003	5.63409E-001	6.56645E-001	-3.02893E-002	-3.93885E-002	6.50616E-001	-4.33544E-002	-3.37308E-004	2.35174E-005	-3.33378E-003	-3.88546E-003	1.79226E-004	2.33067E-004	-3.84979E-003	2.56535E-004
	91	91	4.99907E-002	-5.84407E-003	0.00000E+000	-2.92149E-004	-5.69997E-002	3.42086E-002	2.92029E+001	11	...........	5.70715E-002	-3.94653E-003	5.63463E-001	6.56727E-001	-3.02435E-002	-3.94076E-002	6.50653E-001	-4.33531E-002	-3.33530E-004	2.30638E-005	-3.29292E-003	-3.83795E-003	1.76745E-004	2.30301E-004	-3.80246E-003	2.53358E-004
	92	92	4.99907E-002	-5.80015E-003	0.00000E+000	-2.89953E-004	-5.65630E-002	3.42190E-002	2.97656E+001	11	...........	5.70940E-002	-3.95903E-003	5.63586E-001	6.56833E-001	-3.02569E-002	-3.94279E-002	6.50699E-001	-4.33235E-002	-3.31154E-004	2.29629E-005	-3.26889E-003	-3.80973E-003	1.75495E-004	2.28688E-004	-3.77415E-003	2.51283E-004
	93	93	4.99891E-002	-5.75753E-003	0.00000E+000	-2.87814E-004	-5.61400E-002	3.42710E-002	2.95932E+001	11	...........	5.71757E-002	-3.89292E-003	5.63575E-001	6.57007E-001	-3.02767E-002	-3.94436E-002	6.50767E-001	-4.32558E-002	-3.29191E-004	2.24136E-005	-3.24480E-003	-3.78274E-003	1.74319E-004	2.27098E-004	-3.74681E-003	2.49047E-004
	94	94	4.99914E-002	-5.69486E-003	0.00000E+000	-2.84694E-004	-5.55193E-002	3.42098E-002	2.96147E+001	11	...........	5.70906E-002	-3.99806E-003	5.63621E-001	6.57020E-001	-3.02832E-002	-3.94514E-002	6.50770E-001	-4.31451E-002	-3.25123E-004	2.27684E-005	-3.20975E-003	-3.74164E-003	1.72459E-004	2.24670E-004	-3.70604E-003	2.45706E-004
	95	95	4.99901E-002	-5.63776E-003	0.00000E+000	-2.81832E-004	-5.49477E-002	3.42307E-002	2.91202E+001	11	...........	5.71142E-002	-3.98972E-003	5.63561E-001	6.57036E-001	-3.02947E-002	-3.94386E-002	6.50716E-001	-4.30885E-002	-3.21996E-004	2.24931E-005	-3.17722E-003	-3.70421E-003	1.70794E-004	2.22345E-004	-3.66858E-003	2.42922E-004
	96	96	4.99920E-002	-5.54287E-003	0.00000E+000	-2.77099E-004	-5.40043E-002	3.41275E-002	2.96069E+001	11	...........	5.71433E-002	-3.98181E-003	5.63574E-001	6.57066E-001	-3.02271E-002	-3.94161E-002	6.50739E-001	-4.32299E-002	-3.16738E-004	2.20706E-005	-3.12382E-003	-3.64203E-003	1.67545E-004	2.18478E-004	-3.60696E-003	2.39617E-004
	97	97	4.99897E-002	-5.52445E-003	0.00000E+000	-2.76166E-004	-5.38227E-002	3.41973E-002	2.98034E+001	11	...........	5.70583E-002	-4.02181E-003	5.63642E-001	6.56940E-001	-3.01871E-002	-3.94240E-002	6.50902E-001	-4.33012E-002	-3.15216E-004	2.22183E-005	-3.11381E-003	-3.62923E-003	1.66767E-004	2.17796E-004	-3.59588E-003	2.39216E-004
	98	98	4.99911E-002	-5.48398E-003	0.00000E+000	-2.74150E-004	-5.34150E-002	3.43507E-002	2.94179E+001	11	...........	5.73090E-002	-4.03556E-003	5.63691E-001	6.56758E-001	-3.02026E-002	-3.94365E-002	6.50933E-001	-4.32911E-002	-3.14281E-004	2.21309E-005	-3.09127E-003	-3.60164E-003	1.65631E-004	2.16269E-004	-3.56970E-003	2.37407E-004
	99	99	4.99909E-002	-5.40882E-003	0.00000E+000	-2.70392E-004	-5.26727E-002	3.41857E-002	2.96414E+001	11	...........	5.70269E-002	-4.08389E-003	5.63710E-001	6.56858E-001	-3.02371E-002	-3.94206E-002	6.50854E-001	-4.32722E-002	-3.08448E-004	2.20890E-005	-3.04901E-003	-3.55283E-003	1.63547E-004	2.13219E-004	-3.52035E-003	2.34052E-004
	100	100	4.99896E-002	-5.38530E-003	0.00000E+000	-2.69209E-004	-5.24390E-002	3.43862E-002	2.95090E+001	11	...........	5.73679E-002	-3.98847E-003	5.63643E-001	6.56820E-001	-3.02322E-002	-3.94336E-002	6.50811E-001	-4.32303E-002	-3.08943E-004	2.14791E-005	-3.03539E-003	-3.53717E-003	1.62810E-004	2.12362E-004	-3.50481E-003	2.32808E-004
	101	101	4.99911E-002	-5.28591E-003	0.00000E+000	-2.64248E-004	-5.14540E-002	3.41480E-002	2.94864E+001	11	...........	5.69858E-002	-3.93208E-003	5.63653E-001	6.56714E-001	-3.02224E-002	-3.94126E-002	6.50801E-001	-4.32001E-002	-3.01222E-004	2.07846E-005	-2.97942E-003	-3.47133E-003	1.59753E-004	2.08332E-004	-3.44008E-003	2.28352E-004
	102	102	4.99895E-002	-5.22823E-003	0.00000E+000	-2.61357E-004	-5.08857E-002	3.41990E-002	2.95723E+001	11	...........	5.70712E-002	-3.95014E-003	5.63543E-001	6.56714E-001	-3.01732E-002	-3.94107E-002	6.50713E-001	-4.32308E-002	-2.98382E-004	2.06522E-005	-2.94634E-003	-3.43345E-003	1.57752E-004	2.06048E-004	-3.40208E-003	2.26021E-004
	103	103	4.99915E-002	-5.21653E-003	0.00000E+000	-2.60783E-004	-5.07773E-002	3.43778E-002	2.97244E+001	11	...........	5.73500E-002	-3.90722E-003	5.63564E-001	6.56612E-001	-3.01601E-002	-3.94014E-002	6.50714E-001	-4.32440E-002	-2.99168E-004	2.03822E-005	-2.93985E-003	-3.42524E-003	1.57331E-004	2.05539E-004	-3.39447E-003	2.25584E-004
	104	104	4.99912E-002	-5.15739E-003	0.00000E+000	-2.57824E-004	-5.01917E-002	3.42184E-002	2.98922E+001	11	...........	5.70774E-002	-3.96111E-003	5.63446E-001	6.56727E-001	-3.01554E-002	-3.94092E-002	6.50675E-001	-4.32064E-002	-2.94370E-004	2.04290E-005	-2.90591E-003	-3.38699E-003	1.55523E-004	2.03248E-004	-3.35578E-003	2.22832E-004
	105	105	4.99902E-002	-5.12068E-003	0.00000E+000	-2.55984E-004	-4.98253E-002	3.43454E-002	2.97117E+001	11	...........	5.72989E-002	-3.92667E-003	5.63472E-001	6.56901E-001	-3.01633E-002	-3.94332E-002	6.50698E-001	-4.32731E-002	-2.93409E-004	2.01072E-005	-2.88536E-003	-3.36378E-003	1.54457E-004	2.01925E-004	-3.33202E-003	2.21588E-004
	106	105.383	4.99884E-002	-5.11361E-003	0.00000E+000	-2.55621E-004	-4.97548E-002	3.40135E-002	2.97221E+001	11	...........	5.67438E-002	-3.80254E-003	5.63399E-001	6.57088E-001	-3.01938E-002	-3.94174E-002	6.50613E-001	-4.32808E-002	-2.90166E-004	1.94447E-005	-2.88100E-003	-3.36009E-003	1.54399E-004	2.01565E-004	-3.32698E-003	2.21321E-004
STARTTIMEOFFSET	QUANT	468260	Start Time Offset (s)
