EXPLAIN
TAG	PWR800_DISCHARGE
TITLE	LABEL	PWR Discharge	Test Identifier
DATE	LABEL	10/13/2022	Date
TIME	LABEL	13:11:40	Time
NOTES	NOTES	1	Notes...
	
PSTAT	PSTAT	REF3000-21114	Potentiostat
CAPACITY	QUANT	5.30000E-002	Capacity (A-hr)
CELLTYPE	SELECTOR	1	Cell Type
WORKINGCONNECTION	SELECTOR	0	Working Connection
MAXDISCHARGETIME	VARIABLEANDUNITS	7.20000E+003	s	2.00000E+000	hour(s)	Max Discharge Time
DISCHARGEMODE	MULTIPARAM	0	1.00000E-001	Discharge Mode	Constant Current	Amp(s)
VOLTAGEFINISH	TWOPARAM	T	5.00000E-003	7.20000E+003	Voltage Finish	I (A) <	Max Time(s)
SAMPLETIME	QUANT	1.00000E+000	Sample Period (s)
DISCHARGESTOPAT1	MULTIPARAM	1	5.00000E-002	Stop At 1	|Voltage| < Limit	V
DISCHARGESTOPAT2	MULTIPARAM	0	0.00000E+000	Stop At 2	None	N/A
AESELECTOR	AESELECTOR	0x1	T	Set Limits	AE Channels
AESBHCSELECTOR	TOGGLE	F	Save Both Half Cells
IRCOMP	TOGGLE	F	IR Measure
EOC	QUANT	0.5655611	Open Circuit (V)
SEQUENCER	TOGGLE	TRUE	Run as Sequence
PSTATMODEL	IQUANT	5	Pstat Model
PSTATSECTION	LABEL	REF3000-21114	Pstat Section
PSTATSERIALNO	LABEL	21114	Pstat Serial Number
CTRLMODE	IQUANT	0	Control Mode
ELECTROMETER	IQUANT	0	RE=0 or CS=1
IESTAB	IQUANT	0	I/E Stability
CASPEED	IQUANT	4	Control Amp Speed
CONVENTION	IQUANT	1	Current Convention
ICHRANGE	IQUANT	2	Ich Range
ICHRANGEMODE	TOGGLE	T	Ich Auto Range
ICHOFFSETENABLE	TOGGLE	F	Ich Offset Enable
ICHOFFSET	QUANT	0	Ich Offset (V)
ICHFILTER	IQUANT	1	Ich Filter
VCHRANGE	IQUANT	3	Vch Range
VCHRANGEMODE	TOGGLE	T	Vch Auto Range
VCHOFFSETENABLE	TOGGLE	F	Vch Offset Enable
VCHOFFSET	QUANT	0	Vch Offset (V)
VCHFILTER	IQUANT	1	Vch Filter
ACHRANGE	IQUANT	2	Ach Range
ACHOFFSETENABLE	TOGGLE	F	Ach Offset Enable
ACHOFFSET	QUANT	0	Ach Offset (V)
ACHFILTER	IQUANT	1	Ach Filter
IERANGELOWERLIMIT	IQUANT	9	I/E Range Lower Limit
IERANGEMODE	TOGGLE	F	I/E AutoRange
IERANGE	IQUANT	9	I/E Range
POSFEEDENABLE	TOGGLE	F	Positive Feedback IR Comp
POSFEEDRESISTANCE	QUANT	0	Positive Feedback Resistance (ohm)
ACHSELECT	IQUANT	1	Ach Select
SENSECABLEID	IQUANT	13	Sense Cable ID
PWRCABLEID	IQUANT	13	Power Cable ID
DCCALDATE	LABEL		DC Calibration Date
ACCALDATE	LABEL		AC Calibration Date
THERMOSELECT	IQUANT	1	Thermo Select
FRAMEWORKVERSION	LABEL	7.8.6	Framework Version
INSTRUMENTVERSION	LABEL	4.50	Instrument Version
COMPLIANCEVOLTAGE	IQUANT	0	Compliance Voltage
CURVE	TABLE	224
	Pt	T	Vf	Im	Vu	Pwr	Sig	Ach	Temp	IERange	Over	Vf1	Vf2	Vf3	Vf4	Vf5	Vf6	Vf7	Vf8	Pwr1	Pwr2	Pwr3	Pwr4	Pwr5	Pwr6	Pwr7	Pwr8
	#	s	V	A	V	W	V	V	deg C	#	bits	V	V	V	V	V	V	V	V	W	W	W	W	W	W	W	W
	0	1	3.46110E-001	-1.00080E-001	0.00000E+000	-3.46388E-002	-9.94000E-001	3.78130E-002	3.15899E+001	11	...........	6.28772E-002	-5.02917E-003	5.96020E-001	5.59493E-001	-2.79939E-002	-3.87993E-002	6.92292E-001	-4.38485E-002	-6.29276E-003	5.03320E-004	-5.96497E-002	-5.59941E-002	2.80163E-003	3.88304E-003	-6.92847E-002	4.38836E-003
	1	2	2.61646E-001	-1.00080E-001	0.00000E+000	-2.61857E-002	-9.94000E-001	3.78509E-002	3.00064E+001	11	...........	6.29479E-002	-4.96736E-003	5.96002E-001	5.59541E-001	-2.79681E-002	-3.88183E-002	6.92361E-001	-4.39149E-002	-6.29985E-003	4.97136E-004	-5.96481E-002	-5.59991E-002	2.79906E-003	3.88496E-003	-6.92918E-002	4.39502E-003
	2	3	1.95915E-001	-1.00081E-001	0.00000E+000	-1.96075E-002	-9.94000E-001	3.75455E-002	2.97957E+001	11	...........	6.27389E-002	-4.88486E-003	5.95979E-001	5.59449E-001	-2.79889E-002	-3.88054E-002	6.92340E-001	-4.37878E-002	-6.27899E-003	4.88883E-004	-5.96464E-002	-5.59904E-002	2.80116E-003	3.88370E-003	-6.92903E-002	4.38234E-003
	3	4	1.44274E-001	-1.00081E-001	0.00000E+000	-1.44392E-002	-9.94000E-001	3.77728E-002	2.94921E+001	11	...........	6.28060E-002	-4.84556E-003	5.95935E-001	5.59379E-001	-2.79704E-002	-3.88140E-002	6.92213E-001	-4.38371E-002	-6.28571E-003	4.84950E-004	-5.96420E-002	-5.59834E-002	2.79932E-003	3.88456E-003	-6.92776E-002	4.38727E-003
	4	5	1.01591E-001	-1.00081E-001	0.00000E+000	-1.01674E-002	-9.94000E-001	3.78008E-002	2.90499E+001	11	...........	6.28439E-002	-4.83569E-003	5.95836E-001	5.59190E-001	-2.79833E-002	-3.88524E-002	6.92144E-001	-4.38978E-002	-6.28950E-003	4.83963E-004	-5.96321E-002	-5.59645E-002	2.80061E-003	3.88839E-003	-6.92707E-002	4.39335E-003
	5	6	6.75612E-002	-1.00081E-001	0.00000E+000	-6.76162E-003	-9.94000E-001	3.78048E-002	2.87662E+001	11	...........	6.28550E-002	-4.98931E-003	5.95854E-001	5.59179E-001	-2.79501E-002	-3.88482E-002	6.92258E-001	-4.37311E-002	-6.29061E-003	4.99336E-004	-5.96338E-002	-5.59633E-002	2.79729E-003	3.88798E-003	-6.92821E-002	4.37666E-003
	6	6.13	5.14918E-002	-1.00081E-001	0.00000E+000	-5.15337E-003	-9.94000E-001	3.77885E-002	2.86408E+001	11	...........	6.28675E-002	-4.84615E-003	5.95935E-001	5.59229E-001	-2.79690E-002	-3.88558E-002	6.92241E-001	-4.37372E-002	-6.29187E-003	4.85010E-004	-5.96420E-002	-5.59684E-002	2.79918E-003	3.88874E-003	-6.92805E-002	4.37728E-003
	7	7	4.97788E-002	-9.20349E-002	0.00000E+000	-4.58138E-003	-9.13979E-001	3.78988E-002	2.85649E+001	11	...........	6.30453E-002	-4.96280E-003	5.95986E-001	5.59156E-001	-2.79888E-002	-3.88503E-002	6.92263E-001	-4.36759E-002	-5.80237E-003	4.56751E-004	-5.48515E-002	-5.14618E-002	2.57595E-003	3.57558E-003	-6.37123E-002	4.01971E-003
	8	8	4.98731E-002	-8.06310E-002	0.00000E+000	-4.02132E-003	-8.00601E-001	3.79777E-002	2.93976E+001	11	...........	6.31139E-002	-4.99861E-003	5.96072E-001	5.59074E-001	-2.80051E-002	-3.88643E-002	6.92175E-001	-4.38201E-002	-5.08894E-003	4.03043E-004	-4.80619E-002	-4.50787E-002	2.25808E-003	3.13367E-003	-5.58108E-002	3.53326E-003
	9	9	4.99130E-002	-7.53669E-002	0.00000E+000	-3.76179E-003	-7.48249E-001	3.80978E-002	2.98410E+001	11	...........	6.33349E-002	-4.97917E-003	5.96153E-001	5.58969E-001	-2.80119E-002	-3.88685E-002	6.92187E-001	-4.37863E-002	-4.77335E-003	3.75264E-004	-4.49302E-002	-4.21278E-002	2.11117E-003	2.92940E-003	-5.21680E-002	3.30004E-003
	10	10	4.99302E-002	-7.11611E-002	0.00000E+000	-3.55309E-003	-7.06448E-001	3.81692E-002	3.01246E+001	11	...........	6.34194E-002	-4.96722E-003	5.96159E-001	5.59023E-001	-2.80089E-002	-3.88593E-002	6.92191E-001	-4.38778E-002	-4.51300E-003	3.53473E-004	-4.24234E-002	-3.97807E-002	1.99314E-003	2.76527E-003	-4.92571E-002	3.12239E-003
	11	11	4.99346E-002	-6.83785E-002	0.00000E+000	-3.41446E-003	-6.78781E-001	3.82752E-002	3.03169E+001	11	...........	6.35675E-002	-5.00306E-003	5.96023E-001	5.59157E-001	-2.79736E-002	-3.88514E-002	6.92175E-001	-4.39367E-002	-4.34665E-003	3.42102E-004	-4.07552E-002	-3.82344E-002	1.91279E-003	2.65660E-003	-4.73299E-002	3.00433E-003
	12	12	4.99556E-002	-6.60199E-002	0.00000E+000	-3.29807E-003	-6.55321E-001	3.84033E-002	3.05023E+001	11	...........	6.37872E-002	-4.95306E-003	5.95907E-001	5.59279E-001	-2.79683E-002	-3.88415E-002	6.92221E-001	-4.39683E-002	-4.21123E-003	3.27000E-004	-3.93417E-002	-3.69235E-002	1.84647E-003	2.56431E-003	-4.57004E-002	2.90278E-003
	13	13	4.99522E-002	-6.45057E-002	0.00000E+000	-3.22220E-003	-6.40265E-001	3.85154E-002	3.04793E+001	11	...........	6.39965E-002	-5.09139E-003	5.95748E-001	5.59371E-001	-2.80046E-002	-3.88468E-002	6.92198E-001	-4.39740E-002	-4.12814E-003	3.28423E-004	-3.84292E-002	-3.60826E-002	1.80645E-003	2.50584E-003	-4.46507E-002	2.83657E-003
	14	14	4.99497E-002	-6.23356E-002	0.00000E+000	-3.11365E-003	-6.18691E-001	3.85283E-002	3.05820E+001	11	...........	6.40392E-002	-4.97417E-003	5.95857E-001	5.59271E-001	-2.80179E-002	-3.88403E-002	6.92205E-001	-4.39481E-002	-3.99192E-003	3.10067E-004	-3.71431E-002	-3.48625E-002	1.74651E-003	2.42113E-003	-4.31490E-002	2.73953E-003
	15	15	4.99640E-002	-6.18168E-002	0.00000E+000	-3.08861E-003	-6.13531E-001	3.86939E-002	3.09212E+001	11	...........	6.43171E-002	-4.93972E-003	5.95972E-001	5.59235E-001	-2.79889E-002	-3.88386E-002	6.92247E-001	-4.39133E-002	-3.97587E-003	3.05358E-004	-3.68411E-002	-3.45701E-002	1.73018E-003	2.40088E-003	-4.27925E-002	2.71458E-003
	16	16	4.99604E-002	-6.07947E-002	0.00000E+000	-3.03733E-003	-6.03373E-001	3.87112E-002	3.10456E+001	11	...........	6.43272E-002	-5.02014E-003	5.95914E-001	5.59186E-001	-2.79939E-002	-3.88400E-002	6.92235E-001	-4.38978E-002	-3.91075E-003	3.05198E-004	-3.62284E-002	-3.39955E-002	1.70188E-003	2.36127E-003	-4.20842E-002	2.66875E-003
	17	17	4.99625E-002	-6.00002E-002	0.00000E+000	-2.99776E-003	-5.95469E-001	3.87868E-002	3.11252E+001	11	...........	6.44583E-002	-5.03319E-003	5.96041E-001	5.59174E-001	-2.79900E-002	-3.88286E-002	6.92182E-001	-4.38428E-002	-3.86751E-003	3.01993E-004	-3.57626E-002	-3.35506E-002	1.67941E-003	2.32972E-003	-4.15311E-002	2.63058E-003
	18	18	4.99600E-002	-5.90621E-002	0.00000E+000	-2.95074E-003	-5.86150E-001	3.88644E-002	3.12201E+001	11	...........	6.46015E-002	-5.02458E-003	5.96016E-001	5.59217E-001	-2.79840E-002	-3.88529E-002	6.92179E-001	-4.36943E-002	-3.81550E-003	2.96762E-004	-3.52019E-002	-3.30285E-002	1.65279E-003	2.29473E-003	-4.08815E-002	2.58068E-003
	19	19	4.99624E-002	-5.81053E-002	0.00000E+000	-2.90308E-003	-5.76629E-001	3.89205E-002	3.12755E+001	11	...........	6.46964E-002	-4.95264E-003	5.96073E-001	5.59278E-001	-2.79593E-002	-3.88504E-002	6.92157E-001	-4.36628E-002	-3.75920E-003	2.87774E-004	-3.46350E-002	-3.24970E-002	1.62458E-003	2.25741E-003	-4.02180E-002	2.53704E-003
	20	20	4.99622E-002	-5.74168E-002	0.00000E+000	-2.86867E-003	-5.69781E-001	3.89031E-002	3.13411E+001	11	...........	6.48212E-002	-4.88875E-003	5.96259E-001	5.59200E-001	-2.79643E-002	-3.88506E-002	6.92133E-001	-4.36931E-002	-3.72183E-003	2.80697E-004	-3.42353E-002	-3.21075E-002	1.60562E-003	2.23068E-003	-3.97401E-002	2.50872E-003
	21	21	4.99626E-002	-5.66026E-002	0.00000E+000	-2.82801E-003	-5.61685E-001	3.89134E-002	3.14273E+001	11	...........	6.49218E-002	-5.02792E-003	5.96446E-001	5.59285E-001	-2.79726E-002	-3.88531E-002	6.92168E-001	-4.38535E-002	-3.67474E-003	2.84593E-004	-3.37604E-002	-3.16570E-002	1.58332E-003	2.19918E-003	-3.91785E-002	2.48222E-003
	22	22	4.99616E-002	-5.58051E-002	0.00000E+000	-2.78811E-003	-5.53747E-001	3.89961E-002	3.09417E+001	11	...........	6.50646E-002	-5.05306E-003	5.96534E-001	5.59322E-001	-2.80128E-002	-3.88549E-002	6.92138E-001	-4.38771E-002	-3.63094E-003	2.81986E-004	-3.32897E-002	-3.12130E-002	1.56326E-003	2.16830E-003	-3.86249E-002	2.44857E-003
	23	23	4.99561E-002	-5.41816E-002	0.00000E+000	-2.70671E-003	-5.37621E-001	3.89946E-002	3.13281E+001	11	...........	6.50549E-002	-5.01653E-003	5.96489E-001	5.59396E-001	-2.79857E-002	-3.88432E-002	6.92068E-001	-4.38649E-002	-3.52478E-003	2.71804E-004	-3.23187E-002	-3.03090E-002	1.51631E-003	2.10459E-003	-3.74974E-002	2.37667E-003
	24	24	4.99717E-002	-5.41187E-002	0.00000E+000	-2.70440E-003	-5.36985E-001	3.91055E-002	3.15133E+001	11	...........	6.52443E-002	-4.95153E-003	5.96555E-001	5.59272E-001	-2.79699E-002	-3.88575E-002	6.92089E-001	-4.38481E-002	-3.53094E-003	2.67970E-004	-3.22848E-002	-3.02671E-002	1.51369E-003	2.10292E-003	-3.74550E-002	2.37300E-003
	25	25	4.99672E-002	-5.37745E-002	0.00000E+000	-2.68696E-003	-5.33562E-001	3.91150E-002	3.15897E+001	11	...........	6.52646E-002	-5.12417E-003	5.96613E-001	5.59273E-001	-2.79503E-002	-3.88303E-002	6.92136E-001	-4.38826E-002	-3.50957E-003	2.75549E-004	-3.20826E-002	-3.00746E-002	1.50301E-003	2.08808E-003	-3.72193E-002	2.35977E-003
	26	26	4.99644E-002	-5.33816E-002	0.00000E+000	-2.66718E-003	-5.29651E-001	3.91897E-002	3.16260E+001	11	...........	6.53824E-002	-5.11736E-003	5.96660E-001	5.59318E-001	-2.79361E-002	-3.88249E-002	6.92134E-001	-4.39094E-002	-3.49021E-003	2.73173E-004	-3.18507E-002	-2.98573E-002	1.49127E-003	2.07253E-003	-3.69472E-002	2.34395E-003
	27	27	4.99616E-002	-5.25141E-002	0.00000E+000	-2.62369E-003	-5.21019E-001	3.92582E-002	3.16687E+001	11	...........	6.54989E-002	-5.13431E-003	5.96663E-001	5.59323E-001	-2.79024E-002	-3.88481E-002	6.92146E-001	-4.38910E-002	-3.43962E-003	2.69624E-004	-3.13332E-002	-2.93724E-002	1.46527E-003	2.04007E-003	-3.63474E-002	2.30490E-003
	28	28	4.99651E-002	-5.18802E-002	0.00000E+000	-2.59220E-003	-5.14718E-001	3.92916E-002	3.15192E+001	11	...........	6.55551E-002	-5.08764E-003	5.96601E-001	5.59269E-001	-2.79496E-002	-3.88261E-002	6.92165E-001	-4.38772E-002	-3.40101E-003	2.63948E-004	-3.09518E-002	-2.90150E-002	1.45003E-003	2.01431E-003	-3.59096E-002	2.27636E-003
	29	29	4.99665E-002	-5.13467E-002	0.00000E+000	-2.56561E-003	-5.09450E-001	3.93347E-002	3.16203E+001	11	...........	6.56289E-002	-5.13458E-003	5.96498E-001	5.59282E-001	-2.79824E-002	-3.88310E-002	6.92166E-001	-4.39246E-002	-3.36983E-003	2.63644E-004	-3.06282E-002	-2.87173E-002	1.43680E-003	1.99384E-003	-3.55405E-002	2.25538E-003
	30	30	4.99655E-002	-5.09405E-002	0.00000E+000	-2.54527E-003	-5.05405E-001	3.94497E-002	3.17342E+001	11	...........	6.58257E-002	-5.01000E-003	5.96518E-001	5.59247E-001	-2.79754E-002	-3.88229E-002	6.92369E-001	-4.39858E-002	-3.35319E-003	2.55212E-004	-3.03869E-002	-2.84883E-002	1.42508E-003	1.97766E-003	-3.52696E-002	2.24066E-003
	31	31	4.99666E-002	-5.04180E-002	0.00000E+000	-2.51922E-003	-5.00208E-001	3.95000E-002	3.18023E+001	11	...........	6.59099E-002	-5.07194E-003	5.96491E-001	5.59150E-001	-2.79864E-002	-3.88210E-002	6.92441E-001	-4.40518E-002	-3.32304E-003	2.55717E-004	-3.00739E-002	-2.81912E-002	1.41102E-003	1.95728E-003	-3.49115E-002	2.22100E-003
	32	32	4.99629E-002	-4.98334E-002	0.00000E+000	-2.48982E-003	-4.94397E-001	3.95407E-002	3.18650E+001	11	...........	6.59717E-002	-5.12375E-003	5.96513E-001	5.59117E-001	-2.80031E-002	-3.88410E-002	6.92344E-001	-4.39436E-002	-3.28759E-003	2.55334E-004	-2.97263E-002	-2.78627E-002	1.39549E-003	1.93558E-003	-3.45019E-002	2.18986E-003
	33	33	4.99662E-002	-4.92870E-002	0.00000E+000	-2.46268E-003	-4.88963E-001	3.95964E-002	3.12105E+001	11	...........	6.60551E-002	-5.09403E-003	5.96344E-001	5.59301E-001	-2.79844E-002	-3.88500E-002	6.92284E-001	-4.37836E-002	-3.25566E-003	2.51069E-004	-2.93920E-002	-2.75663E-002	1.37927E-003	1.91480E-003	-3.41206E-002	2.15796E-003
	34	34	4.99534E-002	-4.76116E-002	0.00000E+000	-2.37837E-003	-4.72300E-001	3.95123E-002	3.14998E+001	11	...........	6.59311E-002	-4.95903E-003	5.96290E-001	5.59221E-001	-2.79937E-002	-3.88649E-002	6.92417E-001	-4.38589E-002	-3.13909E-003	2.36107E-004	-2.83903E-002	-2.66254E-002	1.33283E-003	1.85042E-003	-3.29671E-002	2.08819E-003
	35	35	4.99756E-002	-4.78667E-002	0.00000E+000	-2.39217E-003	-4.74831E-001	3.97156E-002	3.19678E+001	11	...........	6.62522E-002	-5.03069E-003	5.96467E-001	5.59153E-001	-2.79896E-002	-3.88775E-002	6.92359E-001	-4.38139E-002	-3.17128E-003	2.40803E-004	-2.85509E-002	-2.67648E-002	1.33977E-003	1.86094E-003	-3.31410E-002	2.09723E-003
	36	36	4.99652E-002	-4.76268E-002	0.00000E+000	-2.37968E-003	-4.72449E-001	3.96805E-002	3.20778E+001	11	...........	6.61760E-002	-4.97528E-003	5.96603E-001	5.59024E-001	-2.79697E-002	-3.88644E-002	6.92364E-001	-4.39115E-002	-3.15175E-003	2.36957E-004	-2.84143E-002	-2.66245E-002	1.33211E-003	1.85099E-003	-3.29751E-002	2.09137E-003
	37	37	4.99643E-002	-4.70821E-002	0.00000E+000	-2.35242E-003	-4.67026E-001	3.97169E-002	3.21115E+001	11	...........	6.62551E-002	-4.97153E-003	5.96752E-001	5.59164E-001	-2.79465E-002	-3.88364E-002	6.92280E-001	-4.39322E-002	-3.11943E-003	2.34070E-004	-2.80964E-002	-2.63266E-002	1.31578E-003	1.82850E-003	-3.25940E-002	2.06842E-003
	38	38	4.99660E-002	-4.64767E-002	0.00000E+000	-2.32226E-003	-4.61012E-001	3.97681E-002	3.21742E+001	11	...........	6.63568E-002	-5.15986E-003	5.96845E-001	5.59315E-001	-2.79486E-002	-3.88203E-002	6.92397E-001	-4.39971E-002	-3.08404E-003	2.39813E-004	-2.77394E-002	-2.59951E-002	1.29896E-003	1.80424E-003	-3.21803E-002	2.04484E-003
	39	39	4.99656E-002	-4.58832E-002	0.00000E+000	-2.29258E-003	-4.55113E-001	3.98207E-002	3.22396E+001	11	...........	6.64390E-002	-5.14944E-003	5.96755E-001	5.59324E-001	-2.79826E-002	-3.88006E-002	6.92433E-001	-4.39437E-002	-3.04843E-003	2.36273E-004	-2.73810E-002	-2.56636E-002	1.28393E-003	1.78029E-003	-3.17710E-002	2.01628E-003
	40	40	4.99668E-002	-4.54613E-002	0.00000E+000	-2.27156E-003	-4.50906E-001	3.98523E-002	3.23116E+001	11	...........	6.64957E-002	-5.09903E-003	5.96873E-001	5.59344E-001	-2.79647E-002	-3.87869E-002	6.92481E-001	-4.38819E-002	-3.02298E-003	2.31808E-004	-2.71346E-002	-2.54285E-002	1.27131E-003	1.76330E-003	-3.14811E-002	1.99493E-003
	41	41	4.99655E-002	-4.49995E-002	0.00000E+000	-2.24842E-003	-4.46323E-001	3.99084E-002	3.24037E+001	11	...........	6.66007E-002	-5.12236E-003	5.96883E-001	5.59390E-001	-2.79782E-002	-3.87865E-002	6.92365E-001	-4.39579E-002	-2.99700E-003	2.30504E-004	-2.68595E-002	-2.51723E-002	1.25900E-003	1.74537E-003	-3.11561E-002	1.97808E-003
	42	42	4.99623E-002	-4.43800E-002	0.00000E+000	-2.21733E-003	-4.40158E-001	3.99299E-002	3.24565E+001	11	...........	6.66419E-002	-5.06625E-003	5.96801E-001	5.59422E-001	-2.79356E-002	-3.87899E-002	6.92401E-001	-4.39611E-002	-2.95757E-003	2.24840E-004	-2.64860E-002	-2.48271E-002	1.23978E-003	1.72149E-003	-3.07288E-002	1.95099E-003
	43	43	4.99650E-002	-4.37825E-002	0.00000E+000	-2.18760E-003	-4.34226E-001	3.99903E-002	3.25136E+001	11	...........	6.67190E-002	-5.16556E-003	5.96687E-001	5.59403E-001	-2.79154E-002	-3.88133E-002	6.92478E-001	-4.38385E-002	-2.92113E-003	2.26161E-004	-2.61245E-002	-2.44921E-002	1.22221E-003	1.69935E-003	-3.03185E-002	1.91936E-003
	44	44	4.99687E-002	-4.33493E-002	0.00000E+000	-2.16610E-003	-4.29912E-001	4.00296E-002	3.25536E+001	11	...........	6.67844E-002	-5.35653E-003	5.96677E-001	5.59499E-001	-2.79142E-002	-3.88311E-002	6.92479E-001	-4.39214E-002	-2.89506E-003	2.32202E-004	-2.58655E-002	-2.42539E-002	1.21006E-003	1.68330E-003	-3.00185E-002	1.90396E-003
	45	45	4.99639E-002	-4.28086E-002	0.00000E+000	-2.13888E-003	-4.24536E-001	4.00763E-002	3.26239E+001	11	...........	6.68529E-002	-5.29194E-003	5.96579E-001	5.59474E-001	-2.79035E-002	-3.88624E-002	6.92397E-001	-4.40142E-002	-2.86188E-003	2.26541E-004	-2.55387E-002	-2.39503E-002	1.19451E-003	1.66364E-003	-2.96405E-002	1.88418E-003
	46	46	4.99681E-002	-4.22966E-002	0.00000E+000	-2.11348E-003	-4.19449E-001	4.00985E-002	3.26687E+001	11	...........	6.69093E-002	-5.26167E-003	5.96569E-001	5.59323E-001	-2.79157E-002	-3.89046E-002	6.92365E-001	-4.39361E-002	-2.83004E-003	2.22551E-004	-2.52328E-002	-2.36575E-002	1.18074E-003	1.64553E-003	-2.92847E-002	1.85835E-003
	47	47	4.99651E-002	-4.19051E-002	0.00000E+000	-2.09379E-003	-4.15553E-001	4.01626E-002	3.27132E+001	11	...........	6.70072E-002	-5.21736E-003	5.96561E-001	5.59288E-001	-2.79186E-002	-3.88810E-002	6.92349E-001	-4.38842E-002	-2.80795E-003	2.18634E-004	-2.49990E-002	-2.34370E-002	1.16993E-003	1.62931E-003	-2.90130E-002	1.83897E-003
	48	48	4.99651E-002	-4.13708E-002	0.00000E+000	-2.06710E-003	-4.10250E-001	4.01959E-002	3.27635E+001	11	...........	6.70646E-002	-5.21458E-003	5.96660E-001	5.59154E-001	-2.79186E-002	-3.88772E-002	6.92435E-001	-4.38529E-002	-2.77451E-003	2.15731E-004	-2.46843E-002	-2.31326E-002	1.15501E-003	1.60838E-003	-2.86466E-002	1.81423E-003
	49	49	4.99666E-002	-4.09293E-002	0.00000E+000	-2.04510E-003	-4.05881E-001	4.02262E-002	3.28000E+001	11	...........	6.71369E-002	-5.12806E-003	5.96568E-001	5.59170E-001	-2.79203E-002	-3.88918E-002	6.92594E-001	-4.38528E-002	-2.74787E-003	2.09888E-004	-2.44171E-002	-2.28865E-002	1.14276E-003	1.59182E-003	-2.83474E-002	1.79486E-003
	50	50	4.99617E-002	-4.02391E-002	0.00000E+000	-2.01041E-003	-3.99010E-001	4.02877E-002	3.28261E+001	11	...........	6.72379E-002	-5.12778E-003	5.96497E-001	5.59165E-001	-2.79267E-002	-3.88678E-002	6.92488E-001	-4.37925E-002	-2.70559E-003	2.06337E-004	-2.40025E-002	-2.25003E-002	1.12374E-003	1.56400E-003	-2.78651E-002	1.76217E-003
	51	51	4.99510E-002	-3.94191E-002	0.00000E+000	-1.96902E-003	-3.90855E-001	4.02644E-002	3.19975E+001	11	...........	6.71917E-002	-5.09014E-003	5.96454E-001	5.59271E-001	-2.79446E-002	-3.88808E-002	6.92385E-001	-4.39092E-002	-2.64864E-003	2.00649E-004	-2.35117E-002	-2.20460E-002	1.10155E-003	1.53265E-003	-2.72932E-002	1.73086E-003
	52	52	4.99866E-002	-3.90248E-002	0.00000E+000	-1.95071E-003	-3.86930E-001	4.03054E-002	3.26300E+001	11	...........	6.72501E-002	-4.85764E-003	5.96466E-001	5.59273E-001	-2.79142E-002	-3.88489E-002	6.92389E-001	-4.38181E-002	-2.62442E-003	1.89568E-004	-2.32769E-002	-2.18255E-002	1.08934E-003	1.51607E-003	-2.70203E-002	1.70999E-003
	53	53	4.99690E-002	-3.91237E-002	0.00000E+000	-1.95497E-003	-3.87910E-001	4.03657E-002	3.28926E+001	11	...........	6.73558E-002	-5.02931E-003	5.96533E-001	5.59246E-001	-2.79239E-002	-3.88358E-002	6.92430E-001	-4.38589E-002	-2.63521E-003	1.96765E-004	-2.33386E-002	-2.18798E-002	1.09249E-003	1.51940E-003	-2.70905E-002	1.71592E-003
	54	54	4.99632E-002	-3.87269E-002	0.00000E+000	-1.93492E-003	-3.83976E-001	4.04157E-002	3.29437E+001	11	...........	6.74376E-002	-4.95250E-003	5.96737E-001	5.59163E-001	-2.79107E-002	-3.88533E-002	6.92405E-001	-4.38428E-002	-2.61165E-003	1.91795E-004	-2.31097E-002	-2.16546E-002	1.08089E-003	1.50467E-003	-2.68147E-002	1.69789E-003
	55	55	4.99675E-002	-3.81564E-002	0.00000E+000	-1.90658E-003	-3.78298E-001	4.04714E-002	3.29723E+001	11	...........	6.75244E-002	-5.02556E-003	5.96705E-001	5.59187E-001	-2.79375E-002	-3.88583E-002	6.92385E-001	-4.38871E-002	-2.57649E-003	1.91757E-004	-2.27681E-002	-2.13365E-002	1.06599E-003	1.48269E-003	-2.64189E-002	1.67457E-003
	56	56	4.99530E-002	-3.74282E-002	0.00000E+000	-1.86965E-003	-3.71053E-001	4.04220E-002	3.19491E+001	11	...........	6.74447E-002	-4.94819E-003	5.96605E-001	5.58999E-001	-2.79268E-002	-3.88279E-002	6.92276E-001	-4.38901E-002	-2.52434E-003	1.85202E-004	-2.23299E-002	-2.09223E-002	1.04525E-003	1.45326E-003	-2.59107E-002	1.64273E-003
	57	57	4.99793E-002	-3.69244E-002	0.00000E+000	-1.84546E-003	-3.66042E-001	4.05291E-002	3.28904E+001	11	...........	6.76269E-002	-5.00125E-003	5.96529E-001	5.59040E-001	-2.79321E-002	-3.88019E-002	6.92303E-001	-4.38506E-002	-2.49709E-003	1.84668E-004	-2.20265E-002	-2.06422E-002	1.03138E-003	1.43274E-003	-2.55629E-002	1.61916E-003
	58	58	4.99688E-002	-3.70582E-002	0.00000E+000	-1.85175E-003	-3.67371E-001	4.05277E-002	3.31000E+001	11	...........	6.76174E-002	-5.03431E-003	5.96507E-001	5.59094E-001	-2.79533E-002	-3.88289E-002	6.92320E-001	-4.38354E-002	-2.50577E-003	1.86562E-004	-2.21055E-002	-2.07190E-002	1.03590E-003	1.43893E-003	-2.56561E-002	1.62446E-003
	59	59	4.99683E-002	-3.66952E-002	0.00000E+000	-1.83360E-003	-3.63755E-001	4.05505E-002	3.31135E+001	11	...........	6.76519E-002	-5.20875E-003	5.96540E-001	5.59069E-001	-2.79678E-002	-3.88397E-002	6.92358E-001	-4.37142E-002	-2.48250E-003	1.91136E-004	-2.18901E-002	-2.05151E-002	1.02628E-003	1.42523E-003	-2.54062E-002	1.60410E-003
	60	60	4.99667E-002	-3.63310E-002	0.00000E+000	-1.81534E-003	-3.60131E-001	4.05982E-002	3.31141E+001	11	...........	6.77396E-002	-5.25931E-003	5.96652E-001	5.58912E-001	-2.79410E-002	-3.88524E-002	6.92259E-001	-4.38586E-002	-2.46105E-003	1.91076E-004	-2.16770E-002	-2.03058E-002	1.01512E-003	1.41154E-003	-2.51504E-002	1.59343E-003
	61	61	4.99660E-002	-3.58108E-002	0.00000E+000	-1.78932E-003	-3.54963E-001	4.06114E-002	3.31569E+001	11	...........	6.77428E-002	-5.26847E-003	5.96568E-001	5.58921E-001	-2.79225E-002	-3.88421E-002	6.92274E-001	-4.38337E-002	-2.42592E-003	1.88668E-004	-2.13635E-002	-2.00154E-002	9.99926E-004	1.39096E-003	-2.47909E-002	1.56972E-003
	62	62	4.99652E-002	-3.53596E-002	0.00000E+000	-1.76675E-003	-3.50475E-001	4.06447E-002	3.32163E+001	11	...........	6.78244E-002	-5.26292E-003	5.96689E-001	5.58990E-001	-2.79342E-002	-3.88089E-002	6.92266E-001	-4.37974E-002	-2.39825E-003	1.86095E-004	-2.10987E-002	-1.97657E-002	9.87742E-004	1.37227E-003	-2.44783E-002	1.54866E-003
	63	63	4.99672E-002	-3.49765E-002	0.00000E+000	-1.74768E-003	-3.46663E-001	4.06584E-002	3.32648E+001	11	...........	6.78533E-002	-5.25194E-003	5.96729E-001	5.58871E-001	-2.79293E-002	-3.87857E-002	6.92178E-001	-4.38496E-002	-2.37327E-003	1.83695E-004	-2.08715E-002	-1.95474E-002	9.76870E-004	1.35659E-003	-2.42100E-002	1.53371E-003
	64	64	4.99640E-002	-3.43976E-002	0.00000E+000	-1.71864E-003	-3.40906E-001	4.06914E-002	3.33201E+001	11	...........	6.79026E-002	-5.12042E-003	5.96805E-001	5.58751E-001	-2.79321E-002	-3.87717E-002	6.92347E-001	-4.37849E-002	-2.33569E-003	1.76130E-004	-2.05287E-002	-1.92197E-002	9.60796E-004	1.33365E-003	-2.38151E-002	1.50609E-003
	65	65	4.99701E-002	-3.39424E-002	0.00000E+000	-1.69610E-003	-3.36377E-001	4.07093E-002	3.33605E+001	11	...........	6.79329E-002	-5.04917E-003	5.96918E-001	5.58741E-001	-2.79290E-002	-3.87479E-002	6.92362E-001	-4.37749E-002	-2.30580E-003	1.71381E-004	-2.02608E-002	-1.89650E-002	9.47977E-004	1.31520E-003	-2.35004E-002	1.48582E-003
	66	66	4.99679E-002	-3.36892E-002	0.00000E+000	-1.68338E-003	-3.33859E-001	4.07478E-002	3.34038E+001	11	...........	6.79922E-002	-5.00861E-003	5.96842E-001	5.58771E-001	-2.79317E-002	-3.87758E-002	6.92341E-001	-4.38247E-002	-2.29060E-003	1.68736E-004	-2.01071E-002	-1.88246E-002	9.40996E-004	1.30633E-003	-2.33244E-002	1.47642E-003
	67	67	4.99648E-002	-3.33120E-002	0.00000E+000	-1.66443E-003	-3.30119E-001	4.07629E-002	3.34464E+001	11	...........	6.80153E-002	-5.02083E-003	5.96860E-001	5.58853E-001	-2.79185E-002	-3.87700E-002	6.92400E-001	-4.39015E-002	-2.26573E-003	1.67254E-004	-1.98826E-002	-1.86165E-002	9.30020E-004	1.29151E-003	-2.30652E-002	1.46245E-003
	68	68	4.99671E-002	-3.27764E-002	0.00000E+000	-1.63774E-003	-3.24785E-001	4.07910E-002	3.34924E+001	11	...........	6.80615E-002	-5.09319E-003	5.96943E-001	5.58896E-001	-2.79449E-002	-3.87796E-002	6.92287E-001	-4.39719E-002	-2.23081E-003	1.66936E-004	-1.95656E-002	-1.83186E-002	9.15931E-004	1.27105E-003	-2.26907E-002	1.44124E-003
	69	69	4.99678E-002	-3.25461E-002	0.00000E+000	-1.62626E-003	-3.22494E-001	4.08152E-002	3.35340E+001	11	...........	6.81044E-002	-5.05125E-003	5.96956E-001	5.58927E-001	-2.79851E-002	-3.88011E-002	6.92237E-001	-4.39872E-002	-2.21653E-003	1.64398E-004	-1.94286E-002	-1.81909E-002	9.10807E-004	1.26282E-003	-2.25296E-002	1.43161E-003
	70	70	4.99692E-002	-3.22897E-002	0.00000E+000	-1.61349E-003	-3.19942E-001	4.08488E-002	3.35830E+001	11	...........	6.81481E-002	-5.05972E-003	5.96709E-001	5.59031E-001	-2.80024E-002	-3.87908E-002	6.92268E-001	-4.39424E-002	-2.20048E-003	1.63377E-004	-1.92675E-002	-1.80509E-002	9.04186E-004	1.25254E-003	-2.23531E-002	1.41888E-003
	71	71	4.99643E-002	-3.16654E-002	0.00000E+000	-1.58214E-003	-3.13733E-001	4.08839E-002	3.34190E+001	11	...........	6.82083E-002	-5.05042E-003	5.96824E-001	5.58939E-001	-2.79879E-002	-3.87933E-002	6.92212E-001	-4.38621E-002	-2.15984E-003	1.59924E-004	-1.88987E-002	-1.76990E-002	8.86249E-004	1.22841E-003	-2.19192E-002	1.38891E-003
	72	72	4.99640E-002	-3.09663E-002	0.00000E+000	-1.54720E-003	-3.06801E-001	4.08130E-002	3.29970E+001	11	...........	6.81076E-002	-4.97458E-003	5.96621E-001	5.58972E-001	-2.80082E-002	-3.87815E-002	6.92119E-001	-4.37149E-002	-2.10904E-003	1.54044E-004	-1.84751E-002	-1.73093E-002	8.67309E-004	1.20092E-003	-2.14323E-002	1.35369E-003
	73	73	4.99727E-002	-3.08928E-002	0.00000E+000	-1.54380E-003	-3.06095E-001	4.09711E-002	3.35343E+001	11	...........	6.83403E-002	-4.97028E-003	5.96709E-001	5.59003E-001	-2.80011E-002	-3.87750E-002	6.92211E-001	-4.38200E-002	-2.11122E-003	1.53546E-004	-1.84340E-002	-1.72692E-002	8.65033E-004	1.19787E-003	-2.13843E-002	1.35372E-003
	74	74	4.99677E-002	-3.07218E-002	0.00000E+000	-1.53510E-003	-3.04391E-001	4.09546E-002	3.36679E+001	11	...........	6.83283E-002	-4.90653E-003	5.96759E-001	5.59066E-001	-2.79932E-002	-3.87497E-002	6.92199E-001	-4.38449E-002	-2.09917E-003	1.50738E-004	-1.83335E-002	-1.71756E-002	8.60002E-004	1.19046E-003	-2.12656E-002	1.34699E-003
	75	75	4.99674E-002	-3.03119E-002	0.00000E+000	-1.51460E-003	-3.00309E-001	4.10022E-002	3.36984E+001	11	...........	6.84189E-002	-4.92000E-003	5.96636E-001	5.59318E-001	-2.79969E-002	-3.87421E-002	6.92135E-001	-4.38026E-002	-2.07390E-003	1.49134E-004	-1.80852E-002	-1.69540E-002	8.48639E-004	1.17434E-003	-2.09799E-002	1.32774E-003
	76	76	4.99685E-002	-2.99402E-002	0.00000E+000	-1.49607E-003	-2.96603E-001	4.10161E-002	3.37565E+001	11	...........	6.84426E-002	-4.97889E-003	5.96508E-001	5.59297E-001	-2.80056E-002	-3.87324E-002	6.92174E-001	-4.39014E-002	-2.04919E-003	1.49069E-004	-1.78596E-002	-1.67455E-002	8.38492E-004	1.15965E-003	-2.07238E-002	1.31442E-003
	77	77	4.99645E-002	-2.95991E-002	0.00000E+000	-1.47891E-003	-2.93213E-001	4.10621E-002	3.37931E+001	11	...........	6.85208E-002	-5.15972E-003	5.96504E-001	5.59190E-001	-2.79987E-002	-3.87544E-002	6.92246E-001	-4.39662E-002	-2.02816E-003	1.52723E-004	-1.76560E-002	-1.65515E-002	8.28739E-004	1.14710E-003	-2.04899E-002	1.30136E-003
	78	78	4.99669E-002	-2.91212E-002	0.00000E+000	-1.45510E-003	-2.88462E-001	4.10542E-002	3.38093E+001	11	...........	6.85118E-002	-5.08944E-003	5.96617E-001	5.59192E-001	-2.80040E-002	-3.87717E-002	6.92208E-001	-4.38894E-002	-1.99515E-003	1.48211E-004	-1.73742E-002	-1.62843E-002	8.15511E-004	1.12908E-003	-2.01579E-002	1.27811E-003
	79	79	4.99679E-002	-2.86921E-002	0.00000E+000	-1.43368E-003	-2.84195E-001	4.10831E-002	3.38352E+001	11	...........	6.85518E-002	-5.09000E-003	5.96359E-001	5.59190E-001	-2.80182E-002	-3.87825E-002	6.92251E-001	-4.39697E-002	-1.96690E-003	1.46043E-004	-1.71108E-002	-1.60443E-002	8.03901E-004	1.11275E-003	-1.98622E-002	1.26158E-003
	80	80	4.99698E-002	-2.84904E-002	0.00000E+000	-1.42366E-003	-2.82195E-001	4.10371E-002	3.38659E+001	11	...........	6.85954E-002	-4.98861E-003	5.96358E-001	5.59326E-001	-2.80139E-002	-3.87911E-002	6.92259E-001	-4.38596E-002	-1.95431E-003	1.42127E-004	-1.69905E-002	-1.59354E-002	7.98127E-004	1.10517E-003	-1.97227E-002	1.24958E-003
	81	81	4.99671E-002	-2.81682E-002	0.00000E+000	-1.40748E-003	-2.78997E-001	4.11408E-002	3.37274E+001	11	...........	6.86417E-002	-5.09097E-003	5.96293E-001	5.59332E-001	-2.80161E-002	-3.88014E-002	6.92322E-001	-4.39106E-002	-1.93351E-003	1.43403E-004	-1.67965E-002	-1.57554E-002	7.89163E-004	1.09296E-003	-1.95015E-002	1.23688E-003
	82	82	4.99613E-002	-2.74514E-002	0.00000E+000	-1.37151E-003	-2.71865E-001	4.10733E-002	3.30328E+001	11	...........	6.85156E-002	-4.99792E-003	5.96051E-001	5.59235E-001	-2.79993E-002	-3.87931E-002	6.92476E-001	-4.38361E-002	-1.88085E-003	1.37200E-004	-1.63624E-002	-1.53518E-002	7.68621E-004	1.06493E-003	-1.90095E-002	1.20336E-003
	83	83	4.99749E-002	-2.73135E-002	0.00000E+000	-1.36499E-003	-2.70483E-001	4.12267E-002	3.38297E+001	11	...........	6.87599E-002	-4.88736E-003	5.95932E-001	5.59242E-001	-2.79803E-002	-3.88125E-002	6.92427E-001	-4.38408E-002	-1.87807E-003	1.33491E-004	-1.62770E-002	-1.52748E-002	7.64239E-004	1.06010E-003	-1.89126E-002	1.19745E-003
	84	84	4.99669E-002	-2.70937E-002	0.00000E+000	-1.35379E-003	-2.68304E-001	4.11779E-002	3.39669E+001	11	...........	6.87031E-002	-4.92333E-003	5.95899E-001	5.59329E-001	-2.79924E-002	-3.88153E-002	6.92383E-001	-4.38244E-002	-1.86142E-003	1.33392E-004	-1.61451E-002	-1.51543E-002	7.58418E-004	1.05165E-003	-1.87592E-002	1.18737E-003
	85	85	4.99688E-002	-2.67477E-002	0.00000E+000	-1.33655E-003	-2.64858E-001	4.11773E-002	3.39495E+001	11	...........	6.87068E-002	-4.96583E-003	5.95987E-001	5.59154E-001	-2.80147E-002	-3.88199E-002	6.92440E-001	-4.37492E-002	-1.83775E-003	1.32825E-004	-1.59413E-002	-1.49561E-002	7.49330E-004	1.03834E-003	-1.85212E-002	1.17019E-003
	86	86	4.99677E-002	-2.64630E-002	0.00000E+000	-1.32230E-003	-2.62025E-001	4.12231E-002	3.40253E+001	11	...........	6.87849E-002	-4.98833E-003	5.95922E-001	5.59182E-001	-2.80497E-002	-3.88306E-002	6.92504E-001	-4.37608E-002	-1.82026E-003	1.32006E-004	-1.57699E-002	-1.47977E-002	7.42281E-004	1.02757E-003	-1.83258E-002	1.15804E-003
	87	87	4.99662E-002	-2.61297E-002	0.00000E+000	-1.30560E-003	-2.58707E-001	4.12402E-002	3.41031E+001	11	...........	6.88115E-002	-4.98944E-003	5.95867E-001	5.59144E-001	-2.80428E-002	-3.88112E-002	6.92482E-001	-4.38225E-002	-1.79802E-003	1.30373E-004	-1.55698E-002	-1.46103E-002	7.32749E-004	1.01413E-003	-1.80943E-002	1.14507E-003
	88	88	4.99688E-002	-2.57225E-002	0.00000E+000	-1.28532E-003	-2.54671E-001	4.12300E-002	3.41108E+001	11	...........	6.87947E-002	-4.95375E-003	5.96018E-001	5.59066E-001	-2.80310E-002	-3.88167E-002	6.92347E-001	-4.39383E-002	-1.76957E-003	1.27423E-004	-1.53311E-002	-1.43806E-002	7.21026E-004	9.98461E-004	-1.78089E-002	1.13020E-003
	89	89	4.99683E-002	-2.55211E-002	0.00000E+000	-1.27525E-003	-2.52665E-001	4.12752E-002	3.41481E+001	11	...........	6.88647E-002	-5.02764E-003	5.96045E-001	5.59084E-001	-2.80482E-002	-3.88149E-002	6.92417E-001	-4.38810E-002	-1.75751E-003	1.28311E-004	-1.52118E-002	-1.42685E-002	7.15822E-004	9.90599E-004	-1.76713E-002	1.11989E-003
	90	90	4.99687E-002	-2.52032E-002	0.00000E+000	-1.25937E-003	-2.49498E-001	4.12830E-002	3.41847E+001	11	...........	6.88732E-002	-5.07347E-003	5.95999E-001	5.59204E-001	-2.80293E-002	-3.87844E-002	6.92332E-001	-4.38340E-002	-1.73582E-003	1.27868E-004	-1.50211E-002	-1.40937E-002	7.06428E-004	9.77491E-004	-1.74490E-002	1.10476E-003
	91	91	4.99660E-002	-2.48955E-002	0.00000E+000	-1.24393E-003	-2.46436E-001	4.13062E-002	3.42032E+001	11	...........	6.89057E-002	-5.07389E-003	5.95871E-001	5.59257E-001	-2.80232E-002	-3.87757E-002	6.92355E-001	-4.38256E-002	-1.71544E-003	1.26317E-004	-1.48345E-002	-1.39230E-002	6.97652E-004	9.65341E-004	-1.72365E-002	1.09106E-003
	92	92	4.99675E-002	-2.43300E-002	0.00000E+000	-1.21571E-003	-2.40812E-001	4.13385E-002	3.40422E+001	11	...........	6.89697E-002	-5.11528E-003	5.95726E-001	5.59349E-001	-2.80087E-002	-3.87910E-002	6.92367E-001	-4.37610E-002	-1.67804E-003	1.24455E-004	-1.44940E-002	-1.36090E-002	6.81454E-004	9.43786E-004	-1.68453E-002	1.06471E-003
	93	93	4.99696E-002	-2.39747E-002	0.00000E+000	-1.19801E-003	-2.37281E-001	4.12977E-002	3.37580E+001	11	...........	6.88892E-002	-5.09417E-003	5.95699E-001	5.59352E-001	-2.80221E-002	-3.87892E-002	6.92365E-001	-4.37342E-002	-1.65160E-003	1.22131E-004	-1.42817E-002	-1.34103E-002	6.71822E-004	9.29960E-004	-1.65993E-002	1.04851E-003
	94	94	4.99679E-002	-2.38539E-002	0.00000E+000	-1.19193E-003	-2.36079E-001	4.13941E-002	3.40534E+001	11	...........	6.90581E-002	-5.16028E-003	5.95785E-001	5.59361E-001	-2.80292E-002	-3.87929E-002	6.92264E-001	-4.37528E-002	-1.64730E-003	1.23093E-004	-1.42118E-002	-1.33429E-002	6.68605E-004	9.25362E-004	-1.65132E-002	1.04367E-003
	95	95	4.99675E-002	-2.34984E-002	0.00000E+000	-1.17415E-003	-2.32543E-001	4.14362E-002	3.41238E+001	11	...........	6.91318E-002	-5.09917E-003	5.95938E-001	5.59171E-001	-2.80376E-002	-3.88001E-002	6.92286E-001	-4.38126E-002	-1.62448E-003	1.19822E-004	-1.40036E-002	-1.31396E-002	6.58839E-004	9.11740E-004	-1.62676E-002	1.02953E-003
	96	96	4.99713E-002	-2.33535E-002	0.00000E+000	-1.16700E-003	-2.31097E-001	4.14682E-002	3.41745E+001	11	...........	6.91821E-002	-4.98028E-003	5.95989E-001	5.59088E-001	-2.80203E-002	-3.87844E-002	6.92245E-001	-4.38857E-002	-1.61564E-003	1.16307E-004	-1.39184E-002	-1.30567E-002	6.54372E-004	9.05753E-004	-1.61663E-002	1.02488E-003
	97	97	4.99664E-002	-2.30441E-002	0.00000E+000	-1.15143E-003	-2.28035E-001	4.14640E-002	3.42140E+001	11	...........	6.92015E-002	-5.02750E-003	5.96180E-001	5.59101E-001	-2.80386E-002	-3.87843E-002	6.92228E-001	-4.39514E-002	-1.59468E-003	1.15854E-004	-1.37384E-002	-1.28840E-002	6.46124E-004	8.93748E-004	-1.59518E-002	1.01282E-003
	98	98	4.99687E-002	-2.27461E-002	0.00000E+000	-1.13659E-003	-2.25063E-001	4.14842E-002	3.42784E+001	11	...........	6.92379E-002	-5.13278E-003	5.96090E-001	5.59042E-001	-2.80187E-002	-3.87857E-002	6.92247E-001	-4.39085E-002	-1.57490E-003	1.16751E-004	-1.35588E-002	-1.27160E-002	6.37318E-004	8.82225E-004	-1.57460E-002	9.98748E-004
	99	99	4.99686E-002	-2.24478E-002	0.00000E+000	-1.12169E-003	-2.22095E-001	4.15122E-002	3.43154E+001	11	...........	6.92657E-002	-5.12056E-003	5.95979E-001	5.58829E-001	-2.80178E-002	-3.87881E-002	6.92292E-001	-4.40042E-002	-1.55487E-003	1.14945E-004	-1.33785E-002	-1.25445E-002	6.28939E-004	8.70708E-004	-1.55405E-002	9.87799E-004
	100	100	4.99664E-002	-2.21427E-002	0.00000E+000	-1.10639E-003	-2.19063E-001	4.15288E-002	3.43458E+001	11	...........	6.92983E-002	-5.10847E-003	5.95972E-001	5.58814E-001	-2.80397E-002	-3.87819E-002	6.92349E-001	-4.38919E-002	-1.53445E-003	1.13115E-004	-1.31964E-002	-1.23737E-002	6.20876E-004	8.58738E-004	-1.53305E-002	9.71887E-004
	101	101	4.99716E-002	-2.18400E-002	0.00000E+000	-1.09138E-003	-2.16055E-001	4.15301E-002	3.43491E+001	11	...........	6.93019E-002	-5.03167E-003	5.95948E-001	5.59139E-001	-2.80478E-002	-3.87687E-002	6.92303E-001	-4.38669E-002	-1.51355E-003	1.09891E-004	-1.30155E-002	-1.22116E-002	6.12562E-004	8.46708E-004	-1.51199E-002	9.58052E-004
	102	102	4.99671E-002	-2.16606E-002	0.00000E+000	-1.08232E-003	-2.14271E-001	4.15598E-002	3.44334E+001	11	...........	6.93337E-002	-5.01097E-003	5.95879E-001	5.59130E-001	-2.80403E-002	-3.87872E-002	6.92277E-001	-4.38435E-002	-1.50181E-003	1.08541E-004	-1.29071E-002	-1.21111E-002	6.07370E-004	8.40155E-004	-1.49951E-002	9.49676E-004
	103	103	4.99693E-002	-2.13392E-002	0.00000E+000	-1.06630E-003	-2.11071E-001	4.15601E-002	3.44725E+001	11	...........	6.93533E-002	-4.91903E-003	5.95882E-001	5.59316E-001	-2.80264E-002	-3.88042E-002	6.92364E-001	-4.37025E-002	-1.47994E-003	1.04968E-004	-1.27156E-002	-1.19353E-002	5.98059E-004	8.28048E-004	-1.47745E-002	9.32574E-004
	104	104	4.99674E-002	-2.10509E-002	0.00000E+000	-1.05186E-003	-2.08203E-001	4.15793E-002	3.44582E+001	11	...........	6.93917E-002	-4.94597E-003	5.95960E-001	5.59233E-001	-2.80447E-002	-3.87832E-002	6.92331E-001	-4.37692E-002	-1.46076E-003	1.04117E-004	-1.25455E-002	-1.17724E-002	5.90368E-004	8.16423E-004	-1.45742E-002	9.21382E-004
	105	105	4.99691E-002	-2.07660E-002	0.00000E+000	-1.03766E-003	-2.05371E-001	4.15877E-002	3.44665E+001	11	...........	6.94017E-002	-4.95569E-003	5.96051E-001	5.59150E-001	-2.80337E-002	-3.87864E-002	6.92401E-001	-4.35929E-002	-1.44119E-003	1.02910E-004	-1.23776E-002	-1.16113E-002	5.82148E-004	8.05437E-004	-1.43784E-002	9.05249E-004
	106	106	4.99689E-002	-2.05550E-002	0.00000E+000	-1.02711E-003	-2.03291E-001	4.16057E-002	3.45115E+001	11	...........	6.94192E-002	-5.03653E-003	5.96110E-001	5.59123E-001	-2.80435E-002	-3.87628E-002	6.92385E-001	-4.37294E-002	-1.42691E-003	1.03526E-004	-1.22530E-002	-1.14928E-002	5.76434E-004	7.96770E-004	-1.42320E-002	8.98860E-004
	107	107	4.99656E-002	-2.01874E-002	0.00000E+000	-1.00868E-003	-1.99631E-001	4.16087E-002	3.34659E+001	11	...........	6.94397E-002	-5.06417E-003	5.96179E-001	5.59201E-001	-2.80403E-002	-3.87399E-002	6.92379E-001	-4.38262E-002	-1.40181E-003	1.02233E-004	-1.20353E-002	-1.12888E-002	5.66061E-004	7.82058E-004	-1.39774E-002	8.84739E-004
	108	108	4.99672E-002	-1.93995E-002	0.00000E+000	-9.69337E-004	-1.91789E-001	4.15375E-002	3.41221E+001	11	...........	6.93076E-002	-5.06528E-003	5.96106E-001	5.59160E-001	-2.80607E-002	-3.87350E-002	6.92511E-001	-4.37575E-002	-1.34453E-003	9.82637E-005	-1.15642E-002	-1.08474E-002	5.44363E-004	7.51438E-004	-1.34343E-002	8.48872E-004
	109	109	4.99712E-002	-1.95355E-002	0.00000E+000	-9.76213E-004	-1.93144E-001	4.16452E-002	3.45710E+001	11	...........	6.94769E-002	-4.90208E-003	5.96215E-001	5.59124E-001	-2.80617E-002	-3.87543E-002	6.92346E-001	-4.37519E-002	-1.35727E-003	9.57646E-005	-1.16474E-002	-1.09228E-002	5.48199E-004	7.57085E-004	-1.35253E-002	8.54716E-004
	110	110	4.99692E-002	-1.94131E-002	0.00000E+000	-9.70058E-004	-1.91921E-001	4.16042E-002	3.46720E+001	11	...........	6.94376E-002	-5.03528E-003	5.96209E-001	5.59330E-001	-2.80783E-002	-3.87826E-002	6.92323E-001	-4.38936E-002	-1.34800E-003	9.77504E-005	-1.15743E-002	-1.08583E-002	5.45088E-004	7.52892E-004	-1.34401E-002	8.52112E-004
	111	111	4.99705E-002	-1.91806E-002	0.00000E+000	-9.58465E-004	-1.89619E-001	4.16391E-002	3.47104E+001	11	...........	6.94743E-002	-5.14097E-003	5.96218E-001	5.59320E-001	-2.80499E-002	-3.87700E-002	6.92462E-001	-4.39871E-002	-1.33256E-003	9.86070E-005	-1.14358E-002	-1.07281E-002	5.38014E-004	7.43633E-004	-1.32819E-002	8.43699E-004
	112	112	4.99687E-002	-1.90052E-002	0.00000E+000	-9.49664E-004	-1.87870E-001	4.16637E-002	3.47415E+001	11	...........	6.95110E-002	-5.07417E-003	5.96349E-001	5.59355E-001	-2.80654E-002	-3.87533E-002	6.92417E-001	-4.38421E-002	-1.32107E-003	9.64354E-005	-1.13337E-002	-1.06306E-002	5.33388E-004	7.36514E-004	-1.31595E-002	8.33227E-004
	113	113	4.99695E-002	-1.87382E-002	0.00000E+000	-9.36339E-004	-1.85211E-001	4.16640E-002	3.47730E+001	11	...........	6.95235E-002	-5.11889E-003	5.96182E-001	5.59285E-001	-2.80732E-002	-3.87417E-002	6.92290E-001	-4.38222E-002	-1.30275E-003	9.59188E-005	-1.11714E-002	-1.04800E-002	5.26041E-004	7.25949E-004	-1.29723E-002	8.21150E-004
	114	114	4.99669E-002	-1.84674E-002	0.00000E+000	-9.22759E-004	-1.82521E-001	4.16897E-002	3.47762E+001	11	...........	6.95582E-002	-5.10375E-003	5.95919E-001	5.59155E-001	-2.80675E-002	-3.87374E-002	6.92210E-001	-4.36801E-002	-1.28456E-003	9.42530E-005	-1.10051E-002	-1.03261E-002	5.18334E-004	7.15378E-004	-1.27833E-002	8.06658E-004
	115	115	4.99681E-002	-1.81948E-002	0.00000E+000	-9.09159E-004	-1.79812E-001	4.16717E-002	3.43344E+001	11	...........	6.95325E-002	-5.07792E-003	5.96055E-001	5.59138E-001	-2.80426E-002	-3.87386E-002	6.92244E-001	-4.36428E-002	-1.26513E-003	9.23916E-005	-1.08451E-002	-1.01734E-002	5.10230E-004	7.04841E-004	-1.25952E-002	7.94071E-004
	116	116	4.99716E-002	-1.80320E-002	0.00000E+000	-9.01089E-004	-1.78211E-001	4.16817E-002	3.42619E+001	11	...........	6.95451E-002	-5.06819E-003	5.96134E-001	5.59215E-001	-2.80758E-002	-3.87426E-002	6.92199E-001	-4.36364E-002	-1.25404E-003	9.13897E-005	-1.07495E-002	-1.00838E-002	5.06264E-004	6.98608E-004	-1.24817E-002	7.86852E-004
	117	117	4.99692E-002	-1.77263E-002	0.00000E+000	-8.85770E-004	-1.75157E-001	4.17078E-002	3.46865E+001	11	...........	6.95986E-002	-5.03236E-003	5.96041E-001	5.59384E-001	-2.80850E-002	-3.87419E-002	6.92176E-001	-4.38003E-002	-1.23373E-003	8.92051E-005	-1.05656E-002	-9.91580E-003	4.97843E-004	6.86751E-004	-1.22697E-002	7.76417E-004
	118	118	4.99697E-002	-1.76678E-002	0.00000E+000	-8.82855E-004	-1.74571E-001	4.18016E-002	3.48246E+001	11	...........	6.97321E-002	-5.17583E-003	5.95954E-001	5.59429E-001	-2.80578E-002	-3.87392E-002	6.92118E-001	-4.38514E-002	-1.23201E-003	9.14456E-005	-1.05292E-002	-9.88388E-003	4.95719E-004	6.84436E-004	-1.22282E-002	7.74758E-004
	119	119	4.99694E-002	-1.74391E-002	0.00000E+000	-8.71422E-004	-1.72294E-001	4.17288E-002	3.48685E+001	11	...........	6.96233E-002	-5.10181E-003	5.96052E-001	5.59503E-001	-2.80636E-002	-3.87161E-002	6.92088E-001	-4.38993E-002	-1.21417E-003	8.89710E-005	-1.03946E-002	-9.75724E-003	4.89404E-004	6.75175E-004	-1.20694E-002	7.65565E-004
	120	120	4.99695E-002	-1.72210E-002	0.00000E+000	-8.60522E-004	-1.70125E-001	4.17608E-002	3.48637E+001	11	...........	6.96926E-002	-5.09847E-003	5.96259E-001	5.59526E-001	-2.80496E-002	-3.87029E-002	6.92088E-001	-4.39419E-002	-1.20017E-003	8.78006E-005	-1.02681E-002	-9.63558E-003	4.83041E-004	6.66501E-004	-1.19184E-002	7.56722E-004
	121	121	4.99685E-002	-1.69862E-002	0.00000E+000	-8.48775E-004	-1.67788E-001	4.17942E-002	3.48697E+001	11	...........	6.97451E-002	-5.03111E-003	5.96249E-001	5.59535E-001	-2.80854E-002	-3.86932E-002	6.92116E-001	-4.38771E-002	-1.18471E-003	8.54596E-005	-1.01280E-002	-9.50438E-003	4.77065E-004	6.57251E-004	-1.17564E-002	7.45306E-004
	122	122	4.99693E-002	-1.67636E-002	0.00000E+000	-8.37663E-004	-1.65575E-001	4.17880E-002	3.47979E+001	11	...........	6.97300E-002	-5.07903E-003	5.96215E-001	5.59391E-001	-2.81139E-002	-3.86950E-002	6.92190E-001	-4.39676E-002	-1.16892E-003	8.51425E-005	-9.99467E-003	-9.37738E-003	4.71289E-004	6.48666E-004	-1.16036E-002	7.37054E-004
	123	123	4.99640E-002	-1.63330E-002	0.00000E+000	-8.16064E-004	-1.61299E-001	4.17242E-002	3.38564E+001	11	...........	6.96174E-002	-5.03986E-003	5.96111E-001	5.59319E-001	-2.81349E-002	-3.86896E-002	6.92286E-001	-4.40349E-002	-1.13706E-003	8.23163E-005	-9.73630E-003	-9.13538E-003	4.59528E-004	6.31919E-004	-1.13071E-002	7.19223E-004
	124	124	4.99759E-002	-1.61990E-002	0.00000E+000	-8.09561E-004	-1.59963E-001	4.18052E-002	3.47727E+001	11	...........	6.97590E-002	-5.06250E-003	5.96051E-001	5.59414E-001	-2.81124E-002	-3.87065E-002	6.92252E-001	-4.39250E-002	-1.13003E-003	8.20077E-005	-9.65546E-003	-9.06197E-003	4.55393E-004	6.27009E-004	-1.12138E-002	7.11543E-004
	125	125	4.99699E-002	-1.62636E-002	0.00000E+000	-8.12689E-004	-1.60605E-001	4.17854E-002	3.49790E+001	11	...........	6.97349E-002	-5.03917E-003	5.96050E-001	5.59351E-001	-2.80956E-002	-3.87310E-002	6.92206E-001	-4.38562E-002	-1.13414E-003	8.19548E-005	-9.69390E-003	-9.09704E-003	4.56934E-004	6.29904E-004	-1.12577E-002	7.13259E-004
	126	126	4.99684E-002	-1.60613E-002	0.00000E+000	-8.02554E-004	-1.58591E-001	4.18069E-002	3.49619E+001	11	...........	6.97562E-002	-4.95431E-003	5.96005E-001	5.59229E-001	-2.80610E-002	-3.87314E-002	6.92237E-001	-4.38799E-002	-1.12037E-003	7.95723E-005	-9.57259E-003	-8.98192E-003	4.50694E-004	6.22075E-004	-1.11182E-002	7.04765E-004
	127	127	4.99681E-002	-1.57575E-002	0.00000E+000	-7.87374E-004	-1.55570E-001	4.18141E-002	3.50038E+001	11	...........	6.97722E-002	-4.99458E-003	5.96010E-001	5.59241E-001	-2.80800E-002	-3.87649E-002	6.92224E-001	-4.38732E-002	-1.09944E-003	7.87023E-005	-9.39164E-003	-8.81225E-003	4.42471E-004	6.10838E-004	-1.09077E-002	6.91333E-004
	128	128	4.99706E-002	-1.55471E-002	0.00000E+000	-7.76896E-004	-1.53481E-001	4.18343E-002	3.50433E+001	11	...........	6.97962E-002	-5.04319E-003	5.96051E-001	5.59198E-001	-2.80928E-002	-3.87921E-002	6.92287E-001	-4.39092E-002	-1.08513E-003	7.84069E-005	-9.26685E-003	-8.69389E-003	4.36761E-004	6.03103E-004	-1.07630E-002	6.82659E-004
	129	129	4.99696E-002	-1.53392E-002	0.00000E+000	-7.66494E-004	-1.51417E-001	4.18320E-002	3.50804E+001	11	...........	6.98040E-002	-5.08361E-003	5.96066E-001	5.59211E-001	-2.81042E-002	-3.87825E-002	6.92351E-001	-4.39008E-002	-1.07074E-003	7.79785E-005	-9.14316E-003	-8.57785E-003	4.31095E-004	5.94892E-004	-1.06201E-002	6.73403E-004
	130	130	4.99688E-002	-1.51881E-002	0.00000E+000	-7.58931E-004	-1.49911E-001	4.18602E-002	3.50989E+001	11	...........	6.98546E-002	-4.96639E-003	5.96212E-001	5.59156E-001	-2.81090E-002	-3.87833E-002	6.92302E-001	-4.39844E-002	-1.06096E-003	7.54300E-005	-9.05533E-003	-8.49252E-003	4.26923E-004	5.89045E-004	-1.05148E-002	6.68040E-004
	131	131	4.99697E-002	-1.48879E-002	0.00000E+000	-7.43946E-004	-1.46921E-001	4.18554E-002	3.50880E+001	11	...........	6.98376E-002	-5.10667E-003	5.96344E-001	5.59177E-001	-2.80894E-002	-3.87858E-002	6.92280E-001	-4.40049E-002	-1.03974E-003	7.60278E-005	-8.87833E-003	-8.32499E-003	4.18194E-004	5.77441E-004	-1.03066E-002	6.55142E-004
	132	132	4.99693E-002	-1.47484E-002	0.00000E+000	-7.36965E-004	-1.45532E-001	4.18744E-002	3.50989E+001	11	...........	6.98768E-002	-5.18556E-003	5.96229E-001	5.59186E-001	-2.81110E-002	-3.88018E-002	6.92264E-001	-4.38975E-002	-1.03057E-003	7.64785E-005	-8.79341E-003	-8.24707E-003	4.14591E-004	5.72263E-004	-1.02098E-002	6.47416E-004
	133	133	4.99699E-002	-1.45570E-002	0.00000E+000	-7.27412E-004	-1.43631E-001	4.18766E-002	3.51563E+001	11	...........	6.98807E-002	-5.07000E-003	5.96289E-001	5.59012E-001	-2.81193E-002	-3.88037E-002	6.92317E-001	-4.39279E-002	-1.01725E-003	7.38040E-005	-8.68018E-003	-8.13754E-003	4.09333E-004	5.64866E-004	-1.00781E-002	6.39459E-004
	134	134	4.99695E-002	-1.43407E-002	0.00000E+000	-7.16600E-004	-1.41471E-001	4.18982E-002	3.47531E+001	11	...........	6.99119E-002	-5.03694E-003	5.96253E-001	5.59133E-001	-2.81079E-002	-3.88035E-002	6.92353E-001	-4.39500E-002	-1.00259E-003	7.22335E-005	-8.55072E-003	-8.01838E-003	4.03089E-004	5.56471E-004	-9.92886E-003	6.30276E-004
	135	135	4.99687E-002	-1.40295E-002	0.00000E+000	-7.01035E-004	-1.38381E-001	4.17775E-002	3.44026E+001	11	...........	6.97069E-002	-4.91125E-003	5.96306E-001	5.59189E-001	-2.81010E-002	-3.88082E-002	6.92346E-001	-4.38385E-002	-9.77952E-004	6.89023E-005	-8.36586E-003	-7.84513E-003	3.94242E-004	5.44459E-004	-9.71325E-003	6.15031E-004
	136	136	4.99710E-002	-1.40398E-002	0.00000E+000	-7.01581E-004	-1.38492E-001	4.19727E-002	3.50705E+001	11	...........	7.00364E-002	-5.03347E-003	5.96365E-001	5.59146E-001	-2.81001E-002	-3.88111E-002	6.92325E-001	-4.38756E-002	-9.83294E-004	7.06688E-005	-8.37283E-003	-7.85028E-003	3.94519E-004	5.44899E-004	-9.72007E-003	6.16002E-004
	137	137	4.99700E-002	-1.38790E-002	0.00000E+000	-6.93532E-004	-1.36888E-001	4.19531E-002	3.51656E+001	11	...........	6.99857E-002	-5.04625E-003	5.96474E-001	5.59283E-001	-2.80890E-002	-3.88460E-002	6.92321E-001	-4.38688E-002	-9.71331E-004	7.00368E-005	-8.27846E-003	-7.76228E-003	3.89847E-004	5.39143E-004	-9.60871E-003	6.08854E-004
	138	138	4.99694E-002	-1.36958E-002	0.00000E+000	-6.84373E-004	-1.35063E-001	4.19802E-002	3.51592E+001	11	...........	7.00278E-002	-4.97097E-003	5.96464E-001	5.59312E-001	-2.80690E-002	-3.88583E-002	6.92288E-001	-4.39654E-002	-9.59089E-004	6.80816E-005	-8.16907E-003	-7.66025E-003	3.84429E-004	5.32197E-004	-9.48145E-003	6.02143E-004
	139	139	4.99683E-002	-1.34772E-002	0.00000E+000	-6.73433E-004	-1.32893E-001	4.19712E-002	3.45843E+001	11	...........	7.00344E-002	-5.01097E-003	5.96453E-001	5.59345E-001	-2.80514E-002	-3.88758E-002	6.92370E-001	-4.39540E-002	-9.43868E-004	6.75339E-005	-8.03852E-003	-7.53840E-003	3.78054E-004	5.23937E-004	-9.33121E-003	5.92377E-004
	140	140	4.99687E-002	-1.30359E-002	0.00000E+000	-6.51384E-004	-1.28510E-001	4.17957E-002	3.44372E+001	11	...........	6.97455E-002	-4.99681E-003	5.96514E-001	5.59342E-001	-2.80458E-002	-3.88785E-002	6.92418E-001	-4.40007E-002	-9.09193E-004	6.51376E-005	-7.77607E-003	-7.29150E-003	3.65601E-004	5.06814E-004	-9.02626E-003	5.73586E-004
	141	141	4.99727E-002	-1.31040E-002	0.00000E+000	-6.54842E-004	-1.29178E-001	4.20475E-002	3.51324E+001	11	...........	7.01544E-002	-5.06833E-003	5.96641E-001	5.59402E-001	-2.80593E-002	-3.88776E-002	6.92401E-001	-4.40139E-002	-9.19303E-004	6.64153E-005	-7.81838E-003	-7.33040E-003	3.67689E-004	5.09452E-004	-9.07321E-003	5.76757E-004
	142	142	4.99697E-002	-1.30341E-002	0.00000E+000	-6.51309E-004	-1.28486E-001	4.19948E-002	3.52247E+001	11	...........	7.00706E-002	-5.13556E-003	5.96685E-001	5.59388E-001	-2.80683E-002	-3.88671E-002	6.92440E-001	-4.39799E-002	-9.13305E-004	6.69372E-005	-7.77724E-003	-7.29111E-003	3.65845E-004	5.06597E-004	-9.02532E-003	5.73237E-004
	143	143	4.99697E-002	-1.28462E-002	0.00000E+000	-6.41921E-004	-1.26629E-001	4.19766E-002	3.52638E+001	11	...........	7.00433E-002	-5.23347E-003	5.96664E-001	5.59364E-001	-2.80637E-002	-3.88581E-002	6.92507E-001	-4.39387E-002	-8.99791E-004	6.72302E-005	-7.66487E-003	-7.18571E-003	3.60513E-004	4.99178E-004	-8.89609E-003	5.64446E-004
	144	144	4.99691E-002	-1.26582E-002	0.00000E+000	-6.32519E-004	-1.24752E-001	4.19789E-002	3.52695E+001	11	...........	7.00651E-002	-5.26792E-003	5.96586E-001	5.59350E-001	-2.80712E-002	-3.88267E-002	6.92481E-001	-4.39110E-002	-8.86898E-004	6.66823E-005	-7.55170E-003	-7.08036E-003	3.55331E-004	4.91476E-004	-8.76556E-003	5.55834E-004
	145	145	4.99704E-002	-1.24735E-002	0.00000E+000	-6.23309E-004	-1.22908E-001	4.19753E-002	3.52689E+001	11	...........	7.00500E-002	-5.20042E-003	5.96473E-001	5.59336E-001	-2.80517E-002	-3.88176E-002	6.92468E-001	-4.39717E-002	-8.73772E-004	6.48676E-005	-7.44014E-003	-6.97691E-003	3.49904E-004	4.84194E-004	-8.63753E-003	5.48483E-004
	146	146	4.99695E-002	-1.23067E-002	0.00000E+000	-6.14961E-004	-1.21251E-001	4.19975E-002	3.52554E+001	11	...........	7.00735E-002	-5.02931E-003	5.96574E-001	5.59424E-001	-2.80608E-002	-3.88119E-002	6.92443E-001	-4.40058E-002	-8.62376E-004	6.18944E-005	-7.34188E-003	-6.88469E-003	3.45337E-004	4.77649E-004	-8.52172E-003	5.41569E-004
	147	147	4.99692E-002	-1.21465E-002	0.00000E+000	-6.06951E-004	-1.19659E-001	4.19898E-002	3.53231E+001	11	...........	7.00774E-002	-4.95431E-003	5.96629E-001	5.59537E-001	-2.80735E-002	-3.88028E-002	6.92426E-001	-4.39200E-002	-8.51195E-004	6.01775E-005	-7.24696E-003	-6.79642E-003	3.40995E-004	4.71318E-004	-8.41056E-003	5.33475E-004
	148	148	4.99714E-002	-1.20296E-002	0.00000E+000	-6.01136E-004	-1.18494E-001	4.20064E-002	3.53285E+001	11	...........	7.00900E-002	-5.06431E-003	5.96631E-001	5.59501E-001	-2.80743E-002	-3.88353E-002	6.92395E-001	-4.38857E-002	-8.43155E-004	6.09216E-005	-7.17723E-003	-6.73058E-003	3.37723E-004	4.67173E-004	-8.32924E-003	5.27928E-004
	149	149	4.99706E-002	-1.18874E-002	0.00000E+000	-5.94020E-004	-1.17079E-001	4.19948E-002	3.53858E+001	11	...........	7.00714E-002	-5.14667E-003	5.96440E-001	5.59528E-001	-2.80576E-002	-3.88576E-002	6.92319E-001	-4.37512E-002	-8.32966E-004	6.11804E-005	-7.09012E-003	-6.65133E-003	3.33532E-004	4.61916E-004	-8.22987E-003	5.20088E-004
	150	150	4.99693E-002	-1.17380E-002	0.00000E+000	-5.86539E-004	-1.15584E-001	4.20009E-002	3.53646E+001	11	...........	7.00906E-002	-5.10028E-003	5.96370E-001	5.59477E-001	-2.80483E-002	-3.88406E-002	6.92369E-001	-4.38089E-002	-8.22723E-004	5.98671E-005	-7.00019E-003	-6.56714E-003	3.29231E-004	4.55910E-004	-8.12703E-003	5.14229E-004
	151	151	4.99700E-002	-1.15682E-002	0.00000E+000	-5.78064E-004	-1.13909E-001	4.20064E-002	3.53906E+001	11	...........	7.00924E-002	-5.11958E-003	5.96271E-001	5.59530E-001	-2.80824E-002	-3.88436E-002	6.92345E-001	-4.37926E-002	-8.10844E-004	5.92245E-005	-6.89780E-003	-6.47277E-003	3.24863E-004	4.49352E-004	-8.00921E-003	5.06603E-004
	152	152	4.99705E-002	-1.14364E-002	0.00000E+000	-5.71483E-004	-1.12596E-001	4.20152E-002	3.53886E+001	11	...........	7.01117E-002	-4.99681E-003	5.96279E-001	5.59632E-001	-2.80735E-002	-3.88529E-002	6.92420E-001	-4.39387E-002	-8.01826E-004	5.71455E-005	-6.81929E-003	-6.40018E-003	3.21060E-004	4.44338E-004	-7.91880E-003	5.02502E-004
	153	153	4.99701E-002	-1.12274E-002	0.00000E+000	-5.61035E-004	-1.10518E-001	4.20418E-002	3.48191E+001	11	...........	7.01458E-002	-4.89917E-003	5.96450E-001	5.59482E-001	-2.80837E-002	-3.88649E-002	6.92442E-001	-4.39992E-002	-7.87558E-004	5.50051E-005	-6.69660E-003	-6.28155E-003	3.15308E-004	4.36353E-004	-7.77434E-003	4.93998E-004
	154	154	4.99691E-002	-1.09801E-002	0.00000E+000	-5.48665E-004	-1.08056E-001	4.18999E-002	3.46768E+001	11	...........	6.99224E-002	-4.92986E-003	5.96456E-001	5.59316E-001	-2.80733E-002	-3.88837E-002	6.92308E-001	-4.39412E-002	-7.67753E-004	5.41303E-005	-6.54913E-003	-6.14133E-003	3.08247E-004	4.26947E-004	-7.60159E-003	4.82478E-004
	155	155	4.99711E-002	-1.09950E-002	0.00000E+000	-5.49431E-004	-1.08199E-001	4.21006E-002	3.53180E+001	11	...........	7.02493E-002	-4.92875E-003	5.96342E-001	5.59309E-001	-2.80650E-002	-3.88889E-002	6.92239E-001	-4.37007E-002	-7.72389E-004	5.41914E-005	-6.55676E-003	-6.14958E-003	3.08574E-004	4.27582E-004	-7.61115E-003	4.80488E-004
	156	156	4.99703E-002	-1.08533E-002	0.00000E+000	-5.42342E-004	-1.06794E-001	4.20700E-002	3.54118E+001	11	...........	7.01874E-002	-5.05153E-003	5.96288E-001	5.59381E-001	-2.80487E-002	-3.88799E-002	6.92331E-001	-4.37994E-002	-7.61764E-004	5.48257E-005	-6.47169E-003	-6.07113E-003	3.04421E-004	4.21975E-004	-7.51408E-003	4.75368E-004
	157	157	4.99697E-002	-1.07274E-002	0.00000E+000	-5.36045E-004	-1.05541E-001	4.20877E-002	3.54057E+001	11	...........	7.02360E-002	-4.99500E-003	5.96248E-001	5.59460E-001	-2.80454E-002	-3.88611E-002	6.92252E-001	-4.38960E-002	-7.53449E-004	5.35833E-005	-6.39619E-003	-6.00154E-003	3.00854E-004	4.16878E-004	-7.42605E-003	4.70889E-004
	158	158	4.99704E-002	-1.05587E-002	0.00000E+000	-5.27623E-004	-1.03859E-001	4.18437E-002	3.54327E+001	11	...........	7.02065E-002	-5.10250E-003	5.96257E-001	5.59493E-001	-2.80107E-002	-3.88697E-002	6.92242E-001	-4.38211E-002	-7.41291E-004	5.38758E-005	-6.29571E-003	-5.90753E-003	2.95757E-004	4.10414E-004	-7.30919E-003	4.62695E-004
	159	159	4.99703E-002	-1.04192E-002	0.00000E+000	-5.20650E-004	-1.02499E-001	4.20718E-002	3.51994E+001	11	...........	7.01910E-002	-5.01958E-003	5.96332E-001	5.59439E-001	-2.80058E-002	-3.88711E-002	6.92237E-001	-4.38650E-002	-7.31333E-004	5.23000E-005	-6.21329E-003	-5.82890E-003	2.91798E-004	4.05005E-004	-7.21255E-003	4.57038E-004
	160	160	4.99677E-002	-1.01845E-002	0.00000E+000	-5.08896E-004	-1.00181E-001	4.20216E-002	3.45047E+001	11	...........	7.00983E-002	-5.02917E-003	5.96522E-001	5.59415E-001	-2.80279E-002	-3.88724E-002	6.92299E-001	-4.38710E-002	-7.13917E-004	5.12196E-005	-6.07528E-003	-5.69737E-003	2.85450E-004	3.95896E-004	-7.05072E-003	4.46804E-004
	161	161	4.99735E-002	-1.01192E-002	0.00000E+000	-5.05691E-004	-9.95307E-002	4.21108E-002	3.53561E+001	11	...........	7.02686E-002	-5.09681E-003	5.96584E-001	5.59449E-001	-2.80296E-002	-3.88503E-002	6.92294E-001	-4.40303E-002	-7.11061E-004	5.15755E-005	-6.03694E-003	-5.66116E-003	2.83636E-004	3.93133E-004	-7.00545E-003	4.45550E-004
	162	162	4.99703E-002	-1.00688E-002	0.00000E+000	-5.03142E-004	-9.90287E-002	4.20831E-002	3.55165E+001	11	...........	7.02210E-002	-5.13958E-003	5.96524E-001	5.59333E-001	-2.80228E-002	-3.88347E-002	6.92368E-001	-4.39936E-002	-7.07043E-004	5.17496E-005	-6.00630E-003	-5.63183E-003	2.82157E-004	3.91020E-004	-6.97134E-003	4.42964E-004
	163	163	4.99705E-002	-9.97122E-003	0.00000E+000	-4.98267E-004	-9.80580E-002	4.20817E-002	3.55295E+001	11	...........	7.02018E-002	-5.15861E-003	5.96584E-001	5.59038E-001	-2.80150E-002	-3.88139E-002	6.92281E-001	-4.40286E-002	-6.99998E-004	5.14377E-005	-5.94867E-003	-5.57429E-003	2.79344E-004	3.87022E-004	-6.90289E-003	4.39019E-004
	164	164	4.99709E-002	-9.87608E-003	0.00000E+000	-4.93517E-004	-9.71133E-002	4.20952E-002	3.55601E+001	11	...........	7.02414E-002	-5.16597E-003	5.96522E-001	5.58966E-001	-2.80340E-002	-3.88157E-002	6.92255E-001	-4.40796E-002	-6.93710E-004	5.10196E-005	-5.89130E-003	-5.52039E-003	2.76866E-004	3.83347E-004	-6.83677E-003	4.35334E-004
	165	165	4.99700E-002	-9.74504E-003	0.00000E+000	-4.86960E-004	-9.58000E-002	4.20917E-002	3.56056E+001	11	...........	7.02476E-002	-5.06556E-003	5.96489E-001	5.58881E-001	-2.80451E-002	-3.88019E-002	6.92311E-001	-4.39814E-002	-6.84566E-004	4.93641E-005	-5.81281E-003	-5.44631E-003	2.73301E-004	3.78127E-004	-6.74660E-003	4.28601E-004
	166	166	4.99704E-002	-9.61618E-003	0.00000E+000	-4.80525E-004	-9.45253E-002	4.21028E-002	3.56218E+001	11	...........	7.02554E-002	-5.04403E-003	5.96484E-001	5.58849E-001	-2.80243E-002	-3.87803E-002	6.92342E-001	-4.38960E-002	-6.75589E-004	4.85043E-005	-5.73590E-003	-5.37399E-003	2.69487E-004	3.72918E-004	-6.65769E-003	4.22112E-004
	167	167	4.99706E-002	-9.47381E-003	0.00000E+000	-4.73411E-004	-9.31073E-002	4.20812E-002	3.56536E+001	11	...........	7.02167E-002	-4.97875E-003	5.96557E-001	5.58995E-001	-2.80086E-002	-3.87660E-002	6.92393E-001	-4.38561E-002	-6.65219E-004	4.71677E-005	-5.65166E-003	-5.29581E-003	2.65348E-004	3.67261E-004	-6.55960E-003	4.15484E-004
	168	168	4.99698E-002	-9.34342E-003	0.00000E+000	-4.66889E-004	-9.18033E-002	4.21135E-002	3.56965E+001	11	...........	7.02549E-002	-5.01542E-003	5.96724E-001	5.58916E-001	-2.80444E-002	-3.87500E-002	6.92239E-001	-4.38024E-002	-6.56421E-004	4.68611E-005	-5.57544E-003	-5.22218E-003	2.62031E-004	3.62058E-004	-6.46788E-003	4.09264E-004
	169	169	4.99705E-002	-9.21920E-003	0.00000E+000	-4.60688E-004	-9.05673E-002	4.21140E-002	3.57308E+001	11	...........	7.02599E-002	-4.97611E-003	5.96836E-001	5.58951E-001	-2.80490E-002	-3.87308E-002	6.92347E-001	-4.38014E-002	-6.47740E-004	4.58758E-005	-5.50235E-003	-5.15308E-003	2.58590E-004	3.57067E-004	-6.38288E-003	4.03814E-004
	170	170	4.99700E-002	-9.07613E-003	0.00000E+000	-4.53534E-004	-8.91407E-002	4.21057E-002	3.57246E+001	11	...........	7.02539E-002	-5.09250E-003	5.97180E-001	5.59002E-001	-2.80521E-002	-3.87175E-002	6.92349E-001	-4.38076E-002	-6.37633E-004	4.62202E-005	-5.42008E-003	-5.07357E-003	2.54604E-004	3.51405E-004	-6.28385E-003	3.97604E-004
	171	171	4.99698E-002	-8.94244E-003	0.00000E+000	-4.46852E-004	-8.78240E-002	4.21105E-002	3.56878E+001	11	...........	7.02489E-002	-5.12556E-003	5.97036E-001	5.59023E-001	-2.79958E-002	-3.87256E-002	6.92195E-001	-4.38354E-002	-6.28196E-004	4.58350E-005	-5.33895E-003	-4.99903E-003	2.50351E-004	3.46301E-004	-6.18991E-003	3.91995E-004
	172	172	4.99720E-002	-8.88590E-003	0.00000E+000	-4.44046E-004	-8.72600E-002	4.20940E-002	3.56918E+001	11	...........	7.02446E-002	-5.13292E-003	5.96950E-001	5.58942E-001	-2.80083E-002	-3.87324E-002	6.92355E-001	-4.38761E-002	-6.24187E-004	4.56106E-005	-5.30444E-003	-4.96671E-003	2.48879E-004	3.44172E-004	-6.15220E-003	3.89879E-004
	173	173	4.99707E-002	-8.78920E-003	0.00000E+000	-4.39202E-004	-8.62967E-002	4.21228E-002	3.57544E+001	11	...........	7.02810E-002	-5.10042E-003	5.96973E-001	5.59071E-001	-2.80065E-002	-3.87375E-002	6.92339E-001	-4.37288E-002	-6.17713E-004	4.48286E-005	-5.24692E-003	-4.91378E-003	2.46155E-004	3.40472E-004	-6.08510E-003	3.84341E-004
	174	174	4.99706E-002	-8.70745E-003	0.00000E+000	-4.35116E-004	-8.54847E-002	4.21362E-002	3.57632E+001	11	...........	7.03126E-002	-5.00292E-003	5.96974E-001	5.59025E-001	-2.79806E-002	-3.87203E-002	6.92372E-001	-4.37517E-002	-6.12244E-004	4.35627E-005	-5.19812E-003	-4.86769E-003	2.43639E-004	3.37155E-004	-6.02880E-003	3.80966E-004
	175	175	4.99707E-002	-8.59883E-003	0.00000E+000	-4.29689E-004	-8.44060E-002	4.21346E-002	3.57922E+001	11	...........	7.03060E-002	-4.95111E-003	5.97221E-001	5.58892E-001	-2.79561E-002	-3.87533E-002	6.92381E-001	-4.38360E-002	-6.04549E-004	4.25738E-005	-5.13540E-003	-4.80582E-003	2.40390E-004	3.33233E-004	-5.95367E-003	3.76938E-004
	176	176	4.99710E-002	-8.51316E-003	0.00000E+000	-4.25411E-004	-8.35447E-002	4.21350E-002	3.58108E+001	11	...........	7.03107E-002	-4.93333E-003	5.97507E-001	5.58772E-001	-2.79908E-002	-3.87437E-002	6.92319E-001	-4.38218E-002	-5.98566E-004	4.19982E-005	-5.08667E-003	-4.75691E-003	2.38290E-004	3.29832E-004	-5.89382E-003	3.73062E-004
	177	177	4.99698E-002	-8.41074E-003	0.00000E+000	-4.20283E-004	-8.25260E-002	4.21403E-002	3.58191E+001	11	...........	7.03190E-002	-4.92944E-003	5.97571E-001	5.58627E-001	-2.80011E-002	-3.87778E-002	6.92342E-001	-4.36789E-002	-5.91435E-004	4.14603E-005	-5.02602E-003	-4.69846E-003	2.35510E-004	3.26150E-004	-5.82311E-003	3.67372E-004
	178	178	4.99713E-002	-8.29567E-003	0.00000E+000	-4.14545E-004	-8.13893E-002	4.21500E-002	3.52034E+001	11	...........	7.03150E-002	-5.02694E-003	5.97439E-001	5.58650E-001	-2.79756E-002	-3.87911E-002	6.92331E-001	-4.36254E-002	-5.83310E-004	4.17018E-005	-4.95615E-003	-4.63437E-003	2.32076E-004	3.21798E-004	-5.74335E-003	3.61902E-004
	179	179	4.99700E-002	-8.09407E-003	0.00000E+000	-4.04460E-004	-7.93780E-002	4.20488E-002	3.52811E+001	11	...........	7.01547E-002	-5.06306E-003	5.97349E-001	5.58583E-001	-2.80018E-002	-3.87726E-002	6.92316E-001	-4.38649E-002	-5.67837E-004	4.09807E-005	-4.83498E-003	-4.52121E-003	2.26649E-004	3.13828E-004	-5.60366E-003	3.55045E-004
	180	180	4.99718E-002	-8.11504E-003	0.00000E+000	-4.05523E-004	-7.95847E-002	4.21833E-002	3.57092E+001	11	...........	7.03764E-002	-5.05569E-003	5.97345E-001	5.58576E-001	-2.79981E-002	-3.87654E-002	6.92314E-001	-4.38810E-002	-5.71107E-004	4.10272E-005	-4.84748E-003	-4.53286E-003	2.27205E-004	3.14583E-004	-5.61815E-003	3.56096E-004
	181	181	4.99709E-002	-8.06577E-003	0.00000E+000	-4.03054E-004	-7.90960E-002	4.21312E-002	3.57416E+001	11	...........	7.03053E-002	-5.03444E-003	5.97449E-001	5.58494E-001	-2.79775E-002	-3.87708E-002	6.92400E-001	-4.38378E-002	-5.67066E-004	4.06067E-005	-4.81888E-003	-4.50468E-003	2.25660E-004	3.12717E-004	-5.58474E-003	3.53585E-004
	182	182	4.99706E-002	-7.96428E-003	0.00000E+000	-3.97980E-004	-7.80907E-002	4.21243E-002	3.57420E+001	11	...........	7.02900E-002	-5.11000E-003	5.97347E-001	5.58469E-001	-2.79804E-002	-3.87833E-002	6.92399E-001	-4.38364E-002	-5.59809E-004	4.06975E-005	-4.75744E-003	-4.44780E-003	2.22844E-004	3.08881E-004	-5.51446E-003	3.49125E-004
	183	183	4.99708E-002	-7.86073E-003	0.00000E+000	-3.92807E-004	-7.70667E-002	4.21517E-002	3.57453E+001	11	...........	7.03272E-002	-5.13403E-003	5.97369E-001	5.58612E-001	-2.80106E-002	-3.87589E-002	6.92351E-001	-4.36768E-002	-5.52823E-004	4.03572E-005	-4.69576E-003	-4.39110E-003	2.20183E-004	3.04673E-004	-5.44238E-003	3.43331E-004
	184	184	4.99702E-002	-7.71421E-003	0.00000E+000	-3.85481E-004	-7.56213E-002	4.21687E-002	3.53512E+001	11	...........	7.03582E-002	-5.20486E-003	5.97513E-001	5.58657E-001	-2.80460E-002	-3.87743E-002	6.92342E-001	-4.37929E-002	-5.42758E-004	4.01514E-005	-4.60934E-003	-4.30959E-003	2.16352E-004	2.99113E-004	-5.34086E-003	3.37828E-004
	185	185	4.99703E-002	-7.58769E-003	0.00000E+000	-3.79159E-004	-7.43547E-002	4.20828E-002	3.54499E+001	11	...........	7.02251E-002	-5.21472E-003	5.97535E-001	5.58623E-001	-2.80483E-002	-3.87621E-002	6.92447E-001	-4.38908E-002	-5.32847E-004	3.95677E-005	-4.53391E-003	-4.23866E-003	2.12822E-004	2.94115E-004	-5.25408E-003	3.33030E-004
	186	186	4.99712E-002	-7.59364E-003	0.00000E+000	-3.79463E-004	-7.44133E-002	4.21817E-002	3.57155E+001	11	...........	7.03857E-002	-5.16097E-003	5.97536E-001	5.58611E-001	-2.80467E-002	-3.87564E-002	6.92452E-001	-4.37721E-002	-5.34484E-004	3.91906E-005	-4.53748E-003	-4.24189E-003	2.12976E-004	2.94302E-004	-5.25824E-003	3.32390E-004
	187	187	4.99710E-002	-7.49091E-003	0.00000E+000	-3.74328E-004	-7.33927E-002	4.22178E-002	3.53779E+001	11	...........	7.04475E-002	-5.04958E-003	5.97578E-001	5.58641E-001	-2.80219E-002	-3.87961E-002	6.92462E-001	-4.35992E-002	-5.27716E-004	3.78260E-005	-4.47641E-003	-4.18473E-003	2.09910E-004	2.90618E-004	-5.18718E-003	3.26598E-004
	188	188	4.99701E-002	-7.31550E-003	0.00000E+000	-3.65556E-004	-7.16467E-002	4.21314E-002	3.52206E+001	11	...........	7.02908E-002	-5.06639E-003	5.97466E-001	5.58638E-001	-2.80097E-002	-3.88239E-002	6.92513E-001	-4.37375E-002	-5.14212E-004	3.70632E-005	-4.37076E-003	-4.08671E-003	2.04905E-004	2.84016E-004	-5.06608E-003	3.19962E-004
	189	189	4.99720E-002	-7.30348E-003	0.00000E+000	-3.64969E-004	-7.15260E-002	4.22570E-002	3.57166E+001	11	...........	7.05303E-002	-5.02667E-003	5.97471E-001	5.58721E-001	-2.79947E-002	-3.88339E-002	6.92379E-001	-4.37192E-002	-5.15116E-004	3.67121E-005	-4.36361E-003	-4.08060E-003	2.04459E-004	2.83622E-004	-5.05677E-003	3.19302E-004
	190	190	4.99709E-002	-7.25447E-003	0.00000E+000	-3.62513E-004	-7.10360E-002	4.22284E-002	3.57840E+001	11	...........	7.04728E-002	-5.06667E-003	5.97495E-001	5.58749E-001	-2.79992E-002	-3.88372E-002	6.92284E-001	-4.38821E-002	-5.11243E-004	3.67560E-005	-4.33451E-003	-4.05343E-003	2.03119E-004	2.81744E-004	-5.02216E-003	3.18341E-004
	191	191	4.99703E-002	-7.17280E-003	0.00000E+000	-3.58427E-004	-7.02260E-002	4.22138E-002	3.57400E+001	11	...........	7.04414E-002	-4.99431E-003	5.97580E-001	5.58719E-001	-2.79990E-002	-3.88221E-002	6.92313E-001	-4.38396E-002	-5.05262E-004	3.58231E-005	-4.28632E-003	-4.00758E-003	2.00831E-004	2.78463E-004	-4.96582E-003	3.14452E-004
	192	192	4.99713E-002	-7.08171E-003	0.00000E+000	-3.53882E-004	-6.93193E-002	4.22205E-002	3.57857E+001	11	...........	7.04571E-002	-4.90597E-003	5.97546E-001	5.58686E-001	-2.79736E-002	-3.88094E-002	6.92367E-001	-4.38487E-002	-4.98957E-004	3.47427E-005	-4.23165E-003	-3.95645E-003	1.98101E-004	2.74837E-004	-4.90315E-003	3.10524E-004
	193	193	4.99707E-002	-6.97963E-003	0.00000E+000	-3.48777E-004	-6.83040E-002	4.22052E-002	3.57681E+001	11	...........	7.04229E-002	-5.01903E-003	5.97550E-001	5.58583E-001	-2.79637E-002	-3.88192E-002	6.92363E-001	-4.39132E-002	-4.91526E-004	3.50310E-005	-4.17068E-003	-3.89870E-003	1.95177E-004	2.70943E-004	-4.83244E-003	3.06498E-004
	194	194	4.99712E-002	-6.91521E-003	0.00000E+000	-3.45561E-004	-6.76607E-002	4.22071E-002	3.57554E+001	11	...........	7.04376E-002	-5.00278E-003	5.97731E-001	5.58485E-001	-2.79744E-002	-3.88290E-002	6.92149E-001	-4.39282E-002	-4.87091E-004	3.45953E-005	-4.13344E-003	-3.86204E-003	1.93449E-004	2.68511E-004	-4.78636E-003	3.03773E-004
	195	195	4.99704E-002	-6.83090E-003	0.00000E+000	-3.41343E-004	-6.68173E-002	4.22361E-002	3.57888E+001	11	...........	7.04778E-002	-4.88917E-003	5.97853E-001	5.58248E-001	-2.79765E-002	-3.88015E-002	6.92172E-001	-4.38919E-002	-4.81426E-004	3.33974E-005	-4.08388E-003	-3.81334E-003	1.91105E-004	2.65049E-004	-4.72816E-003	2.99821E-004
	196	196	4.99710E-002	-6.75082E-003	0.00000E+000	-3.37345E-004	-6.60240E-002	4.22140E-002	3.58038E+001	11	...........	7.04357E-002	-4.89014E-003	5.98008E-001	5.58259E-001	-2.79579E-002	-3.88014E-002	6.92256E-001	-4.38778E-002	-4.75499E-004	3.30125E-005	-4.03704E-003	-3.76871E-003	1.88739E-004	2.61941E-004	-4.67330E-003	2.96211E-004
	197	197	4.99712E-002	-6.67886E-003	0.00000E+000	-3.33751E-004	-6.53093E-002	4.22382E-002	3.58497E+001	11	...........	7.04639E-002	-5.00625E-003	5.97992E-001	5.58367E-001	-2.79856E-002	-3.88115E-002	6.92355E-001	-4.39543E-002	-4.70618E-004	3.34360E-005	-3.99390E-003	-3.72925E-003	1.86911E-004	2.59217E-004	-4.62414E-003	2.93564E-004
	198	198	4.99710E-002	-6.60667E-003	0.00000E+000	-3.30142E-004	-6.45873E-002	4.22167E-002	3.58598E+001	11	...........	7.04553E-002	-5.24083E-003	5.98028E-001	5.58524E-001	-2.79850E-002	-3.87893E-002	6.92372E-001	-4.39439E-002	-4.65474E-004	3.46244E-005	-3.95097E-003	-3.68998E-003	1.84888E-004	2.56268E-004	-4.57427E-003	2.90323E-004
	199	199	4.99709E-002	-6.53389E-003	0.00000E+000	-3.26505E-004	-6.38640E-002	4.22313E-002	3.58780E+001	11	...........	7.04792E-002	-5.25792E-003	5.97991E-001	5.58584E-001	-2.79985E-002	-3.87708E-002	6.92342E-001	-4.38772E-002	-4.60503E-004	3.43547E-005	-3.90721E-003	-3.64973E-003	1.82939E-004	2.53324E-004	-4.52369E-003	2.86689E-004
	200	200	4.99707E-002	-6.44531E-003	0.00000E+000	-3.22077E-004	-6.29927E-002	4.22237E-002	3.58959E+001	11	...........	7.04629E-002	-5.09417E-003	5.97988E-001	5.58627E-001	-2.80240E-002	-3.87547E-002	6.92260E-001	-4.40018E-002	-4.54155E-004	3.28335E-005	-3.85422E-003	-3.60052E-003	1.80624E-004	2.49786E-004	-4.46183E-003	2.83605E-004
	201	201	4.99711E-002	-6.36304E-003	0.00000E+000	-3.17968E-004	-6.21727E-002	4.22452E-002	3.59022E+001	11	...........	7.04888E-002	-4.95917E-003	5.97850E-001	5.58696E-001	-2.80378E-002	-3.87768E-002	6.92223E-001	-4.39210E-002	-4.48523E-004	3.15554E-005	-3.80414E-003	-3.55501E-003	1.78406E-004	2.46738E-004	-4.40465E-003	2.79471E-004
	202	202	4.99706E-002	-6.27860E-003	0.00000E+000	-3.13745E-004	-6.13320E-002	4.22301E-002	3.51786E+001	11	...........	7.04726E-002	-5.01125E-003	5.97774E-001	5.58622E-001	-2.80558E-002	-3.87819E-002	6.92232E-001	-4.37947E-002	-4.42469E-004	3.14636E-005	-3.75318E-003	-3.50736E-003	1.76151E-004	2.43496E-004	-4.34624E-003	2.74969E-004
	203	203	4.99711E-002	-6.12656E-003	0.00000E+000	-3.06151E-004	-5.98180E-002	4.20658E-002	3.49451E+001	11	...........	7.01894E-002	-5.10264E-003	5.97855E-001	5.58574E-001	-2.80872E-002	-3.88126E-002	6.92220E-001	-4.39139E-002	-4.30020E-004	3.12616E-005	-3.66279E-003	-3.42213E-003	1.72078E-004	2.37788E-004	-4.24093E-003	2.69041E-004
	204	204	4.99718E-002	-6.18528E-003	0.00000E+000	-3.09090E-004	-6.04027E-002	4.23132E-002	3.57762E+001	11	...........	7.06028E-002	-5.06514E-003	5.97921E-001	5.58567E-001	-2.81312E-002	-3.88361E-002	6.92175E-001	-4.40068E-002	-4.36698E-004	3.13293E-005	-3.69831E-003	-3.45489E-003	1.74000E-004	2.40212E-004	-4.28130E-003	2.72195E-004
	205	205	4.99713E-002	-6.12805E-003	0.00000E+000	-3.06226E-004	-5.98333E-002	4.22328E-002	3.59105E+001	11	...........	7.04743E-002	-5.09556E-003	5.97901E-001	5.58528E-001	-2.80969E-002	-3.88174E-002	6.92173E-001	-4.40114E-002	-4.31870E-004	3.12258E-005	-3.66397E-003	-3.42268E-003	1.72179E-004	2.37875E-004	-4.24167E-003	2.69704E-004
	206	206	4.99709E-002	-6.05051E-003	0.00000E+000	-3.02349E-004	-5.90613E-002	4.22505E-002	3.59109E+001	11	...........	7.05093E-002	-5.05264E-003	5.97885E-001	5.58447E-001	-2.80819E-002	-3.88161E-002	6.92255E-001	-4.38708E-002	-4.26618E-004	3.05711E-005	-3.61751E-003	-3.37889E-003	1.69910E-004	2.34857E-004	-4.18850E-003	2.65441E-004
	207	207	4.99707E-002	-5.97724E-003	0.00000E+000	-2.98687E-004	-5.83260E-002	4.22718E-002	3.58894E+001	11	...........	7.05242E-002	-4.98625E-003	5.97830E-001	5.58299E-001	-2.80581E-002	-3.88247E-002	6.92354E-001	-4.37026E-002	-4.21540E-004	2.98040E-005	-3.57337E-003	-3.33709E-003	1.67710E-004	2.32065E-004	-4.13837E-003	2.61221E-004
	208	208	4.99714E-002	-5.89939E-003	0.00000E+000	-2.94800E-004	-5.75487E-002	4.22606E-002	3.59002E+001	11	...........	7.05090E-002	-4.99431E-003	5.97865E-001	5.58476E-001	-2.80593E-002	-3.88469E-002	6.92397E-001	-4.37826E-002	-4.15960E-004	2.94633E-005	-3.52703E-003	-3.29467E-003	1.65533E-004	2.29173E-004	-4.08472E-003	2.58291E-004
	209	209	4.99710E-002	-5.84669E-003	0.00000E+000	-2.92165E-004	-5.70307E-002	4.22534E-002	3.59320E+001	11	...........	7.05062E-002	-4.97750E-003	5.97741E-001	5.58598E-001	-2.80674E-002	-3.88333E-002	6.92379E-001	-4.38225E-002	-4.12228E-004	2.91019E-005	-3.49481E-003	-3.26595E-003	1.64101E-004	2.27047E-004	-4.04813E-003	2.56217E-004
	210	210	4.99715E-002	-5.80569E-003	0.00000E+000	-2.90119E-004	-5.66220E-002	4.22492E-002	3.59163E+001	11	...........	7.04826E-002	-4.96722E-003	5.97698E-001	5.58580E-001	-2.80590E-002	-3.87944E-002	6.92257E-001	-4.38079E-002	-4.09201E-004	2.88382E-005	-3.47005E-003	-3.24295E-003	1.62902E-004	2.25229E-004	-4.01903E-003	2.54335E-004
	211	211	4.99707E-002	-5.74240E-003	0.00000E+000	-2.86952E-004	-5.59973E-002	4.22667E-002	3.59346E+001	11	...........	7.05475E-002	-4.90889E-003	5.97696E-001	5.58478E-001	-2.80579E-002	-3.87679E-002	6.92392E-001	-4.38864E-002	-4.05112E-004	2.81888E-005	-3.43221E-003	-3.20701E-003	1.61120E-004	2.22621E-004	-3.97599E-003	2.52013E-004
	212	212	4.99713E-002	-5.66272E-003	0.00000E+000	-2.82973E-004	-5.52013E-002	4.22453E-002	3.59414E+001	11	...........	7.05035E-002	-4.99375E-003	5.97663E-001	5.58404E-001	-2.80256E-002	-3.87672E-002	6.92374E-001	-4.38911E-002	-3.99242E-004	2.82782E-005	-3.38440E-003	-3.16209E-003	1.58701E-004	2.19528E-004	-3.92072E-003	2.48543E-004
	213	213	4.99705E-002	-5.59544E-003	0.00000E+000	-2.79607E-004	-5.45273E-002	4.22395E-002	3.47543E+001	11	...........	7.04735E-002	-5.13625E-003	5.97613E-001	5.58443E-001	-2.80428E-002	-3.87819E-002	6.92340E-001	-4.38096E-002	-3.94330E-004	2.87396E-005	-3.34391E-003	-3.12474E-003	1.56912E-004	2.17002E-004	-3.87395E-003	2.45134E-004
	214	214	4.99716E-002	-5.49481E-003	0.00000E+000	-2.74585E-004	-5.35260E-002	4.22085E-002	3.56629E+001	11	...........	7.04235E-002	-5.10625E-003	5.97532E-001	5.58373E-001	-2.81040E-002	-3.88060E-002	6.92275E-001	-4.38367E-002	-3.86964E-004	2.80579E-005	-3.28332E-003	-3.06815E-003	1.54426E-004	2.13231E-004	-3.80392E-003	2.40874E-004
	215	215	4.99715E-002	-5.50635E-003	0.00000E+000	-2.75160E-004	-5.36393E-002	4.22446E-002	3.58932E+001	11	...........	7.04942E-002	-4.96986E-003	5.97499E-001	5.58253E-001	-2.80842E-002	-3.87908E-002	6.92210E-001	-4.37378E-002	-3.88165E-004	2.73658E-005	-3.29004E-003	-3.07393E-003	1.54641E-004	2.13596E-004	-3.81155E-003	2.40835E-004
	216	216	4.99714E-002	-5.46296E-003	0.00000E+000	-2.72992E-004	-5.32073E-002	4.22367E-002	3.58951E+001	11	...........	7.04826E-002	-5.05167E-003	5.97651E-001	5.58228E-001	-2.80839E-002	-3.87867E-002	6.92135E-001	-4.36783E-002	-3.85044E-004	2.75971E-005	-3.26494E-003	-3.04958E-003	1.53421E-004	2.11890E-004	-3.78111E-003	2.38613E-004
	217	217	4.99712E-002	-5.42159E-003	0.00000E+000	-2.70923E-004	-5.28007E-002	4.22495E-002	3.59202E+001	11	...........	7.04910E-002	-5.11875E-003	5.97670E-001	5.58286E-001	-2.80797E-002	-3.87829E-002	6.92206E-001	-4.37996E-002	-3.82173E-004	2.77517E-005	-3.24032E-003	-3.02680E-003	1.52237E-004	2.10265E-004	-3.75285E-003	2.37463E-004
	218	218	4.99714E-002	-5.37195E-003	0.00000E+000	-2.68444E-004	-5.23067E-002	4.22353E-002	3.59273E+001	11	...........	7.04767E-002	-5.04306E-003	5.97729E-001	5.58379E-001	-2.80808E-002	-3.87781E-002	6.92257E-001	-4.37826E-002	-3.78597E-004	2.70910E-005	-3.21097E-003	-2.99958E-003	1.50849E-004	2.08314E-004	-3.71877E-003	2.35198E-004
	219	219	4.99707E-002	-5.30183E-003	0.00000E+000	-2.64936E-004	-5.16140E-002	4.22568E-002	3.59052E+001	11	...........	7.05050E-002	-5.06736E-003	5.97866E-001	5.58576E-001	-2.80722E-002	-3.87739E-002	6.92203E-001	-4.38865E-002	-3.73806E-004	2.68663E-005	-3.16979E-003	-2.96148E-003	1.48834E-004	2.05573E-004	-3.66994E-003	2.32679E-004
	220	220	4.99714E-002	-5.21563E-003	0.00000E+000	-2.60632E-004	-5.07733E-002	4.22399E-002	3.58348E+001	11	...........	7.04865E-002	-5.11694E-003	5.98123E-001	5.58595E-001	-2.80696E-002	-3.87750E-002	6.92265E-001	-4.39308E-002	-3.67632E-004	2.66881E-005	-3.11959E-003	-2.91342E-003	1.46401E-004	2.02236E-004	-3.61060E-003	2.29127E-004
	221	221	4.99710E-002	-5.17961E-003	0.00000E+000	-2.58831E-004	-5.04133E-002	4.22404E-002	3.58326E+001	11	...........	7.04876E-002	-5.07125E-003	5.98178E-001	5.58496E-001	-2.80601E-002	-3.87567E-002	6.92270E-001	-4.39214E-002	-3.65099E-004	2.62671E-005	-3.09833E-003	-2.89279E-003	1.45341E-004	2.00745E-004	-3.58569E-003	2.27496E-004
	222	222	4.99712E-002	-5.13669E-003	0.00000E+000	-2.56687E-004	-4.99860E-002	4.22850E-002	3.58944E+001	11	...........	7.05312E-002	-5.13833E-003	5.98238E-001	5.58541E-001	-2.80521E-002	-3.87486E-002	6.92167E-001	-4.38353E-002	-3.62297E-004	2.63940E-005	-3.07296E-003	-2.86905E-003	1.44095E-004	1.99040E-004	-3.55545E-003	2.25168E-004
	223	222.988	4.99711E-002	-5.06279E-003	0.00000E+000	-2.52993E-004	-4.92476E-002	4.22757E-002	3.59350E+001	11	...........	7.05518E-002	-5.15051E-003	5.98260E-001	5.58433E-001	-2.80527E-002	-3.87417E-002	6.92143E-001	-4.37371E-002	-3.57190E-004	2.60760E-005	-3.02887E-003	-2.82723E-003	1.42025E-004	1.96141E-004	-3.50418E-003	2.21432E-004
STARTTIMEOFFSET	QUANT	579690.9	Start Time Offset (s)
