EXPLAIN
TAG	PWR800_DISCHARGE
TITLE	LABEL	PWR Discharge	Test Identifier
DATE	LABEL	10/13/2022	Date
TIME	LABEL	1:05:53	Time
NOTES	NOTES	1	Notes...
	
PSTAT	PSTAT	REF3000-21114	Potentiostat
CAPACITY	QUANT	5.30000E-002	Capacity (A-hr)
CELLTYPE	SELECTOR	1	Cell Type
WORKINGCONNECTION	SELECTOR	0	Working Connection
MAXDISCHARGETIME	VARIABLEANDUNITS	7.20000E+003	s	2.00000E+000	hour(s)	Max Discharge Time
DISCHARGEMODE	MULTIPARAM	0	1.00000E-001	Discharge Mode	Constant Current	Amp(s)
VOLTAGEFINISH	TWOPARAM	T	5.00000E-003	7.20000E+003	Voltage Finish	I (A) <	Max Time(s)
SAMPLETIME	QUANT	1.00000E+000	Sample Period (s)
DISCHARGESTOPAT1	MULTIPARAM	1	5.00000E-002	Stop At 1	|Voltage| < Limit	V
DISCHARGESTOPAT2	MULTIPARAM	0	0.00000E+000	Stop At 2	None	N/A
AESELECTOR	AESELECTOR	0x1	T	Set Limits	AE Channels
AESBHCSELECTOR	TOGGLE	F	Save Both Half Cells
IRCOMP	TOGGLE	F	IR Measure
EOC	QUANT	0.5616783	Open Circuit (V)
SEQUENCER	TOGGLE	TRUE	Run as Sequence
PSTATMODEL	IQUANT	5	Pstat Model
PSTATSECTION	LABEL	REF3000-21114	Pstat Section
PSTATSERIALNO	LABEL	21114	Pstat Serial Number
CTRLMODE	IQUANT	0	Control Mode
ELECTROMETER	IQUANT	0	RE=0 or CS=1
IESTAB	IQUANT	0	I/E Stability
CASPEED	IQUANT	4	Control Amp Speed
CONVENTION	IQUANT	1	Current Convention
ICHRANGE	IQUANT	2	Ich Range
ICHRANGEMODE	TOGGLE	T	Ich Auto Range
ICHOFFSETENABLE	TOGGLE	F	Ich Offset Enable
ICHOFFSET	QUANT	0	Ich Offset (V)
ICHFILTER	IQUANT	1	Ich Filter
VCHRANGE	IQUANT	3	Vch Range
VCHRANGEMODE	TOGGLE	T	Vch Auto Range
VCHOFFSETENABLE	TOGGLE	F	Vch Offset Enable
VCHOFFSET	QUANT	0	Vch Offset (V)
VCHFILTER	IQUANT	1	Vch Filter
ACHRANGE	IQUANT	2	Ach Range
ACHOFFSETENABLE	TOGGLE	F	Ach Offset Enable
ACHOFFSET	QUANT	0	Ach Offset (V)
ACHFILTER	IQUANT	1	Ach Filter
IERANGELOWERLIMIT	IQUANT	9	I/E Range Lower Limit
IERANGEMODE	TOGGLE	F	I/E AutoRange
IERANGE	IQUANT	9	I/E Range
POSFEEDENABLE	TOGGLE	F	Positive Feedback IR Comp
POSFEEDRESISTANCE	QUANT	0	Positive Feedback Resistance (ohm)
ACHSELECT	IQUANT	1	Ach Select
SENSECABLEID	IQUANT	13	Sense Cable ID
PWRCABLEID	IQUANT	13	Power Cable ID
DCCALDATE	LABEL		DC Calibration Date
ACCALDATE	LABEL		AC Calibration Date
THERMOSELECT	IQUANT	1	Thermo Select
FRAMEWORKVERSION	LABEL	7.8.6	Framework Version
INSTRUMENTVERSION	LABEL	4.50	Instrument Version
COMPLIANCEVOLTAGE	IQUANT	0	Compliance Voltage
CURVE	TABLE	167
	Pt	T	Vf	Im	Vu	Pwr	Sig	Ach	Temp	IERange	Over	Vf1	Vf2	Vf3	Vf4	Vf5	Vf6	Vf7	Vf8	Pwr1	Pwr2	Pwr3	Pwr4	Pwr5	Pwr6	Pwr7	Pwr8
	#	s	V	A	V	W	V	V	deg C	#	bits	V	V	V	V	V	V	V	V	W	W	W	W	W	W	W	W
	0	1	3.35022E-001	-1.00104E-001	0.00000E+000	-3.35371E-002	-9.94000E-001	3.83260E-002	3.02569E+001	11	...........	6.36794E-002	-4.55681E-003	5.79234E-001	5.91265E-001	-2.88751E-002	-3.92275E-002	6.73901E-001	-4.37340E-002	-6.37457E-003	4.56155E-004	-5.79837E-002	-5.91880E-002	2.89052E-003	3.92683E-003	-6.74602E-002	4.37795E-003
	1	2	2.45847E-001	-1.00105E-001	0.00000E+000	-2.46104E-002	-9.94000E-001	3.83787E-002	2.95227E+001	11	...........	6.37424E-002	-4.54556E-003	5.79333E-001	5.91247E-001	-2.89306E-002	-3.91992E-002	6.74026E-001	-4.37592E-002	-6.38091E-003	4.55031E-004	-5.79940E-002	-5.91866E-002	2.89608E-003	3.92402E-003	-6.74732E-002	4.38050E-003
	2	3	1.72615E-001	-1.00105E-001	0.00000E+000	-1.72795E-002	-9.94000E-001	3.82788E-002	2.87831E+001	11	...........	6.36179E-002	-4.57444E-003	5.79254E-001	5.91352E-001	-2.89311E-002	-3.91858E-002	6.73877E-001	-4.38172E-002	-6.36845E-003	4.57923E-004	-5.79860E-002	-5.91971E-002	2.89614E-003	3.92268E-003	-6.74582E-002	4.38631E-003
	3	4	1.08614E-001	-1.00105E-001	0.00000E+000	-1.08728E-002	-9.94000E-001	3.82460E-002	2.81860E+001	11	...........	6.35565E-002	-4.52278E-003	5.79294E-001	5.91383E-001	-2.89393E-002	-3.91832E-002	6.73869E-001	-4.38497E-002	-6.36232E-003	4.52752E-004	-5.79901E-002	-5.92004E-002	2.89697E-003	3.92243E-003	-6.74576E-002	4.38957E-003
	4	4.56833	6.46455E-002	-1.00105E-001	0.00000E+000	-6.47135E-003	-9.94000E-001	3.82295E-002	2.78355E+001	11	...........	6.35147E-002	-4.53983E-003	5.79262E-001	5.91452E-001	-2.89543E-002	-3.92075E-002	6.73884E-001	-4.37595E-002	-6.35815E-003	4.54461E-004	-5.79872E-002	-5.92074E-002	2.89848E-003	3.92487E-003	-6.74593E-002	4.38056E-003
	5	5	4.95131E-002	-9.15049E-002	0.00000E+000	-4.53069E-003	-9.08490E-001	3.83290E-002	2.81091E+001	11	...........	6.37033E-002	-4.56049E-003	5.79212E-001	5.91543E-001	-2.89775E-002	-3.92172E-002	6.73916E-001	-4.37735E-002	-5.82917E-003	4.17307E-004	-5.30007E-002	-5.41291E-002	2.65158E-003	3.58856E-003	-6.16666E-002	4.00549E-003
	6	6	4.97200E-002	-7.34168E-002	0.00000E+000	-3.65028E-003	-7.28660E-001	3.84253E-002	2.89738E+001	11	...........	6.38231E-002	-4.57125E-003	5.79262E-001	5.91467E-001	-2.89351E-002	-3.92657E-002	6.73963E-001	-4.38719E-002	-4.68569E-003	3.35607E-004	-4.25275E-002	-4.34236E-002	2.12433E-003	2.88276E-003	-4.94802E-002	3.22094E-003
	7	7	4.98315E-002	-5.96417E-002	0.00000E+000	-2.97204E-003	-5.91707E-001	3.84817E-002	2.97214E+001	11	...........	6.39964E-002	-4.68625E-003	5.79260E-001	5.91525E-001	-2.88915E-002	-3.92811E-002	6.73945E-001	-4.39553E-002	-3.81685E-003	2.79496E-004	-3.45480E-002	-3.52795E-002	1.72314E-003	2.34279E-003	-4.01952E-002	2.62157E-003
	8	8	4.98796E-002	-5.19129E-002	0.00000E+000	-2.58939E-003	-5.14866E-001	3.85544E-002	3.02313E+001	11	...........	6.40837E-002	-4.54181E-003	5.79082E-001	5.91501E-001	-2.89254E-002	-3.92594E-002	6.73921E-001	-4.39197E-002	-3.32677E-003	2.35778E-004	-3.00618E-002	-3.07065E-002	1.50160E-003	2.03807E-003	-3.49852E-002	2.28000E-003
	9	9	4.99052E-002	-4.70246E-002	0.00000E+000	-2.34677E-003	-4.66265E-001	3.86323E-002	3.05319E+001	11	...........	6.41783E-002	-4.54806E-003	5.78967E-001	5.91495E-001	-2.89343E-002	-3.92468E-002	6.73918E-001	-4.39668E-002	-3.01796E-003	2.13871E-004	-2.72257E-002	-2.78148E-002	1.36063E-003	1.84557E-003	-3.16908E-002	2.06752E-003
	10	10	4.99188E-002	-4.37221E-002	0.00000E+000	-2.18255E-003	-4.33428E-001	3.86844E-002	3.07659E+001	11	...........	6.42790E-002	-4.57111E-003	5.79064E-001	5.91428E-001	-2.89207E-002	-3.92367E-002	6.73962E-001	-4.38360E-002	-2.81041E-003	1.99859E-004	-2.53179E-002	-2.58585E-002	1.26447E-003	1.71551E-003	-2.94671E-002	1.91660E-003
	11	11	4.99284E-002	-4.13459E-002	0.00000E+000	-2.06434E-003	-4.09816E-001	3.87627E-002	3.09494E+001	11	...........	6.43949E-002	-4.67042E-003	5.79122E-001	5.91550E-001	-2.89529E-002	-3.92021E-002	6.74049E-001	-4.38964E-002	-2.66247E-003	1.93103E-004	-2.39444E-002	-2.44582E-002	1.19709E-003	1.62085E-003	-2.78692E-002	1.81494E-003
	12	12	4.99344E-002	-3.95131E-002	0.00000E+000	-1.97306E-003	-3.91596E-001	3.88269E-002	3.11307E+001	11	...........	6.44668E-002	-4.60472E-003	5.79089E-001	5.91580E-001	-2.89753E-002	-3.91946E-002	6.74126E-001	-4.38479E-002	-2.54728E-003	1.81947E-004	-2.28816E-002	-2.33752E-002	1.14490E-003	1.54870E-003	-2.66368E-002	1.73257E-003
	13	13	4.99379E-002	-3.81213E-002	0.00000E+000	-1.90370E-003	-3.77764E-001	3.88703E-002	3.12611E+001	11	...........	6.45599E-002	-4.60639E-003	5.79092E-001	5.91672E-001	-2.89536E-002	-3.92015E-002	6.74299E-001	-4.37212E-002	-2.46111E-003	1.75602E-004	-2.20757E-002	-2.25553E-002	1.10375E-003	1.49441E-003	-2.57051E-002	1.66671E-003
	14	14	4.99397E-002	-3.69548E-002	0.00000E+000	-1.84551E-003	-3.66152E-001	3.89093E-002	3.13549E+001	11	...........	6.46482E-002	-4.68306E-003	5.79076E-001	5.91744E-001	-2.89872E-002	-3.91633E-002	6.74228E-001	-4.37910E-002	-2.38906E-003	1.73061E-004	-2.13996E-002	-2.18678E-002	1.07122E-003	1.44727E-003	-2.49160E-002	1.61829E-003
	15	15	4.99416E-002	-3.59380E-002	0.00000E+000	-1.79480E-003	-3.56041E-001	3.89691E-002	3.14624E+001	11	...........	6.47217E-002	-4.61250E-003	5.78940E-001	5.91844E-001	-2.90165E-002	-3.91818E-002	6.74149E-001	-4.38076E-002	-2.32596E-003	1.65764E-004	-2.08059E-002	-2.12697E-002	1.04279E-003	1.40811E-003	-2.42275E-002	1.57436E-003
	16	16	4.99429E-002	-3.50737E-002	0.00000E+000	-1.75168E-003	-3.47437E-001	3.90162E-002	3.15625E+001	11	...........	6.47799E-002	-4.70472E-003	5.78926E-001	5.91867E-001	-2.89951E-002	-3.91783E-002	6.74182E-001	-4.38653E-002	-2.27207E-003	1.65012E-004	-2.03051E-002	-2.07590E-002	1.01697E-003	1.37413E-003	-2.36461E-002	1.53852E-003
	17	17	4.99444E-002	-3.43116E-002	0.00000E+000	-1.71367E-003	-3.39870E-001	3.90617E-002	3.16540E+001	11	...........	6.48671E-002	-4.57694E-003	5.78807E-001	5.92016E-001	-2.89712E-002	-3.91994E-002	6.74144E-001	-4.38619E-002	-2.22569E-003	1.57042E-004	-1.98598E-002	-2.03130E-002	9.94049E-004	1.34499E-003	-2.31309E-002	1.50497E-003
	18	18	4.99455E-002	-3.36278E-002	0.00000E+000	-1.67956E-003	-3.33074E-001	3.91210E-002	3.16544E+001	11	...........	6.49967E-002	-4.52542E-003	5.78775E-001	5.92115E-001	-2.89690E-002	-3.92104E-002	6.74276E-001	-4.38383E-002	-2.18569E-003	1.52180E-004	-1.94629E-002	-1.99115E-002	9.74165E-004	1.31856E-003	-2.26744E-002	1.47419E-003
	19	19	4.99453E-002	-3.29785E-002	0.00000E+000	-1.64712E-003	-3.26607E-001	3.91035E-002	3.17552E+001	11	...........	6.49856E-002	-4.63319E-003	5.78781E-001	5.92197E-001	-2.89483E-002	-3.91894E-002	6.74339E-001	-4.39386E-002	-2.14313E-003	1.52796E-004	-1.90873E-002	-1.95298E-002	9.54674E-004	1.29241E-003	-2.22387E-002	1.44903E-003
	20	20	4.99480E-002	-3.24013E-002	0.00000E+000	-1.61838E-003	-3.20860E-001	3.90725E-002	3.17966E+001	11	...........	6.51044E-002	-4.62653E-003	5.78730E-001	5.92097E-001	-2.89942E-002	-3.91614E-002	6.74375E-001	-4.38329E-002	-2.10947E-003	1.49906E-004	-1.87516E-002	-1.91847E-002	9.39450E-004	1.26888E-003	-2.18506E-002	1.42025E-003
	21	21	4.99473E-002	-3.20032E-002	0.00000E+000	-1.59847E-003	-3.16916E-001	3.90672E-002	3.18569E+001	11	...........	6.51686E-002	-4.73792E-003	5.78861E-001	5.92027E-001	-2.90329E-002	-3.91844E-002	6.74437E-001	-4.38996E-002	-2.08560E-003	1.51628E-004	-1.85254E-002	-1.89468E-002	9.29146E-004	1.25403E-003	-2.15841E-002	1.40493E-003
	22	22	4.99461E-002	-3.14929E-002	0.00000E+000	-1.57295E-003	-3.11833E-001	3.92543E-002	3.17968E+001	11	...........	6.54925E-002	-4.80472E-003	5.79031E-001	5.91899E-001	-2.90658E-002	-3.91782E-002	6.74394E-001	-4.39153E-002	-2.06255E-003	1.51315E-004	-1.82353E-002	-1.86406E-002	9.15367E-004	1.23383E-003	-2.12386E-002	1.38302E-003
	23	23	4.99465E-002	-3.09085E-002	0.00000E+000	-1.54377E-003	-3.06050E-001	3.90163E-002	3.19405E+001	11	...........	6.51081E-002	-4.76653E-003	5.79008E-001	5.92044E-001	-2.90951E-002	-3.92028E-002	6.74321E-001	-4.38646E-002	-2.01240E-003	1.47326E-004	-1.78963E-002	-1.82992E-002	8.99288E-004	1.21170E-003	-2.08423E-002	1.35579E-003
	24	24	4.99487E-002	-3.04552E-002	0.00000E+000	-1.52120E-003	-3.01550E-001	3.93258E-002	3.17940E+001	11	...........	6.56021E-002	-4.73806E-003	5.79037E-001	5.91869E-001	-2.91001E-002	-3.92087E-002	6.74367E-001	-4.38635E-002	-1.99792E-003	1.44298E-004	-1.76347E-002	-1.80255E-002	8.86250E-004	1.19411E-003	-2.05380E-002	1.33587E-003
	25	25	4.99461E-002	-2.99980E-002	0.00000E+000	-1.49828E-003	-2.96991E-001	3.91968E-002	3.15001E+001	11	...........	6.54168E-002	-4.68833E-003	5.79016E-001	5.91742E-001	-2.90631E-002	-3.92411E-002	6.74361E-001	-4.36326E-002	-1.96237E-003	1.40640E-004	-1.73693E-002	-1.77510E-002	8.71832E-004	1.17715E-003	-2.02294E-002	1.30889E-003
	26	26	4.99471E-002	-2.95213E-002	0.00000E+000	-1.47451E-003	-2.92263E-001	3.91964E-002	3.16558E+001	11	...........	6.54386E-002	-4.71708E-003	5.78815E-001	5.91641E-001	-2.90624E-002	-3.92258E-002	6.74327E-001	-4.36619E-002	-1.93184E-003	1.39255E-004	-1.70874E-002	-1.74660E-002	8.57960E-004	1.15800E-003	-1.99070E-002	1.28896E-003
	27	27	4.99515E-002	-2.90905E-002	0.00000E+000	-1.45311E-003	-2.87978E-001	3.92585E-002	3.14660E+001	11	...........	6.55335E-002	-4.71236E-003	5.78842E-001	5.91612E-001	-2.90729E-002	-3.92507E-002	6.74269E-001	-4.37144E-002	-1.90640E-003	1.37085E-004	-1.68388E-002	-1.72103E-002	8.45745E-004	1.14182E-003	-1.96148E-002	1.27167E-003
	28	28	4.99461E-002	-2.83926E-002	0.00000E+000	-1.41810E-003	-2.81041E-001	3.92369E-002	3.19229E+001	11	...........	6.54733E-002	-4.60819E-003	5.78819E-001	5.91525E-001	-2.90379E-002	-3.92665E-002	6.74116E-001	-4.37386E-002	-1.85896E-003	1.30839E-004	-1.64342E-002	-1.67949E-002	8.24461E-004	1.11488E-003	-1.91399E-002	1.24185E-003
	29	29	4.99506E-002	-2.84527E-002	0.00000E+000	-1.42123E-003	-2.81638E-001	3.93334E-002	3.21578E+001	11	...........	6.56247E-002	-4.64278E-003	5.78847E-001	5.91539E-001	-2.90474E-002	-3.92500E-002	6.74261E-001	-4.37519E-002	-1.86720E-003	1.32100E-004	-1.64698E-002	-1.68309E-002	8.26477E-004	1.11677E-003	-1.91846E-002	1.24486E-003
	30	30	4.99484E-002	-2.80895E-002	0.00000E+000	-1.40303E-003	-2.78025E-001	3.92988E-002	3.22518E+001	11	...........	6.55525E-002	-4.63861E-003	5.78989E-001	5.91695E-001	-2.90518E-002	-3.92825E-002	6.74039E-001	-4.37619E-002	-1.84134E-003	1.30296E-004	-1.62635E-002	-1.66205E-002	8.16052E-004	1.10343E-003	-1.89334E-002	1.22925E-003
	31	31	4.99470E-002	-2.76649E-002	0.00000E+000	-1.38178E-003	-2.73796E-001	3.93214E-002	3.22730E+001	11	...........	6.56304E-002	-4.63556E-003	5.78897E-001	5.91583E-001	-2.90347E-002	-3.92597E-002	6.73817E-001	-4.37956E-002	-1.81566E-003	1.28242E-004	-1.60151E-002	-1.63661E-002	8.03243E-004	1.08612E-003	-1.86411E-002	1.21160E-003
	32	32	4.99495E-002	-2.72200E-002	0.00000E+000	-1.35963E-003	-2.69359E-001	3.93454E-002	3.23539E+001	11	...........	6.56524E-002	-4.71111E-003	5.78793E-001	5.91589E-001	-2.90258E-002	-3.92642E-002	6.73995E-001	-4.38361E-002	-1.78706E-003	1.28236E-004	-1.57547E-002	-1.61031E-002	7.90083E-004	1.06877E-003	-1.83461E-002	1.19322E-003
	33	33	4.99488E-002	-2.69215E-002	0.00000E+000	-1.34469E-003	-2.66407E-001	3.93874E-002	3.24101E+001	11	...........	6.57153E-002	-4.69444E-003	5.78896E-001	5.91761E-001	-2.90181E-002	-3.92451E-002	6.74005E-001	-4.38340E-002	-1.76915E-003	1.26381E-004	-1.55847E-002	-1.59311E-002	7.81209E-004	1.05654E-003	-1.81452E-002	1.18008E-003
	34	34	4.99463E-002	-2.64556E-002	0.00000E+000	-1.32136E-003	-2.61768E-001	3.94413E-002	3.24495E+001	11	...........	6.57756E-002	-4.53722E-003	5.78962E-001	5.91750E-001	-2.90186E-002	-3.92718E-002	6.74056E-001	-4.37986E-002	-1.74013E-003	1.20035E-004	-1.53168E-002	-1.56551E-002	7.67706E-004	1.03896E-003	-1.78326E-002	1.15872E-003
	35	35	4.99486E-002	-2.59933E-002	0.00000E+000	-1.29833E-003	-2.57169E-001	3.94575E-002	3.22754E+001	11	...........	6.58315E-002	-4.65097E-003	5.78731E-001	5.91737E-001	-2.89796E-002	-3.92987E-002	6.74156E-001	-4.39347E-002	-1.71118E-003	1.20894E-004	-1.50431E-002	-1.53812E-002	7.53275E-004	1.02150E-003	-1.75236E-002	1.14201E-003
	36	36	4.99499E-002	-2.56062E-002	0.00000E+000	-1.27903E-003	-2.53328E-001	3.94546E-002	3.23741E+001	11	...........	6.58669E-002	-4.61653E-003	5.78746E-001	5.91739E-001	-2.90029E-002	-3.92578E-002	6.74148E-001	-4.38731E-002	-1.68660E-003	1.18212E-004	-1.48195E-002	-1.51522E-002	7.42654E-004	1.00524E-003	-1.72623E-002	1.12342E-003
	37	37	4.99484E-002	-2.53346E-002	0.00000E+000	-1.26543E-003	-2.50622E-001	3.95272E-002	3.24253E+001	11	...........	6.59518E-002	-4.66417E-003	5.78698E-001	5.91754E-001	-2.89511E-002	-3.92699E-002	6.74238E-001	-4.38562E-002	-1.67086E-003	1.18165E-004	-1.46611E-002	-1.49919E-002	7.33466E-004	9.94887E-004	-1.70816E-002	1.11108E-003
	38	38	4.99493E-002	-2.49972E-002	0.00000E+000	-1.24859E-003	-2.47260E-001	3.95579E-002	3.24799E+001	11	...........	6.59931E-002	-4.73111E-003	5.78757E-001	5.91743E-001	-2.89492E-002	-3.92535E-002	6.74168E-001	-4.37518E-002	-1.64964E-003	1.18264E-004	-1.44673E-002	-1.47919E-002	7.23647E-004	9.81226E-004	-1.68523E-002	1.09367E-003
	39	39	4.99481E-002	-2.46435E-002	0.00000E+000	-1.23089E-003	-2.43739E-001	3.95788E-002	3.25285E+001	11	...........	6.60696E-002	-4.66750E-003	5.78762E-001	5.91849E-001	-2.89946E-002	-3.92707E-002	6.74199E-001	-4.37349E-002	-1.62818E-003	1.15023E-004	-1.42627E-002	-1.45852E-002	7.14527E-004	9.67766E-004	-1.66146E-002	1.07778E-003
	40	40	4.99482E-002	-2.42160E-002	0.00000E+000	-1.20955E-003	-2.39504E-001	3.96772E-002	3.25389E+001	11	...........	6.62517E-002	-4.70958E-003	5.78674E-001	5.91863E-001	-2.89682E-002	-3.92706E-002	6.74191E-001	-4.37644E-002	-1.60435E-003	1.14047E-004	-1.40132E-002	-1.43326E-002	7.01494E-004	9.50976E-004	-1.63262E-002	1.05980E-003
	41	41	4.99485E-002	-2.38506E-002	0.00000E+000	-1.19130E-003	-2.35862E-001	3.96004E-002	3.26244E+001	11	...........	6.60186E-002	-4.66653E-003	5.78812E-001	5.91899E-001	-2.89757E-002	-3.92843E-002	6.74043E-001	-4.37111E-002	-1.57458E-003	1.11299E-004	-1.38050E-002	-1.41171E-002	6.91086E-004	9.36952E-004	-1.60763E-002	1.04253E-003
	42	42	4.99505E-002	-2.35336E-002	0.00000E+000	-1.17551E-003	-2.32710E-001	3.97223E-002	3.26065E+001	11	...........	6.62965E-002	-4.68500E-003	5.78711E-001	5.91894E-001	-2.89572E-002	-3.92576E-002	6.74032E-001	-4.38339E-002	-1.56019E-003	1.10255E-004	-1.36191E-002	-1.39294E-002	6.81467E-004	9.23873E-004	-1.58624E-002	1.03157E-003
	43	43	4.99482E-002	-2.31954E-002	0.00000E+000	-1.15857E-003	-2.29358E-001	3.97558E-002	3.26928E+001	11	...........	6.63096E-002	-4.69944E-003	5.78744E-001	5.91861E-001	-2.89782E-002	-3.92581E-002	6.74258E-001	-4.39139E-002	-1.53807E-003	1.09005E-004	-1.34242E-002	-1.37284E-002	6.72159E-004	9.10604E-004	-1.56397E-002	1.01860E-003
	44	44	4.99491E-002	-2.28563E-002	0.00000E+000	-1.14165E-003	-2.25976E-001	3.96808E-002	3.27415E+001	11	...........	6.61996E-002	-4.79264E-003	5.78662E-001	5.91912E-001	-2.89515E-002	-3.93037E-002	6.74230E-001	-4.38962E-002	-1.51308E-003	1.09542E-004	-1.32261E-002	-1.35289E-002	6.61724E-004	8.98337E-004	-1.54104E-002	1.00330E-003
	45	45	4.99502E-002	-2.25372E-002	0.00000E+000	-1.12574E-003	-2.22799E-001	3.97560E-002	3.27845E+001	11	...........	6.63232E-002	-4.73833E-003	5.78591E-001	5.91885E-001	-2.89675E-002	-3.93175E-002	6.74267E-001	-4.37587E-002	-1.49474E-003	1.06789E-004	-1.30398E-002	-1.33394E-002	6.52846E-004	8.86106E-004	-1.51961E-002	9.86199E-004
	46	46	4.99500E-002	-2.22665E-002	0.00000E+000	-1.11221E-003	-2.20108E-001	3.97912E-002	3.28273E+001	11	...........	6.63665E-002	-4.69111E-003	5.78785E-001	5.91795E-001	-2.89439E-002	-3.93167E-002	6.74250E-001	-4.37646E-002	-1.47775E-003	1.04455E-004	-1.28875E-002	-1.31772E-002	6.44479E-004	8.75444E-004	-1.50132E-002	9.74483E-004
	47	47	4.99489E-002	-2.20124E-002	0.00000E+000	-1.09950E-003	-2.17581E-001	3.98136E-002	3.28591E+001	11	...........	6.64128E-002	-4.68861E-003	5.78929E-001	5.91748E-001	-2.89900E-002	-3.93040E-002	6.74191E-001	-4.37458E-002	-1.46191E-003	1.03208E-004	-1.27436E-002	-1.30258E-002	6.38140E-004	8.65176E-004	-1.48406E-002	9.62951E-004
	48	48	4.99491E-002	-2.16979E-002	0.00000E+000	-1.08379E-003	-2.14465E-001	3.98283E-002	3.29114E+001	11	...........	6.64380E-002	-4.64347E-003	5.79031E-001	5.91736E-001	-2.90115E-002	-3.92535E-002	6.74171E-001	-4.37781E-002	-1.44156E-003	1.00753E-004	-1.25637E-002	-1.28394E-002	6.29488E-004	8.51716E-004	-1.46281E-002	9.49890E-004
	49	49	4.99463E-002	-2.12278E-002	0.00000E+000	-1.06025E-003	-2.09787E-001	3.98454E-002	3.19679E+001	11	...........	6.64712E-002	-4.77181E-003	5.79166E-001	5.91841E-001	-2.89915E-002	-3.92932E-002	6.74178E-001	-4.38214E-002	-1.41104E-003	1.01295E-004	-1.22944E-002	-1.25635E-002	6.15426E-004	8.34108E-004	-1.43113E-002	9.30232E-004
	50	50	4.99535E-002	-2.05899E-002	0.00000E+000	-1.02854E-003	-2.03448E-001	3.97288E-002	3.25278E+001	11	...........	6.63125E-002	-4.70917E-003	5.79142E-001	5.91835E-001	-2.90074E-002	-3.92879E-002	6.74215E-001	-4.37457E-002	-1.36537E-003	9.69614E-005	-1.19245E-002	-1.21858E-002	5.97260E-004	8.08936E-004	-1.38821E-002	9.00721E-004
	51	51	4.99516E-002	-2.09213E-002	0.00000E+000	-1.04505E-003	-2.06734E-001	3.98683E-002	3.30737E+001	11	...........	6.65658E-002	-4.65972E-003	5.79096E-001	5.91739E-001	-2.89982E-002	-3.92906E-002	6.74234E-001	-4.37774E-002	-1.39264E-003	9.74875E-005	-1.21154E-002	-1.23800E-002	6.06680E-004	8.22010E-004	-1.41058E-002	9.15879E-004
	52	52	4.99487E-002	-2.06528E-002	0.00000E+000	-1.03158E-003	-2.04079E-001	3.98788E-002	3.31678E+001	11	...........	6.65415E-002	-4.62944E-003	5.78923E-001	5.91627E-001	-2.90451E-002	-3.92901E-002	6.74218E-001	-4.38083E-002	-1.37427E-003	9.56109E-005	-1.19564E-002	-1.22187E-002	5.99863E-004	8.11451E-004	-1.39245E-002	9.04764E-004
	53	53	4.99512E-002	-2.04030E-002	0.00000E+000	-1.01916E-003	-2.01599E-001	3.99084E-002	3.32138E+001	11	...........	6.65685E-002	-4.63431E-003	5.78877E-001	5.91590E-001	-2.89969E-002	-3.93094E-002	6.74199E-001	-4.38178E-002	-1.35820E-003	9.45538E-005	-1.18108E-002	-1.20702E-002	5.91625E-004	8.02031E-004	-1.37557E-002	8.94015E-004
	54	54	4.99500E-002	-2.02078E-002	0.00000E+000	-1.00938E-003	-1.99657E-001	3.99304E-002	3.32664E+001	11	...........	6.66442E-002	-4.58486E-003	5.78862E-001	5.91618E-001	-2.90149E-002	-3.93086E-002	6.74278E-001	-4.38614E-002	-1.34673E-003	9.26498E-005	-1.16975E-002	-1.19553E-002	5.86325E-004	7.94339E-004	-1.36256E-002	8.86340E-004
	55	55	4.99498E-002	-1.99443E-002	0.00000E+000	-9.96213E-004	-1.97029E-001	3.99362E-002	3.33012E+001	11	...........	6.66756E-002	-4.57431E-003	5.78938E-001	5.91765E-001	-2.90243E-002	-3.92982E-002	6.74159E-001	-4.39096E-002	-1.32980E-003	9.12313E-005	-1.15465E-002	-1.18023E-002	5.78869E-004	7.83775E-004	-1.34456E-002	8.75745E-004
	56	56	4.99491E-002	-1.96694E-002	0.00000E+000	-9.82470E-004	-1.94286E-001	3.99489E-002	3.33243E+001	11	...........	6.66889E-002	-4.61792E-003	5.78942E-001	5.91883E-001	-2.90335E-002	-3.93417E-002	6.74273E-001	-4.38846E-002	-1.31173E-003	9.08317E-005	-1.13874E-002	-1.16420E-002	5.71071E-004	7.73827E-004	-1.32626E-002	8.63184E-004
	57	57	4.99506E-002	-1.93691E-002	0.00000E+000	-9.67497E-004	-1.91303E-001	4.00039E-002	3.33508E+001	11	...........	6.67494E-002	-4.67347E-003	5.78791E-001	5.91910E-001	-2.90193E-002	-3.93271E-002	6.74375E-001	-4.38971E-002	-1.29288E-003	9.05209E-005	-1.12107E-002	-1.14648E-002	5.62078E-004	7.61730E-004	-1.30620E-002	8.50247E-004
	58	58	4.99496E-002	-1.91079E-002	0.00000E+000	-9.54433E-004	-1.88723E-001	4.00220E-002	3.33901E+001	11	...........	6.68049E-002	-4.64542E-003	5.78669E-001	5.91889E-001	-2.90747E-002	-3.92949E-002	6.74167E-001	-4.38600E-002	-1.27650E-003	8.87643E-005	-1.10572E-002	-1.13098E-002	5.55558E-004	7.50843E-004	-1.28819E-002	8.38074E-004
	59	59	4.99493E-002	-1.88116E-002	0.00000E+000	-9.39628E-004	-1.85768E-001	4.00508E-002	3.34116E+001	11	...........	6.68254E-002	-4.60306E-003	5.78489E-001	5.91879E-001	-2.90892E-002	-3.93124E-002	6.74305E-001	-4.38131E-002	-1.25709E-003	8.65910E-005	-1.08823E-002	-1.11342E-002	5.47215E-004	7.39529E-004	-1.26848E-002	8.24195E-004
	60	60	4.99506E-002	-1.85522E-002	0.00000E+000	-9.26696E-004	-1.83186E-001	4.00682E-002	3.34445E+001	11	...........	6.68830E-002	-4.74667E-003	5.78543E-001	5.91845E-001	-2.91043E-002	-3.93478E-002	6.74340E-001	-4.37957E-002	-1.24083E-003	8.80613E-005	-1.07333E-002	-1.09800E-002	5.39950E-004	7.29989E-004	-1.25105E-002	8.12508E-004
	61	61	4.99496E-002	-1.82892E-002	0.00000E+000	-9.13538E-004	-1.80563E-001	4.01114E-002	3.34608E+001	11	...........	6.69010E-002	-4.70903E-003	5.78664E-001	5.91956E-001	-2.91222E-002	-3.93151E-002	6.74207E-001	-4.37546E-002	-1.22356E-003	8.61243E-005	-1.05833E-002	-1.08264E-002	5.32622E-004	7.19042E-004	-1.23307E-002	8.00236E-004
	62	62	4.99500E-002	-1.80611E-002	0.00000E+000	-9.02154E-004	-1.78316E-001	4.01098E-002	3.34978E+001	11	...........	6.69553E-002	-4.65875E-003	5.78673E-001	5.91965E-001	-2.91115E-002	-3.93136E-002	6.74229E-001	-4.37217E-002	-1.20929E-003	8.41423E-005	-1.04515E-002	-1.06916E-002	5.25787E-004	7.10049E-004	-1.21773E-002	7.89663E-004
	63	63	4.99504E-002	-1.77804E-002	0.00000E+000	-8.88138E-004	-1.75515E-001	4.01332E-002	3.35307E+001	11	...........	6.69858E-002	-4.67778E-003	5.78634E-001	5.91844E-001	-2.91019E-002	-3.92668E-002	6.74336E-001	-4.37349E-002	-1.19104E-003	8.31728E-005	-1.02883E-002	-1.05232E-002	5.17444E-004	6.98180E-004	-1.19900E-002	7.77624E-004
	64	64	4.99499E-002	-1.75725E-002	0.00000E+000	-8.77746E-004	-1.73446E-001	4.01517E-002	3.35665E+001	11	...........	6.69996E-002	-4.71417E-003	5.78773E-001	5.91738E-001	-2.90876E-002	-3.93054E-002	6.74403E-001	-4.38167E-002	-1.17735E-003	8.28398E-005	-1.01705E-002	-1.03983E-002	5.11143E-004	6.90695E-004	-1.18510E-002	7.69969E-004
	65	65	4.99502E-002	-1.73023E-002	0.00000E+000	-8.64256E-004	-1.70755E-001	4.01693E-002	3.35884E+001	11	...........	6.70344E-002	-4.70292E-003	5.78615E-001	5.91767E-001	-2.90611E-002	-3.93096E-002	6.74407E-001	-4.38987E-002	-1.15985E-003	8.13714E-005	-1.00114E-002	-1.02390E-002	5.02825E-004	6.80148E-004	-1.16688E-002	7.59551E-004
	66	66	4.99501E-002	-1.70532E-002	0.00000E+000	-8.51809E-004	-1.68276E-001	4.01724E-002	3.36187E+001	11	...........	6.70674E-002	-4.80667E-003	5.78705E-001	5.91763E-001	-2.90912E-002	-3.93367E-002	6.74264E-001	-4.38025E-002	-1.14371E-003	8.19690E-005	-9.86876E-003	-1.00914E-002	4.96098E-004	6.70815E-004	-1.14983E-002	7.46972E-004
	67	67	4.99505E-002	-1.68061E-002	0.00000E+000	-8.39473E-004	-1.65821E-001	4.01952E-002	3.36522E+001	11	...........	6.71119E-002	-4.75806E-003	5.78701E-001	5.91794E-001	-2.90751E-002	-3.93093E-002	6.74238E-001	-4.37779E-002	-1.12789E-003	7.99643E-005	-9.72570E-003	-9.94574E-003	4.88639E-004	6.60636E-004	-1.13313E-002	7.35735E-004
	68	68	4.99498E-002	-1.65937E-002	0.00000E+000	-8.28851E-004	-1.63715E-001	4.02371E-002	3.36858E+001	11	...........	6.71099E-002	-4.76653E-003	5.78791E-001	5.91781E-001	-2.91208E-002	-3.92926E-002	6.74303E-001	-4.38261E-002	-1.11360E-003	7.90942E-005	-9.60426E-003	-9.81981E-003	4.83221E-004	6.52009E-004	-1.11892E-002	7.27236E-004
	69	69	4.99503E-002	-1.63329E-002	0.00000E+000	-8.15834E-004	-1.61119E-001	4.02491E-002	3.36905E+001	11	...........	6.71419E-002	-4.64819E-003	5.78864E-001	5.91716E-001	-2.90903E-002	-3.93171E-002	6.74216E-001	-4.38361E-002	-1.09662E-003	7.59185E-005	-9.45454E-003	-9.66445E-003	4.75129E-004	6.42162E-004	-1.10119E-002	7.15971E-004
	70	70	4.99503E-002	-1.61033E-002	0.00000E+000	-8.04366E-004	-1.58836E-001	4.02597E-002	3.37077E+001	11	...........	6.71764E-002	-4.71764E-003	5.78871E-001	5.91912E-001	-2.90790E-002	-3.93281E-002	6.74206E-001	-4.38269E-002	-1.08176E-003	7.59697E-005	-9.32175E-003	-9.53175E-003	4.68269E-004	6.33312E-004	-1.08570E-002	7.05760E-004
	71	71	4.99505E-002	-1.58836E-002	0.00000E+000	-7.93396E-004	-1.56647E-001	4.02957E-002	3.36453E+001	11	...........	6.72758E-002	-4.65014E-003	5.78740E-001	5.91909E-001	-2.90756E-002	-3.93210E-002	6.74207E-001	-4.38139E-002	-1.06858E-003	7.38611E-005	-9.19250E-003	-9.40166E-003	4.61825E-004	6.24560E-004	-1.07088E-002	6.95924E-004
	72	72	4.99513E-002	-1.57053E-002	0.00000E+000	-7.84502E-004	-1.54873E-001	4.03014E-002	3.37228E+001	11	...........	6.72296E-002	-4.73708E-003	5.78847E-001	5.92130E-001	-2.90379E-002	-3.93746E-002	6.74196E-001	-4.39076E-002	-1.05586E-003	7.43974E-005	-9.09098E-003	-9.29959E-003	4.56050E-004	6.18390E-004	-1.05885E-002	6.89584E-004
	73	73	4.99501E-002	-1.54906E-002	0.00000E+000	-7.73759E-004	-1.52745E-001	4.03161E-002	3.37573E+001	11	...........	6.72760E-002	-4.76069E-003	5.78982E-001	5.91955E-001	-2.90724E-002	-3.93539E-002	6.74158E-001	-4.39242E-002	-1.04215E-003	7.37461E-005	-8.96879E-003	-9.16975E-003	4.50349E-004	6.09616E-004	-1.04431E-002	6.80413E-004
	74	74	4.99507E-002	-1.52662E-002	0.00000E+000	-7.62555E-004	-1.50509E-001	4.03216E-002	3.37913E+001	11	...........	6.72757E-002	-4.65389E-003	5.79010E-001	5.91753E-001	-2.90676E-002	-3.93297E-002	6.74141E-001	-4.38753E-002	-1.02704E-003	7.10470E-005	-8.83925E-003	-9.03379E-003	4.43751E-004	6.00413E-004	-1.02915E-002	6.69807E-004
	75	75	4.99507E-002	-1.50928E-002	0.00000E+000	-7.53893E-004	-1.48782E-001	4.03762E-002	3.37379E+001	11	...........	6.73962E-002	-4.69111E-003	5.79019E-001	5.91764E-001	-2.90628E-002	-3.93315E-002	6.74197E-001	-4.38864E-002	-1.01719E-003	7.08018E-005	-8.73899E-003	-8.93135E-003	4.38637E-004	5.93621E-004	-1.01755E-002	6.62366E-004
	76	76	4.99498E-002	-1.48245E-002	0.00000E+000	-7.40480E-004	-1.46109E-001	4.03441E-002	3.38075E+001	11	...........	6.73336E-002	-4.66014E-003	5.79113E-001	5.91779E-001	-2.90575E-002	-3.93399E-002	6.74269E-001	-4.38117E-002	-9.98185E-004	6.90841E-005	-8.58505E-003	-8.77281E-003	4.30762E-004	5.83193E-004	-9.99567E-003	6.49485E-004
	77	77	4.99509E-002	-1.46434E-002	0.00000E+000	-7.31453E-004	-1.44312E-001	4.03835E-002	3.38118E+001	11	...........	6.73843E-002	-4.62222E-003	5.79036E-001	5.91826E-001	-2.90301E-002	-3.93546E-002	6.74210E-001	-4.38035E-002	-9.86738E-004	6.76852E-005	-8.47907E-003	-8.66636E-003	4.25101E-004	5.76287E-004	-9.87276E-003	6.41434E-004
	78	78	4.99514E-002	-1.44622E-002	0.00000E+000	-7.22408E-004	-1.42501E-001	4.04055E-002	3.38236E+001	11	...........	6.73964E-002	-4.72986E-003	5.79029E-001	5.91787E-001	-2.90714E-002	-3.93253E-002	6.74156E-001	-4.37507E-002	-9.74702E-004	6.84043E-005	-8.37405E-003	-8.55855E-003	4.20437E-004	5.68731E-004	-9.74980E-003	6.32732E-004
	79	79	4.99503E-002	-1.42481E-002	0.00000E+000	-7.11695E-004	-1.40378E-001	4.04095E-002	3.38661E+001	11	...........	6.74507E-002	-4.63847E-003	5.79013E-001	5.91858E-001	-2.90708E-002	-3.93203E-002	6.74182E-001	-4.38085E-002	-9.61041E-004	6.60892E-005	-8.24981E-003	-8.43282E-003	4.14203E-004	5.60237E-004	-9.60579E-003	6.24185E-004
	80	80	4.99501E-002	-1.40269E-002	0.00000E+000	-7.00644E-004	-1.38190E-001	4.04072E-002	3.38869E+001	11	...........	6.74178E-002	-4.80653E-003	5.78946E-001	5.91883E-001	-2.90403E-002	-3.93257E-002	6.74143E-001	-4.38529E-002	-9.45659E-004	6.74205E-005	-8.12079E-003	-8.30225E-003	4.07344E-004	5.51616E-004	-9.45610E-003	6.15118E-004
	81	81	4.99516E-002	-1.38372E-002	0.00000E+000	-6.91190E-004	-1.36301E-001	4.04250E-002	3.39157E+001	11	...........	6.74622E-002	-4.87917E-003	5.78920E-001	5.91782E-001	-2.90371E-002	-3.93058E-002	6.74015E-001	-4.39003E-002	-9.33487E-004	6.75139E-005	-8.01063E-003	-8.18860E-003	4.01791E-004	5.43882E-004	-9.32647E-003	6.07456E-004
	82	82	4.99504E-002	-1.36702E-002	0.00000E+000	-6.82831E-004	-1.34639E-001	4.04541E-002	3.39304E+001	11	...........	6.74867E-002	-4.77681E-003	5.78892E-001	5.91785E-001	-2.90071E-002	-3.93440E-002	6.74273E-001	-4.38139E-002	-9.22555E-004	6.52998E-005	-7.91356E-003	-8.08980E-003	3.96532E-004	5.37840E-004	-9.21743E-003	5.98944E-004
	83	83	4.99507E-002	-1.34623E-002	0.00000E+000	-6.72453E-004	-1.32569E-001	4.05197E-002	3.38810E+001	11	...........	6.76067E-002	-4.72806E-003	5.78850E-001	5.91761E-001	-2.90057E-002	-3.93161E-002	6.74340E-001	-4.38078E-002	-9.10143E-004	6.36507E-005	-7.79267E-003	-7.96648E-003	3.90484E-004	5.29287E-004	-9.07819E-003	5.89755E-004
	84	84	4.99503E-002	-1.32500E-002	0.00000E+000	-6.61843E-004	-1.30452E-001	4.05442E-002	3.37475E+001	11	...........	6.76392E-002	-4.63111E-003	5.78805E-001	5.91595E-001	-2.90257E-002	-3.93318E-002	6.74248E-001	-4.36782E-002	-8.96222E-004	6.13624E-005	-7.66919E-003	-7.83865E-003	3.84592E-004	5.21148E-004	-8.93381E-003	5.78738E-004
	85	85	4.99526E-002	-1.30805E-002	0.00000E+000	-6.53406E-004	-1.28767E-001	4.05287E-002	3.37535E+001	11	...........	6.76007E-002	-4.56444E-003	5.78865E-001	5.91485E-001	-2.90344E-002	-3.93151E-002	6.74183E-001	-4.35468E-002	-8.84252E-004	5.97053E-005	-7.57185E-003	-7.73693E-003	3.79785E-004	5.14262E-004	-8.81866E-003	5.69615E-004
	86	86	4.99516E-002	-1.30315E-002	0.00000E+000	-6.50943E-004	-1.28287E-001	4.04859E-002	3.38296E+001	11	...........	6.75304E-002	-4.58361E-003	5.78781E-001	5.91729E-001	-2.90364E-002	-3.92519E-002	6.74161E-001	-4.35976E-002	-8.80020E-004	5.97312E-005	-7.54237E-003	-7.71110E-003	3.78387E-004	5.11510E-004	-8.78531E-003	5.68141E-004
	87	87	4.99511E-002	-1.28902E-002	0.00000E+000	-6.43881E-004	-1.26899E-001	4.05048E-002	3.39012E+001	11	...........	6.76287E-002	-4.69208E-003	5.78906E-001	5.91851E-001	-2.90392E-002	-3.92857E-002	6.74138E-001	-4.37878E-002	-8.71749E-004	6.04820E-005	-7.46222E-003	-7.62909E-003	3.74321E-004	5.06401E-004	-8.68978E-003	5.64434E-004
	88	88	4.99504E-002	-1.27142E-002	0.00000E+000	-6.35078E-004	-1.25138E-001	4.05056E-002	3.39454E+001	11	...........	6.76347E-002	-4.77542E-003	5.78882E-001	5.91758E-001	-2.90297E-002	-3.93015E-002	6.74297E-001	-4.38931E-002	-8.59919E-004	6.07154E-005	-7.36001E-003	-7.52371E-003	3.69089E-004	4.99686E-004	-8.57312E-003	5.58064E-004
	89	89	4.99523E-002	-1.25408E-002	0.00000E+000	-6.26444E-004	-1.23406E-001	4.05199E-002	3.38183E+001	11	...........	6.76171E-002	-4.72889E-003	5.78930E-001	5.91702E-001	-2.90121E-002	-3.92817E-002	6.74268E-001	-4.39267E-002	-8.47975E-004	5.93043E-005	-7.26028E-003	-7.42044E-003	3.63836E-004	4.92625E-004	-8.45589E-003	5.50877E-004
	90	90	4.99502E-002	-1.23473E-002	0.00000E+000	-6.16748E-004	-1.21483E-001	4.05247E-002	3.35052E+001	11	...........	6.76058E-002	-4.75847E-003	5.79039E-001	5.91791E-001	-2.90051E-002	-3.92947E-002	6.74212E-001	-4.37621E-002	-8.34746E-004	5.87540E-005	-7.14954E-003	-7.30699E-003	3.58134E-004	4.85182E-004	-8.32466E-003	5.40341E-004
	91	91	4.99511E-002	-1.21876E-002	0.00000E+000	-6.08783E-004	-1.19888E-001	4.05399E-002	3.38912E+001	11	...........	6.76650E-002	-4.77764E-003	5.79154E-001	5.91758E-001	-2.89983E-002	-3.92812E-002	6.74179E-001	-4.37675E-002	-8.24672E-004	5.82278E-005	-7.05849E-003	-7.21210E-003	3.53419E-004	4.78743E-004	-8.21661E-003	5.33420E-004
	92	92	4.99514E-002	-1.20258E-002	0.00000E+000	-6.00706E-004	-1.18276E-001	4.05323E-002	3.39637E+001	11	...........	6.76261E-002	-4.70472E-003	5.79132E-001	5.91798E-001	-2.90111E-002	-3.92407E-002	6.74187E-001	-4.38576E-002	-8.13259E-004	5.65781E-005	-6.96453E-003	-7.11685E-003	3.48882E-004	4.71901E-004	-8.10765E-003	5.27424E-004
	93	93	4.99506E-002	-1.18540E-002	0.00000E+000	-5.92113E-004	-1.16563E-001	4.05329E-002	3.39633E+001	11	...........	6.76522E-002	-4.57028E-003	5.79310E-001	5.91827E-001	-2.90025E-002	-3.92465E-002	6.74298E-001	-4.38450E-002	-8.01948E-004	5.41760E-005	-6.86713E-003	-7.01550E-003	3.43795E-004	4.65227E-004	-7.99311E-003	5.19738E-004
	94	94	4.99517E-002	-1.17103E-002	0.00000E+000	-5.84948E-004	-1.15130E-001	4.05694E-002	3.39730E+001	11	...........	6.77144E-002	-4.57069E-003	5.79264E-001	5.91778E-001	-2.90012E-002	-3.92560E-002	6.74225E-001	-4.38747E-002	-7.92955E-004	5.35241E-005	-6.78334E-003	-6.92988E-003	3.39613E-004	4.59698E-004	-7.89536E-003	5.13785E-004
	95	95	4.99513E-002	-1.15634E-002	0.00000E+000	-5.77609E-004	-1.13692E-001	4.05796E-002	3.39757E+001	11	...........	6.77031E-002	-4.66931E-003	5.79156E-001	5.91912E-001	-2.90196E-002	-3.92435E-002	6.74133E-001	-4.38758E-002	-7.82881E-004	5.39933E-005	-6.69704E-003	-6.84454E-003	3.35566E-004	4.53790E-004	-7.79530E-003	5.07356E-004
	96	96	4.99510E-002	-1.14011E-002	0.00000E+000	-5.69494E-004	-1.12074E-001	4.05845E-002	3.39865E+001	11	...........	6.77235E-002	-4.55792E-003	5.79137E-001	5.91942E-001	-2.90518E-002	-3.92479E-002	6.74173E-001	-4.39565E-002	-7.72119E-004	5.19651E-005	-6.60278E-003	-6.74876E-003	3.31221E-004	4.47468E-004	-7.68628E-003	5.01151E-004
	97	97	4.99515E-002	-1.12262E-002	0.00000E+000	-5.60767E-004	-1.10331E-001	4.05850E-002	3.40324E+001	11	...........	6.77551E-002	-4.56014E-003	5.79115E-001	5.91931E-001	-2.90069E-002	-3.92426E-002	6.74150E-001	-4.39890E-002	-7.60635E-004	5.11932E-005	-6.50128E-003	-6.64516E-003	3.25639E-004	4.40547E-004	-7.56816E-003	4.93831E-004
	98	98	4.99511E-002	-1.10930E-002	0.00000E+000	-5.54108E-004	-1.09005E-001	4.06200E-002	3.40517E+001	11	...........	6.77662E-002	-4.63917E-003	5.79142E-001	5.91783E-001	-2.89964E-002	-3.92569E-002	6.74205E-001	-4.39629E-002	-7.51731E-004	5.14623E-005	-6.42443E-003	-6.56465E-003	3.21657E-004	4.35477E-004	-7.47896E-003	4.87681E-004
	99	99	4.99512E-002	-1.09356E-002	0.00000E+000	-5.46248E-004	-1.07436E-001	4.06302E-002	3.40426E+001	11	...........	6.77919E-002	-4.66542E-003	5.79212E-001	5.91773E-001	-2.89799E-002	-3.92849E-002	6.74052E-001	-4.39871E-002	-7.41347E-004	5.10192E-005	-6.33404E-003	-6.47140E-003	3.16913E-004	4.29604E-004	-7.37118E-003	4.81026E-004
	100	100	4.99511E-002	-1.07671E-002	0.00000E+000	-5.37826E-004	-1.05757E-001	4.07155E-002	3.39030E+001	11	...........	6.79287E-002	-4.75778E-003	5.78984E-001	5.91752E-001	-2.89999E-002	-3.93081E-002	6.74021E-001	-4.38275E-002	-7.31392E-004	5.12272E-005	-6.23395E-003	-6.37142E-003	3.12243E-004	4.23232E-004	-7.25721E-003	4.71893E-004
	101	101	4.99511E-002	-1.06239E-002	0.00000E+000	-5.30678E-004	-1.04334E-001	4.06978E-002	3.39445E+001	11	...........	6.79136E-002	-4.73375E-003	5.78913E-001	5.91683E-001	-2.89685E-002	-3.93486E-002	6.74066E-001	-4.38793E-002	-7.21510E-004	5.02911E-005	-6.15034E-003	-6.28600E-003	3.07759E-004	4.18037E-004	-7.16124E-003	4.66171E-004
	102	102	4.99507E-002	-1.05045E-002	0.00000E+000	-5.24709E-004	-1.03149E-001	4.07142E-002	3.33695E+001	11	...........	6.79106E-002	-4.74056E-003	5.78834E-001	5.91857E-001	-2.89932E-002	-3.93601E-002	6.74112E-001	-4.38910E-002	-7.13369E-004	4.97974E-005	-6.08038E-003	-6.21718E-003	3.04560E-004	4.13460E-004	-7.08124E-003	4.61054E-004
	103	103	4.99543E-002	-1.03187E-002	0.00000E+000	-5.15465E-004	-1.01350E-001	4.06616E-002	3.37870E+001	11	...........	6.78428E-002	-4.67528E-003	5.78812E-001	5.91905E-001	-2.89593E-002	-3.93383E-002	6.74136E-001	-4.36924E-002	-7.00051E-004	4.82429E-005	-5.97260E-003	-6.10771E-003	2.98823E-004	4.05921E-004	-6.95623E-003	4.50849E-004
	104	104	4.99509E-002	-1.03389E-002	0.00000E+000	-5.16435E-004	-1.01546E-001	4.06662E-002	3.37647E+001	11	...........	6.78781E-002	-4.66125E-003	5.78850E-001	5.91971E-001	-2.89851E-002	-3.93312E-002	6.74144E-001	-4.37414E-002	-7.01781E-004	4.81920E-005	-5.98464E-003	-6.12030E-003	2.99673E-004	4.06640E-004	-6.96988E-003	4.52236E-004
	105	105	4.99517E-002	-1.01530E-002	0.00000E+000	-5.07157E-004	-9.96917E-002	4.05635E-002	3.35938E+001	11	...........	6.77150E-002	-4.58639E-003	5.78907E-001	5.92094E-001	-2.90171E-002	-3.93354E-002	6.74102E-001	-4.37422E-002	-6.87507E-004	4.65654E-005	-5.87762E-003	-6.01151E-003	2.94609E-004	3.99371E-004	-6.84413E-003	4.44113E-004
	106	106	4.99525E-002	-1.00815E-002	0.00000E+000	-5.03594E-004	-9.89733E-002	4.07248E-002	3.40701E+001	11	...........	6.79457E-002	-4.60181E-003	5.79048E-001	5.91988E-001	-2.90333E-002	-3.93643E-002	6.74094E-001	-4.38242E-002	-6.84991E-004	4.63929E-005	-5.83765E-003	-5.96810E-003	2.92698E-004	3.96849E-004	-6.79584E-003	4.41811E-004
	107	107	4.99508E-002	-9.97468E-003	0.00000E+000	-4.98244E-004	-9.79140E-002	4.06635E-002	3.39431E+001	11	...........	6.78151E-002	-4.65708E-003	5.79189E-001	5.92017E-001	-2.90031E-002	-3.93468E-002	6.73985E-001	-4.37664E-002	-6.76434E-004	4.64529E-005	-5.77722E-003	-5.90518E-003	2.89296E-004	3.92472E-004	-6.72278E-003	4.36556E-004
	108	108	4.99515E-002	-9.78180E-003	0.00000E+000	-4.88616E-004	-9.59930E-002	4.06475E-002	3.41821E+001	11	...........	6.78372E-002	-4.61903E-003	5.79215E-001	5.92004E-001	-2.90190E-002	-3.93657E-002	6.73922E-001	-4.38185E-002	-6.63570E-004	4.51824E-005	-5.66576E-003	-5.79086E-003	2.83858E-004	3.85067E-004	-6.59217E-003	4.28623E-004
	109	109	4.99520E-002	-9.70381E-003	0.00000E+000	-4.84724E-004	-9.52150E-002	4.06769E-002	3.42735E+001	11	...........	6.79076E-002	-4.68056E-003	5.79237E-001	5.92006E-001	-2.90299E-002	-3.93622E-002	6.73883E-001	-4.39136E-002	-6.58963E-004	4.54192E-005	-5.62081E-003	-5.74471E-003	2.81700E-004	3.81963E-004	-6.53924E-003	4.26129E-004
	110	110	4.99511E-002	-9.58173E-003	0.00000E+000	-4.78618E-004	-9.40023E-002	4.06832E-002	3.42861E+001	11	...........	6.78654E-002	-4.69458E-003	5.79161E-001	5.91954E-001	-2.89869E-002	-3.93443E-002	6.73933E-001	-4.39058E-002	-6.50268E-004	4.49822E-005	-5.54936E-003	-5.67194E-003	2.77745E-004	3.76986E-004	-6.45744E-003	4.20694E-004
	111	111	4.99521E-002	-9.44478E-003	0.00000E+000	-4.71786E-004	-9.26323E-002	4.06808E-002	3.42848E+001	11	...........	6.78958E-002	-4.77611E-003	5.79249E-001	5.91990E-001	-2.90247E-002	-3.93458E-002	6.73922E-001	-4.39590E-002	-6.41261E-004	4.51093E-005	-5.47088E-003	-5.59121E-003	2.74132E-004	3.71613E-004	-6.36505E-003	4.15183E-004
	112	112	4.99518E-002	-9.34316E-003	0.00000E+000	-4.66708E-004	-9.16233E-002	4.06775E-002	3.43064E+001	11	...........	6.79151E-002	-4.93778E-003	5.79300E-001	5.91906E-001	-2.90342E-002	-3.93069E-002	6.74010E-001	-4.39571E-002	-6.34542E-004	4.61345E-005	-5.41249E-003	-5.53028E-003	2.71271E-004	3.67251E-004	-6.29738E-003	4.10698E-004
	113	113	4.99517E-002	-9.23125E-003	0.00000E+000	-4.61117E-004	-9.05127E-002	4.06997E-002	3.43339E+001	11	...........	6.79119E-002	-4.87806E-003	5.79500E-001	5.91847E-001	-2.90362E-002	-3.92483E-002	6.74090E-001	-4.39317E-002	-6.26912E-004	4.50305E-005	-5.34951E-003	-5.46349E-003	2.68041E-004	3.62311E-004	-6.22270E-003	4.05544E-004
	114	114	4.99517E-002	-9.12429E-003	0.00000E+000	-4.55774E-004	-8.94360E-002	4.07068E-002	3.43702E+001	11	...........	6.79379E-002	-4.85861E-003	5.79639E-001	5.91735E-001	-2.90337E-002	-3.93032E-002	6.73974E-001	-4.38714E-002	-6.19885E-004	4.43314E-005	-5.28880E-003	-5.39916E-003	2.64912E-004	3.58614E-004	-6.14953E-003	4.00295E-004
	115	115	4.99518E-002	-8.99621E-003	0.00000E+000	-4.49377E-004	-8.81870E-002	4.07388E-002	3.43691E+001	11	...........	6.79354E-002	-4.78167E-003	5.79870E-001	5.91725E-001	-2.90285E-002	-3.92724E-002	6.74013E-001	-4.38574E-002	-6.11161E-004	4.30169E-005	-5.21663E-003	-5.32328E-003	2.61146E-004	3.53302E-004	-6.06356E-003	3.94550E-004
	116	116	4.99512E-002	-8.87061E-003	0.00000E+000	-4.43098E-004	-8.69400E-002	4.07301E-002	3.43727E+001	11	...........	6.79879E-002	-4.78917E-003	5.79882E-001	5.91786E-001	-2.90126E-002	-3.92871E-002	6.74008E-001	-4.37664E-002	-6.03095E-004	4.24829E-005	-5.14391E-003	-5.24950E-003	2.57360E-004	3.48501E-004	-5.97887E-003	3.88235E-004
	117	117	4.99522E-002	-8.76258E-003	0.00000E+000	-4.37710E-004	-8.58583E-002	4.07447E-002	3.43631E+001	11	...........	6.79622E-002	-4.83139E-003	5.80090E-001	5.91912E-001	-2.90150E-002	-3.92647E-002	6.74060E-001	-4.38226E-002	-5.95525E-004	4.23354E-005	-5.08309E-003	-5.18667E-003	2.54246E-004	3.44060E-004	-5.90650E-003	3.83999E-004
	118	118	4.99518E-002	-8.66296E-003	0.00000E+000	-4.32731E-004	-8.48657E-002	4.07827E-002	3.43569E+001	11	...........	6.80308E-002	-4.81931E-003	5.80395E-001	5.91903E-001	-2.90503E-002	-3.92439E-002	6.74082E-001	-4.38053E-002	-5.89348E-004	4.17494E-005	-5.02793E-003	-5.12763E-003	2.51661E-004	3.39968E-004	-5.83954E-003	3.79483E-004
	119	119	4.99514E-002	-8.53710E-003	0.00000E+000	-4.26441E-004	-8.36170E-002	4.08895E-002	3.41127E+001	11	...........	6.82631E-002	-4.74903E-003	5.80470E-001	5.91944E-001	-2.89908E-002	-3.92364E-002	6.74123E-001	-4.39207E-002	-5.82769E-004	4.05429E-005	-4.95553E-003	-5.05349E-003	2.47498E-004	3.34965E-004	-5.75506E-003	3.74955E-004
	120	120	4.99521E-002	-8.41330E-003	0.00000E+000	-4.20262E-004	-8.23840E-002	4.07463E-002	3.42799E+001	11	...........	6.80228E-002	-4.69625E-003	5.80557E-001	5.92006E-001	-2.90053E-002	-3.92251E-002	6.74214E-001	-4.38833E-002	-5.72296E-004	3.95109E-005	-4.88440E-003	-4.98072E-003	2.44030E-004	3.30013E-004	-5.67236E-003	3.69204E-004
	121	121	4.99517E-002	-8.33523E-003	0.00000E+000	-4.16358E-004	-8.16113E-002	4.08378E-002	3.37383E+001	11	...........	6.81697E-002	-4.66514E-003	5.80610E-001	5.92025E-001	-2.90294E-002	-3.92794E-002	6.74187E-001	-4.37750E-002	-5.68210E-004	3.88850E-005	-4.83952E-003	-4.93466E-003	2.41967E-004	3.27403E-004	-5.61950E-003	3.64875E-004
	122	122	4.99518E-002	-8.24168E-003	0.00000E+000	-4.11687E-004	-8.06753E-002	4.09082E-002	3.39275E+001	11	...........	6.82751E-002	-4.80403E-003	5.80617E-001	5.92022E-001	-2.90072E-002	-3.92568E-002	6.74204E-001	-4.37444E-002	-5.62702E-004	3.95933E-005	-4.78526E-003	-4.87925E-003	2.39068E-004	3.23542E-004	-5.55658E-003	3.60528E-004
	123	123	4.99515E-002	-8.08774E-003	0.00000E+000	-4.03994E-004	-7.91440E-002	4.08477E-002	3.32666E+001	11	...........	6.81506E-002	-4.77847E-003	5.80574E-001	5.91965E-001	-2.89833E-002	-3.92642E-002	6.74240E-001	-4.36581E-002	-5.51184E-004	3.86470E-005	-4.69553E-003	-4.78766E-003	2.34410E-004	3.17558E-004	-5.45308E-003	3.53095E-004
	124	124	4.99531E-002	-7.98646E-003	0.00000E+000	-3.98948E-004	-7.81317E-002	4.07253E-002	3.35785E+001	11	...........	6.79549E-002	-4.63500E-003	5.80506E-001	5.91842E-001	-2.89776E-002	-3.92572E-002	6.74291E-001	-4.36956E-002	-5.42719E-004	3.70172E-005	-4.63619E-003	-4.72673E-003	2.31429E-004	3.13526E-004	-5.38520E-003	3.48973E-004
	125	125	4.99518E-002	-7.97359E-003	0.00000E+000	-3.98295E-004	-7.80090E-002	4.08092E-002	3.41165E+001	11	...........	6.81469E-002	-4.53097E-003	5.80482E-001	5.91789E-001	-2.89837E-002	-3.92783E-002	6.74214E-001	-4.37511E-002	-5.43376E-004	3.61281E-005	-4.62852E-003	-4.71868E-003	2.31105E-004	3.13189E-004	-5.37591E-003	3.48853E-004
	126	126	4.99521E-002	-7.87485E-003	0.00000E+000	-3.93365E-004	-7.70307E-002	4.08078E-002	3.34068E+001	11	...........	6.81106E-002	-4.66236E-003	5.80333E-001	5.91605E-001	-2.89912E-002	-3.92453E-002	6.74268E-001	-4.37956E-002	-5.36360E-004	3.67154E-005	-4.57003E-003	-4.65880E-003	2.28302E-004	3.09051E-004	-5.30975E-003	3.44883E-004
	127	127	4.99522E-002	-7.69442E-003	0.00000E+000	-3.84354E-004	-7.52523E-002	4.06608E-002	3.34851E+001	11	...........	6.78771E-002	-4.68431E-003	5.80322E-001	5.91773E-001	-2.90368E-002	-3.92422E-002	6.74327E-001	-4.37404E-002	-5.22275E-004	3.60430E-005	-4.46524E-003	-4.55335E-003	2.23421E-004	3.01946E-004	-5.18856E-003	3.36557E-004
	128	128	4.99522E-002	-7.71096E-003	0.00000E+000	-3.85179E-004	-7.54117E-002	4.08252E-002	3.39587E+001	11	...........	6.81381E-002	-4.79861E-003	5.80145E-001	5.91866E-001	-2.90489E-002	-3.92789E-002	6.74302E-001	-4.37069E-002	-5.25410E-004	3.70019E-005	-4.47347E-003	-4.56385E-003	2.23995E-004	3.02878E-004	-5.19951E-003	3.37022E-004
	129	129	4.99521E-002	-7.63957E-003	0.00000E+000	-3.81613E-004	-7.46967E-002	4.08422E-002	3.42379E+001	11	...........	6.81493E-002	-4.78625E-003	5.80129E-001	5.91833E-001	-2.90160E-002	-3.92744E-002	6.74331E-001	-4.38318E-002	-5.20632E-004	3.65649E-005	-4.43194E-003	-4.52136E-003	2.21670E-004	3.00040E-004	-5.15160E-003	3.34856E-004
	130	130	4.99525E-002	-7.57276E-003	0.00000E+000	-3.78278E-004	-7.40330E-002	4.08299E-002	3.42984E+001	11	...........	6.81251E-002	-4.69972E-003	5.80015E-001	5.91782E-001	-2.89910E-002	-3.93097E-002	6.74352E-001	-4.38689E-002	-5.15896E-004	3.55899E-005	-4.39232E-003	-4.48143E-003	2.19542E-004	2.97683E-004	-5.10671E-003	3.32209E-004
	131	131	4.99520E-002	-7.49024E-003	0.00000E+000	-3.74152E-004	-7.32137E-002	4.08149E-002	3.43152E+001	11	...........	6.81281E-002	-4.70083E-003	5.79831E-001	5.91771E-001	-2.89568E-002	-3.92808E-002	6.74360E-001	-4.40172E-002	-5.10295E-004	3.52103E-005	-4.34307E-003	-4.43251E-003	2.16893E-004	2.94223E-004	-5.05111E-003	3.29699E-004
	132	132	4.99517E-002	-7.39047E-003	0.00000E+000	-3.69166E-004	-7.22200E-002	4.08312E-002	3.43359E+001	11	...........	6.81699E-002	-4.73486E-003	5.79771E-001	5.91806E-001	-2.89622E-002	-3.93106E-002	6.74235E-001	-4.38660E-002	-5.03807E-004	3.49928E-005	-4.28478E-003	-4.37373E-003	2.14044E-004	2.90523E-004	-4.98291E-003	3.24190E-004
	133	133	4.99523E-002	-7.28762E-003	0.00000E+000	-3.64034E-004	-7.11930E-002	4.08546E-002	3.43515E+001	11	...........	6.81656E-002	-4.72889E-003	5.79647E-001	5.91808E-001	-2.89728E-002	-3.92860E-002	6.74252E-001	-4.38250E-002	-4.96765E-004	3.44624E-005	-4.22425E-003	-4.31288E-003	2.11143E-004	2.86301E-004	-4.91369E-003	3.19380E-004
	134	134	4.99517E-002	-7.20593E-003	0.00000E+000	-3.59948E-004	-7.03770E-002	4.08634E-002	3.43793E+001	11	...........	6.82236E-002	-4.68014E-003	5.79684E-001	5.91740E-001	-2.89918E-002	-3.93044E-002	6.74187E-001	-4.36625E-002	-4.91614E-004	3.37247E-005	-4.17716E-003	-4.26404E-003	2.08913E-004	2.83225E-004	-4.85814E-003	3.14629E-004
	135	135	4.99521E-002	-7.11972E-003	0.00000E+000	-3.55645E-004	-6.95143E-002	4.08981E-002	3.43828E+001	11	...........	6.82296E-002	-4.74431E-003	5.79673E-001	5.91545E-001	-2.89439E-002	-3.92679E-002	6.74087E-001	-4.36533E-002	-4.85776E-004	3.37781E-005	-4.12711E-003	-4.21164E-003	2.06072E-004	2.79577E-004	-4.79931E-003	3.10800E-004
	136	136	4.99519E-002	-7.02222E-003	0.00000E+000	-3.50773E-004	-6.85470E-002	4.09857E-002	3.42363E+001	11	...........	6.83726E-002	-4.67875E-003	5.79557E-001	5.91412E-001	-2.89319E-002	-3.92821E-002	6.74104E-001	-4.36390E-002	-4.80128E-004	3.28552E-005	-4.06978E-003	-4.15303E-003	2.03167E-004	2.75848E-004	-4.73371E-003	3.06443E-004
	137	137	4.99520E-002	-6.91711E-003	0.00000E+000	-3.45523E-004	-6.74950E-002	4.09014E-002	3.43655E+001	11	...........	6.82617E-002	-4.78889E-003	5.79491E-001	5.91387E-001	-2.89315E-002	-3.92971E-002	6.74192E-001	-4.36507E-002	-4.72173E-004	3.31253E-005	-4.00840E-003	-4.09069E-003	2.00122E-004	2.71822E-004	-4.66346E-003	3.01937E-004
	138	138	4.99520E-002	-6.82545E-003	0.00000E+000	-3.40945E-004	-6.65867E-002	4.09352E-002	3.43978E+001	11	...........	6.83181E-002	-4.80944E-003	5.79565E-001	5.91333E-001	-2.89585E-002	-3.92772E-002	6.74306E-001	-4.37143E-002	-4.66301E-004	3.28266E-005	-3.95579E-003	-4.03611E-003	1.97655E-004	2.68085E-004	-4.60244E-003	2.98370E-004
	139	139	4.99522E-002	-6.74925E-003	0.00000E+000	-3.37140E-004	-6.58313E-002	4.09180E-002	3.44088E+001	11	...........	6.82969E-002	-4.67833E-003	5.79663E-001	5.91204E-001	-2.89604E-002	-3.92932E-002	6.74318E-001	-4.37161E-002	-4.60953E-004	3.15752E-005	-3.91229E-003	-3.99018E-003	1.95461E-004	2.65200E-004	-4.55114E-003	2.95051E-004
	140	140	4.99521E-002	-6.66875E-003	0.00000E+000	-3.33118E-004	-6.50277E-002	4.10533E-002	3.42382E+001	11	...........	6.85074E-002	-4.69375E-003	5.79630E-001	5.91171E-001	-2.89894E-002	-3.92731E-002	6.74374E-001	-4.38544E-002	-4.56859E-004	3.13015E-005	-3.86541E-003	-3.94237E-003	1.93323E-004	2.61902E-004	-4.49723E-003	2.92454E-004
	141	141	4.99523E-002	-6.58367E-003	0.00000E+000	-3.28870E-004	-6.41680E-002	4.09133E-002	3.43967E+001	11	...........	6.82793E-002	-4.63958E-003	5.79603E-001	5.91153E-001	-2.89882E-002	-3.92426E-002	6.74310E-001	-4.38019E-002	-4.49529E-004	3.05455E-005	-3.81592E-003	-3.89196E-003	1.90849E-004	2.58361E-004	-4.43944E-003	2.88378E-004
	142	142	4.99525E-002	-6.52158E-003	0.00000E+000	-3.25769E-004	-6.35593E-002	4.09505E-002	3.43979E+001	11	...........	6.83033E-002	-4.63792E-003	5.79443E-001	5.91206E-001	-2.89712E-002	-3.92585E-002	6.74191E-001	-4.37197E-002	-4.45446E-004	3.02465E-005	-3.77888E-003	-3.85559E-003	1.88938E-004	2.56027E-004	-4.39679E-003	2.85122E-004
	143	143	4.99520E-002	-6.44954E-003	0.00000E+000	-3.22167E-004	-6.28643E-002	4.10344E-002	3.43216E+001	11	...........	6.84760E-002	-4.60514E-003	5.79244E-001	5.91320E-001	-2.89365E-002	-3.92657E-002	6.74301E-001	-4.37054E-002	-4.41638E-004	2.97010E-005	-3.73585E-003	-3.81374E-003	1.86627E-004	2.53246E-004	-4.34893E-003	2.81880E-004
	144	144	4.99523E-002	-6.36694E-003	0.00000E+000	-3.18043E-004	-6.20463E-002	4.09502E-002	3.43562E+001	11	...........	6.83532E-002	-4.59708E-003	5.79367E-001	5.91360E-001	-2.89704E-002	-3.92533E-002	6.74176E-001	-4.38217E-002	-4.35200E-004	2.92693E-005	-3.68879E-003	-3.76515E-003	1.84453E-004	2.49923E-004	-4.29244E-003	2.79010E-004
	145	145	4.99526E-002	-6.29076E-003	0.00000E+000	-3.14240E-004	-6.12807E-002	4.09742E-002	3.38813E+001	11	...........	6.83732E-002	-4.54472E-003	5.79492E-001	5.91323E-001	-2.90201E-002	-3.92850E-002	6.74201E-001	-4.38122E-002	-4.30119E-004	2.85898E-005	-3.64545E-003	-3.71987E-003	1.82559E-004	2.47132E-004	-4.24124E-003	2.75612E-004
	146	146	4.99512E-002	-6.10939E-003	0.00000E+000	-3.05171E-004	-5.94767E-002	4.07969E-002	3.35453E+001	11	...........	6.80757E-002	-4.60014E-003	5.79459E-001	5.91351E-001	-2.89851E-002	-3.92572E-002	6.74101E-001	-4.37654E-002	-4.15901E-004	2.81040E-005	-3.54014E-003	-3.61279E-003	1.77081E-004	2.39837E-004	-4.11834E-003	2.67380E-004
	147	147	4.99532E-002	-6.17379E-003	0.00000E+000	-3.08401E-004	-6.01227E-002	4.10288E-002	3.44899E+001	11	...........	6.84954E-002	-4.74500E-003	5.79503E-001	5.91248E-001	-2.89899E-002	-3.92504E-002	6.74191E-001	-4.38471E-002	-4.22876E-004	2.92946E-005	-3.57773E-003	-3.65024E-003	1.78977E-004	2.42324E-004	-4.16231E-003	2.70703E-004
	148	148	4.99526E-002	-6.12363E-003	0.00000E+000	-3.05891E-004	-5.96190E-002	4.08979E-002	3.45942E+001	11	...........	6.82467E-002	-4.78681E-003	5.79325E-001	5.91332E-001	-2.89724E-002	-3.92733E-002	6.74164E-001	-4.38817E-002	-4.17917E-004	2.93126E-005	-3.54757E-003	-3.62109E-003	1.77416E-004	2.40495E-004	-4.12833E-003	2.68715E-004
	149	149	4.99520E-002	-6.03895E-003	0.00000E+000	-3.01658E-004	-5.87733E-002	4.09019E-002	3.45861E+001	11	...........	6.82503E-002	-4.69597E-003	5.79293E-001	5.91334E-001	-2.90090E-002	-3.92393E-002	6.74199E-001	-4.38151E-002	-4.12160E-004	2.83587E-005	-3.49832E-003	-3.57104E-003	1.75184E-004	2.36964E-004	-4.07145E-003	2.64597E-004
	150	150	4.99528E-002	-5.98918E-003	0.00000E+000	-2.99176E-004	-5.82803E-002	4.08982E-002	3.40357E+001	11	...........	6.82469E-002	-4.68472E-003	5.79230E-001	5.91282E-001	-2.89900E-002	-3.92826E-002	6.74121E-001	-4.37222E-002	-4.08743E-004	2.80576E-005	-3.46911E-003	-3.54129E-003	1.73626E-004	2.35271E-004	-4.03743E-003	2.61860E-004
	151	151	4.99523E-002	-5.88598E-003	0.00000E+000	-2.94018E-004	-5.72473E-002	4.08647E-002	3.40386E+001	11	...........	6.81507E-002	-4.75750E-003	5.79241E-001	5.91256E-001	-2.90243E-002	-3.92803E-002	6.74096E-001	-4.37072E-002	-4.01133E-004	2.80025E-005	-3.40940E-003	-3.48012E-003	1.70836E-004	2.31203E-004	-3.96771E-003	2.57260E-004
	152	152	4.99525E-002	-5.89396E-003	0.00000E+000	-2.94418E-004	-5.73300E-002	4.09931E-002	3.45833E+001	11	...........	6.83897E-002	-4.67903E-003	5.79204E-001	5.91205E-001	-2.90181E-002	-3.92660E-002	6.74214E-001	-4.37271E-002	-4.03087E-004	2.75780E-005	-3.41381E-003	-3.48454E-003	1.71031E-004	2.31432E-004	-3.97379E-003	2.57726E-004
	153	153	4.99525E-002	-5.84029E-003	0.00000E+000	-2.91737E-004	-5.67950E-002	4.09519E-002	3.46678E+001	11	...........	6.83181E-002	-4.63319E-003	5.79292E-001	5.91312E-001	-2.90204E-002	-3.92592E-002	6.74192E-001	-4.38011E-002	-3.98997E-004	2.70592E-005	-3.38324E-003	-3.45343E-003	1.69488E-004	2.29285E-004	-3.93748E-003	2.55811E-004
	154	154	4.99519E-002	-5.77349E-003	0.00000E+000	-2.88397E-004	-5.61330E-002	4.09508E-002	3.46779E+001	11	...........	6.83374E-002	-4.71083E-003	5.79238E-001	5.91203E-001	-2.90049E-002	-3.92199E-002	6.74125E-001	-4.37704E-002	-3.94545E-004	2.71979E-005	-3.34422E-003	-3.41330E-003	1.67459E-004	2.26435E-004	-3.89206E-003	2.52708E-004
	155	155	4.99529E-002	-5.71572E-003	0.00000E+000	-2.85517E-004	-5.55610E-002	4.09542E-002	3.46871E+001	11	...........	6.83621E-002	-4.63028E-003	5.79206E-001	5.91184E-001	-2.90539E-002	-3.92144E-002	6.73952E-001	-4.37324E-002	-3.90738E-004	2.64653E-005	-3.31058E-003	-3.37904E-003	1.66064E-004	2.24139E-004	-3.85212E-003	2.49962E-004
	156	156	4.99524E-002	-5.65479E-003	0.00000E+000	-2.82470E-004	-5.49503E-002	4.09762E-002	3.47082E+001	11	...........	6.83528E-002	-4.62458E-003	5.79240E-001	5.91267E-001	-2.90837E-002	-3.92429E-002	6.73915E-001	-4.37235E-002	-3.86521E-004	2.61510E-005	-3.27548E-003	-3.34349E-003	1.64462E-004	2.21910E-004	-3.81084E-003	2.47247E-004
	157	157	4.99521E-002	-5.57868E-003	0.00000E+000	-2.78667E-004	-5.41953E-002	4.09844E-002	3.47039E+001	11	...........	6.83872E-002	-4.67778E-003	5.79213E-001	5.91263E-001	-2.90743E-002	-3.92364E-002	6.73984E-001	-4.37146E-002	-3.81510E-004	2.60958E-005	-3.23124E-003	-3.29847E-003	1.62196E-004	2.18887E-004	-3.75994E-003	2.43870E-004
	158	158	4.99522E-002	-5.51134E-003	0.00000E+000	-2.75303E-004	-5.35200E-002	4.09872E-002	3.47281E+001	11	...........	6.83901E-002	-4.79236E-003	5.79021E-001	5.91079E-001	-2.90592E-002	-3.92892E-002	6.74024E-001	-4.38667E-002	-3.76921E-004	2.64123E-005	-3.19118E-003	-3.25763E-003	1.60155E-004	2.16536E-004	-3.71477E-003	2.41764E-004
	159	159	4.99524E-002	-5.44472E-003	0.00000E+000	-2.71977E-004	-5.28607E-002	4.09998E-002	3.47459E+001	11	...........	6.84275E-002	-4.67764E-003	5.79038E-001	5.90988E-001	-2.90674E-002	-3.93112E-002	6.74128E-001	-4.37708E-002	-3.72569E-004	2.54684E-005	-3.15270E-003	-3.21777E-003	1.58264E-004	2.14039E-004	-3.67044E-003	2.38320E-004
	160	160	4.99525E-002	-5.38234E-003	0.00000E+000	-2.68861E-004	-5.22397E-002	4.10242E-002	3.47582E+001	11	...........	6.84596E-002	-4.61931E-003	5.79080E-001	5.90938E-001	-2.90757E-002	-3.93397E-002	6.74073E-001	-4.37686E-002	-3.68472E-004	2.48627E-005	-3.11680E-003	-3.18063E-003	1.56495E-004	2.11740E-004	-3.62809E-003	2.35577E-004
	161	161	4.99522E-002	-5.32403E-003	0.00000E+000	-2.65947E-004	-5.16543E-002	4.10186E-002	3.47448E+001	11	...........	6.84414E-002	-4.62708E-003	5.79426E-001	5.90744E-001	-2.90726E-002	-3.93321E-002	6.73926E-001	-4.39424E-002	-3.64384E-004	2.46347E-005	-3.08489E-003	-3.14514E-003	1.54784E-004	2.09405E-004	-3.58800E-003	2.33951E-004
	162	162	4.99528E-002	-5.27525E-003	0.00000E+000	-2.63513E-004	-5.11813E-002	4.11818E-002	3.46387E+001	11	...........	6.87250E-002	-4.73750E-003	5.79652E-001	5.90808E-001	-2.90662E-002	-3.92914E-002	6.74042E-001	-4.37969E-002	-3.62542E-004	2.49915E-005	-3.05781E-003	-3.11666E-003	1.53332E-004	2.07272E-004	-3.55574E-003	2.31040E-004
	163	163	4.99523E-002	-5.21221E-003	0.00000E+000	-2.60362E-004	-5.05667E-002	4.09364E-002	3.47483E+001	11	...........	6.83247E-002	-4.70764E-003	5.79743E-001	5.90823E-001	-2.90492E-002	-3.92733E-002	6.74006E-001	-4.38151E-002	-3.56123E-004	2.45372E-005	-3.02174E-003	-3.07949E-003	1.51410E-004	2.04701E-004	-3.51306E-003	2.28374E-004
	164	164	4.99525E-002	-5.15530E-003	0.00000E+000	-2.57520E-004	-4.99983E-002	4.10710E-002	3.46473E+001	11	...........	6.85456E-002	-4.74583E-003	5.79782E-001	5.90764E-001	-2.90421E-002	-3.93111E-002	6.73967E-001	-4.38518E-002	-3.53373E-004	2.44662E-005	-2.98895E-003	-3.04556E-003	1.49721E-004	2.02660E-004	-3.47450E-003	2.26069E-004
	165	165	4.99526E-002	-5.11224E-003	0.00000E+000	-2.55370E-004	-4.95717E-002	4.10369E-002	3.47365E+001	11	...........	6.84932E-002	-4.80583E-003	5.79852E-001	5.90836E-001	-2.90569E-002	-3.93410E-002	6.73935E-001	-4.36722E-002	-3.50154E-004	2.45686E-005	-2.96435E-003	-3.02050E-003	1.48546E-004	2.01121E-004	-3.44532E-003	2.23263E-004
	166	165.847	4.99524E-002	-5.06300E-003	0.00000E+000	-2.52909E-004	-4.90783E-002	4.10428E-002	3.47379E+001	11	...........	6.84867E-002	-4.68274E-003	5.79811E-001	5.90834E-001	-2.90518E-002	-3.93360E-002	6.73847E-001	-4.37070E-002	-3.46748E-004	2.37087E-005	-2.93558E-003	-2.99139E-003	1.47089E-004	1.99158E-004	-3.41169E-003	2.21289E-004
STARTTIMEOFFSET	QUANT	536157.9	Start Time Offset (s)
