EXPLAIN
TAG	PWR800_DISCHARGE
TITLE	LABEL	PWR Discharge	Test Identifier
DATE	LABEL	10/15/2022	Date
TIME	LABEL	1:15:52	Time
NOTES	NOTES	1	Notes...
	
PSTAT	PSTAT	REF3000-21114	Potentiostat
CAPACITY	QUANT	5.30000E-002	Capacity (A-hr)
CELLTYPE	SELECTOR	1	Cell Type
WORKINGCONNECTION	SELECTOR	0	Working Connection
MAXDISCHARGETIME	VARIABLEANDUNITS	7.20000E+003	s	2.00000E+000	hour(s)	Max Discharge Time
DISCHARGEMODE	MULTIPARAM	0	1.00000E-001	Discharge Mode	Constant Current	Amp(s)
VOLTAGEFINISH	TWOPARAM	T	5.00000E-003	7.20000E+003	Voltage Finish	I (A) <	Max Time(s)
SAMPLETIME	QUANT	1.00000E+000	Sample Period (s)
DISCHARGESTOPAT1	MULTIPARAM	1	5.00000E-002	Stop At 1	|Voltage| < Limit	V
DISCHARGESTOPAT2	MULTIPARAM	0	0.00000E+000	Stop At 2	None	N/A
AESELECTOR	AESELECTOR	0x1	T	Set Limits	AE Channels
AESBHCSELECTOR	TOGGLE	F	Save Both Half Cells
IRCOMP	TOGGLE	F	IR Measure
EOC	QUANT	0.5699065	Open Circuit (V)
SEQUENCER	TOGGLE	TRUE	Run as Sequence
PSTATMODEL	IQUANT	5	Pstat Model
PSTATSECTION	LABEL	REF3000-21114	Pstat Section
PSTATSERIALNO	LABEL	21114	Pstat Serial Number
CTRLMODE	IQUANT	0	Control Mode
ELECTROMETER	IQUANT	0	RE=0 or CS=1
IESTAB	IQUANT	0	I/E Stability
CASPEED	IQUANT	4	Control Amp Speed
CONVENTION	IQUANT	1	Current Convention
ICHRANGE	IQUANT	2	Ich Range
ICHRANGEMODE	TOGGLE	T	Ich Auto Range
ICHOFFSETENABLE	TOGGLE	F	Ich Offset Enable
ICHOFFSET	QUANT	0	Ich Offset (V)
ICHFILTER	IQUANT	1	Ich Filter
VCHRANGE	IQUANT	3	Vch Range
VCHRANGEMODE	TOGGLE	T	Vch Auto Range
VCHOFFSETENABLE	TOGGLE	F	Vch Offset Enable
VCHOFFSET	QUANT	0	Vch Offset (V)
VCHFILTER	IQUANT	1	Vch Filter
ACHRANGE	IQUANT	2	Ach Range
ACHOFFSETENABLE	TOGGLE	F	Ach Offset Enable
ACHOFFSET	QUANT	0	Ach Offset (V)
ACHFILTER	IQUANT	1	Ach Filter
IERANGELOWERLIMIT	IQUANT	9	I/E Range Lower Limit
IERANGEMODE	TOGGLE	F	I/E AutoRange
IERANGE	IQUANT	9	I/E Range
POSFEEDENABLE	TOGGLE	F	Positive Feedback IR Comp
POSFEEDRESISTANCE	QUANT	0	Positive Feedback Resistance (ohm)
ACHSELECT	IQUANT	1	Ach Select
SENSECABLEID	IQUANT	13	Sense Cable ID
PWRCABLEID	IQUANT	13	Power Cable ID
DCCALDATE	LABEL		DC Calibration Date
ACCALDATE	LABEL		AC Calibration Date
THERMOSELECT	IQUANT	1	Thermo Select
FRAMEWORKVERSION	LABEL	7.8.6	Framework Version
INSTRUMENTVERSION	LABEL	4.50	Instrument Version
COMPLIANCEVOLTAGE	IQUANT	0	Compliance Voltage
CURVE	TABLE	230
	Pt	T	Vf	Im	Vu	Pwr	Sig	Ach	Temp	IERange	Over	Vf1	Vf2	Vf3	Vf4	Vf5	Vf6	Vf7	Vf8	Pwr1	Pwr2	Pwr3	Pwr4	Pwr5	Pwr6	Pwr7	Pwr8
	#	s	V	A	V	W	V	V	deg C	#	bits	V	V	V	V	V	V	V	V	W	W	W	W	W	W	W	W
	0	1	3.42360E-001	-1.00101E-001	0.00000E+000	-3.42705E-002	-9.94000E-001	3.63022E-002	3.10431E+001	11	...........	6.01231E-002	-5.00208E-003	6.04664E-001	5.49322E-001	-2.66879E-002	-3.74276E-002	7.04303E-001	-4.34089E-002	-6.01836E-003	5.00712E-004	-6.05273E-002	-5.49875E-002	2.67148E-003	3.74653E-003	-7.05012E-002	4.34526E-003
	1	2	2.53595E-001	-1.00101E-001	0.00000E+000	-2.53852E-002	-9.94000E-001	3.61453E-002	2.99328E+001	11	...........	5.98646E-002	-4.93403E-003	6.04624E-001	5.49196E-001	-2.66714E-002	-3.74354E-002	7.04349E-001	-4.34899E-002	-5.99251E-003	4.93901E-004	-6.05235E-002	-5.49751E-002	2.66983E-003	3.74733E-003	-7.05061E-002	4.35338E-003
	2	3	1.87690E-001	-1.00102E-001	0.00000E+000	-1.87881E-002	-9.94000E-001	3.62848E-002	2.99346E+001	11	...........	6.00553E-002	-5.04083E-003	6.04583E-001	5.49048E-001	-2.66843E-002	-3.74403E-002	7.04348E-001	-4.36125E-002	-6.01163E-003	5.04596E-004	-6.05198E-002	-5.49606E-002	2.67114E-003	3.74783E-003	-7.05064E-002	4.36568E-003
	3	4	1.33341E-001	-1.00102E-001	0.00000E+000	-1.33477E-002	-9.94000E-001	3.61866E-002	2.88559E+001	11	...........	5.99444E-002	-5.03792E-003	6.04510E-001	5.49221E-001	-2.67032E-002	-3.74542E-002	7.04470E-001	-4.35711E-002	-6.00053E-003	5.04303E-004	-6.05124E-002	-5.49779E-002	2.67303E-003	3.74922E-003	-7.05186E-002	4.36154E-003
	4	5	8.89541E-002	-1.00101E-001	0.00000E+000	-8.90443E-003	-9.94000E-001	3.62341E-002	2.86753E+001	11	...........	6.00328E-002	-5.03111E-003	6.04590E-001	5.49169E-001	-2.66939E-002	-3.74728E-002	7.04515E-001	-4.34092E-002	-6.00936E-003	5.03621E-004	-6.05202E-002	-5.49725E-002	2.67209E-003	3.75108E-003	-7.05229E-002	4.34532E-003
	5	5.59333	5.97227E-002	-1.00102E-001	0.00000E+000	-5.97836E-003	-9.94000E-001	3.61482E-002	2.83862E+001	11	...........	5.98921E-002	-4.98221E-003	6.04562E-001	5.49051E-001	-2.66674E-002	-3.74892E-002	7.04675E-001	-4.33909E-002	-5.99531E-003	4.98729E-004	-6.05179E-002	-5.49610E-002	2.66946E-003	3.75274E-003	-7.05394E-002	4.34351E-003
	6	6	4.96599E-002	-9.47179E-002	0.00000E+000	-4.70367E-003	-9.40457E-001	3.62764E-002	2.79432E+001	11	...........	6.01014E-002	-4.97302E-003	6.04577E-001	5.49078E-001	-2.67203E-002	-3.74764E-002	7.04673E-001	-4.34853E-002	-5.69268E-003	4.71034E-004	-5.72643E-002	-5.20074E-002	2.53089E-003	3.54969E-003	-6.67451E-002	4.11884E-003
	7	7	4.98003E-002	-8.28939E-002	0.00000E+000	-4.12814E-003	-8.22901E-001	3.62589E-002	2.85208E+001	11	...........	6.00656E-002	-5.08889E-003	6.04613E-001	5.49015E-001	-2.66751E-002	-3.74889E-002	7.04586E-001	-4.35403E-002	-4.97907E-003	4.21838E-004	-5.01187E-002	-4.55099E-002	2.21121E-003	3.10760E-003	-5.84059E-002	3.60922E-003
	8	8	4.98754E-002	-7.41852E-002	0.00000E+000	-3.70002E-003	-7.36318E-001	3.64864E-002	2.92572E+001	11	...........	6.04492E-002	-5.10389E-003	6.04651E-001	5.48971E-001	-2.66525E-002	-3.74836E-002	7.04527E-001	-4.34275E-002	-4.48443E-003	3.78633E-004	-4.48562E-002	-4.07255E-002	1.97722E-003	2.78073E-003	-5.22655E-002	3.22168E-003
	9	9	4.99011E-002	-6.87045E-002	0.00000E+000	-3.42843E-003	-6.81842E-001	3.66087E-002	2.99548E+001	11	...........	6.06500E-002	-5.10861E-003	6.04757E-001	5.49060E-001	-2.66599E-002	-3.74883E-002	7.04363E-001	-4.34058E-002	-4.16693E-003	3.50985E-004	-4.15496E-002	-3.77229E-002	1.83165E-003	2.57562E-003	-4.83929E-002	2.98218E-003
	10	10	4.99135E-002	-6.48670E-002	0.00000E+000	-3.23774E-003	-6.43679E-001	3.66406E-002	2.97796E+001	11	...........	6.07082E-002	-5.16319E-003	6.04785E-001	5.49045E-001	-2.66735E-002	-3.74728E-002	7.04354E-001	-4.34181E-002	-3.93796E-003	3.34921E-004	-3.92306E-002	-3.56149E-002	1.73023E-003	2.43075E-003	-4.56893E-002	2.81640E-003
	11	11	4.99337E-002	-6.16551E-002	0.00000E+000	-3.07867E-003	-6.11745E-001	3.66855E-002	2.99826E+001	11	...........	6.07594E-002	-5.27431E-003	6.04853E-001	5.49099E-001	-2.66715E-002	-3.74579E-002	7.04328E-001	-4.34114E-002	-3.74613E-003	3.25188E-004	-3.72923E-002	-3.38548E-002	1.64444E-003	2.30947E-003	-4.34254E-002	2.67654E-003
	12	12	4.99532E-002	-6.05673E-002	0.00000E+000	-3.02553E-003	-6.00929E-001	3.67887E-002	3.05973E+001	11	...........	6.09158E-002	-5.28528E-003	6.04884E-001	5.49219E-001	-2.66457E-002	-3.74486E-002	7.04301E-001	-4.35212E-002	-3.68951E-003	3.20115E-004	-3.66362E-002	-3.32647E-002	1.61386E-003	2.26816E-003	-4.26577E-002	2.63597E-003
	13	13	4.99382E-002	-5.89951E-002	0.00000E+000	-2.94611E-003	-5.85303E-001	3.67970E-002	3.03930E+001	11	...........	6.09636E-002	-5.14444E-003	6.04721E-001	5.49126E-001	-2.66500E-002	-3.74321E-002	7.04331E-001	-4.34433E-002	-3.59655E-003	3.03497E-004	-3.56756E-002	-3.23957E-002	1.57222E-003	2.20831E-003	-4.15521E-002	2.56294E-003
	14	14	4.99326E-002	-5.75539E-002	0.00000E+000	-2.87382E-003	-5.70969E-001	3.69897E-002	3.02153E+001	11	...........	6.12729E-002	-5.08069E-003	6.04656E-001	5.49082E-001	-2.66458E-002	-3.74421E-002	7.04432E-001	-4.34118E-002	-3.52650E-003	2.92414E-004	-3.48003E-002	-3.16018E-002	1.53357E-003	2.15494E-003	-4.05428E-002	2.49852E-003
	15	15	4.99417E-002	-5.53375E-002	0.00000E+000	-2.76365E-003	-5.48925E-001	3.68764E-002	3.00872E+001	11	...........	6.10778E-002	-5.12125E-003	6.04748E-001	5.49026E-001	-2.66761E-002	-3.74144E-002	7.04296E-001	-4.34007E-002	-3.37989E-003	2.83397E-004	-3.34653E-002	-3.03817E-002	1.47619E-003	2.07042E-003	-3.89740E-002	2.40169E-003
	16	16	4.99576E-002	-5.48467E-002	0.00000E+000	-2.74001E-003	-5.44050E-001	3.70438E-002	3.06656E+001	11	...........	6.13515E-002	-5.08806E-003	6.04799E-001	5.49017E-001	-2.66787E-002	-3.74187E-002	7.04321E-001	-4.34585E-002	-3.36493E-003	2.79063E-004	-3.31712E-002	-3.01118E-002	1.46324E-003	2.05230E-003	-3.86297E-002	2.38355E-003
	17	17	4.99517E-002	-5.42303E-002	0.00000E+000	-2.70890E-003	-5.37917E-001	3.70989E-002	3.09406E+001	11	...........	6.14426E-002	-5.02181E-003	6.04926E-001	5.48921E-001	-2.66844E-002	-3.74443E-002	7.04298E-001	-4.36801E-002	-3.33205E-003	2.72334E-004	-3.28053E-002	-2.97682E-002	1.44710E-003	2.03061E-003	-3.81943E-002	2.36879E-003
	18	18	4.99519E-002	-5.35611E-002	0.00000E+000	-2.67548E-003	-5.31262E-001	3.71617E-002	3.11012E+001	11	...........	6.15614E-002	-5.14014E-003	6.05042E-001	5.49059E-001	-2.67004E-002	-3.74444E-002	7.04337E-001	-4.35843E-002	-3.29729E-003	2.75311E-004	-3.24067E-002	-2.94082E-002	1.43010E-003	2.00556E-003	-3.77251E-002	2.33442E-003
	19	19	4.99475E-002	-5.29092E-002	0.00000E+000	-2.64268E-003	-5.24770E-001	3.72077E-002	3.10248E+001	11	...........	6.16329E-002	-5.18111E-003	6.05107E-001	5.49063E-001	-2.66979E-002	-3.74564E-002	7.04243E-001	-4.33914E-002	-3.26095E-003	2.74129E-004	-3.20157E-002	-2.90505E-002	1.41257E-003	1.98179E-003	-3.72609E-002	2.29580E-003
	20	20	4.99354E-002	-5.20540E-002	0.00000E+000	-2.59934E-003	-5.16285E-001	3.71653E-002	3.05338E+001	11	...........	6.17496E-002	-5.27194E-003	6.05059E-001	5.48955E-001	-2.67306E-002	-3.74656E-002	7.04357E-001	-4.34482E-002	-3.21431E-003	2.74426E-004	-3.14957E-002	-2.85753E-002	1.39143E-003	1.95023E-003	-3.66646E-002	2.26165E-003
	21	21	4.99655E-002	-5.06225E-002	0.00000E+000	-2.52938E-003	-5.02056E-001	3.70059E-002	3.07072E+001	11	...........	6.16382E-002	-5.11417E-003	6.04984E-001	5.48933E-001	-2.67025E-002	-3.74346E-002	7.04271E-001	-4.35815E-002	-3.12028E-003	2.58892E-004	-3.06258E-002	-2.77884E-002	1.35175E-003	1.89503E-003	-3.56520E-002	2.20621E-003
	22	22	4.99549E-002	-5.08307E-002	0.00000E+000	-2.53924E-003	-5.04133E-001	3.71897E-002	3.14945E+001	11	...........	6.19687E-002	-5.09806E-003	6.04999E-001	5.48957E-001	-2.67054E-002	-3.74407E-002	7.04381E-001	-4.36106E-002	-3.14991E-003	2.59137E-004	-3.07525E-002	-2.79039E-002	1.35745E-003	1.90313E-003	-3.58041E-002	2.21675E-003
	23	23	4.99409E-002	-5.02181E-002	0.00000E+000	-2.50794E-003	-4.98039E-001	3.71939E-002	3.07332E+001	11	...........	6.19611E-002	-5.02944E-003	6.05067E-001	5.48917E-001	-2.67171E-002	-3.74410E-002	7.04454E-001	-4.36336E-002	-3.11157E-003	2.52569E-004	-3.03853E-002	-2.75655E-002	1.34168E-003	1.88021E-003	-3.53764E-002	2.19120E-003
	24	24	4.99619E-002	-4.90432E-002	0.00000E+000	-2.45029E-003	-4.86361E-001	3.72324E-002	3.13642E+001	11	...........	6.20368E-002	-5.04736E-003	6.05099E-001	5.48944E-001	-2.67096E-002	-3.74442E-002	7.04403E-001	-4.35629E-002	-3.04248E-003	2.47539E-004	-2.96760E-002	-2.69220E-002	1.30992E-003	1.83638E-003	-3.45462E-002	2.13647E-003
	25	25	4.99459E-002	-4.86820E-002	0.00000E+000	-2.43147E-003	-4.82768E-001	3.72330E-002	3.09460E+001	11	...........	6.20408E-002	-5.14139E-003	6.05067E-001	5.48952E-001	-2.67232E-002	-3.74737E-002	7.04534E-001	-4.34808E-002	-3.02027E-003	2.50293E-004	-2.94559E-002	-2.67241E-002	1.30094E-003	1.82430E-003	-3.42982E-002	2.11674E-003
	26	26	4.99602E-002	-4.81086E-002	0.00000E+000	-2.40352E-003	-4.77057E-001	3.73157E-002	3.15482E+001	11	...........	6.21730E-002	-5.12111E-003	6.04791E-001	5.48887E-001	-2.67401E-002	-3.74911E-002	7.04472E-001	-4.35447E-002	-2.99106E-003	2.46370E-004	-2.90957E-002	-2.64062E-002	1.28643E-003	1.80365E-003	-3.38912E-002	2.09488E-003
	27	27	4.99554E-002	-4.78999E-002	0.00000E+000	-2.39286E-003	-4.74983E-001	3.73743E-002	3.12863E+001	11	...........	6.22582E-002	-5.13319E-003	6.04752E-001	5.48948E-001	-2.67400E-002	-3.75083E-002	7.04373E-001	-4.35471E-002	-2.98216E-003	2.45879E-004	-2.89675E-002	-2.62946E-002	1.28084E-003	1.79664E-003	-3.37394E-002	2.08590E-003
	28	28	4.99525E-002	-4.69530E-002	0.00000E+000	-2.34542E-003	-4.65577E-001	3.73787E-002	3.16036E+001	11	...........	6.22628E-002	-4.96319E-003	6.04600E-001	5.48906E-001	-2.67161E-002	-3.74900E-002	7.04363E-001	-4.34396E-002	-2.92343E-003	2.33037E-004	-2.83878E-002	-2.57728E-002	1.25440E-003	1.76027E-003	-3.30720E-002	2.03962E-003
	29	29	4.99512E-002	-4.68656E-002	0.00000E+000	-2.34099E-003	-4.64706E-001	3.74769E-002	3.18200E+001	11	...........	6.24239E-002	-5.06319E-003	6.04637E-001	5.48812E-001	-2.67124E-002	-3.74754E-002	7.04427E-001	-4.32993E-002	-2.92553E-003	2.37289E-004	-2.83367E-002	-2.57204E-002	1.25189E-003	1.75631E-003	-3.30134E-002	2.02925E-003
	30	30	4.99451E-002	-4.60566E-002	0.00000E+000	-2.30030E-003	-4.56661E-001	3.74559E-002	3.16358E+001	11	...........	6.23956E-002	-5.10111E-003	6.04905E-001	5.48891E-001	-2.67062E-002	-3.74525E-002	7.04391E-001	-4.33633E-002	-2.87373E-003	2.34940E-004	-2.78599E-002	-2.52800E-002	1.23000E-003	1.72493E-003	-3.24419E-002	1.99717E-003
	31	31	4.99481E-002	-4.48376E-002	0.00000E+000	-2.23955E-003	-4.44535E-001	3.73990E-002	3.05176E+001	11	...........	6.23067E-002	-5.12014E-003	6.05008E-001	5.48919E-001	-2.66878E-002	-3.74358E-002	7.04343E-001	-4.34937E-002	-2.79368E-003	2.29575E-004	-2.71271E-002	-2.46122E-002	1.19662E-003	1.67853E-003	-3.15811E-002	1.95016E-003
	32	32	4.99655E-002	-4.47193E-002	0.00000E+000	-2.23443E-003	-4.43361E-001	3.76338E-002	3.14625E+001	11	...........	6.26969E-002	-5.10958E-003	6.05052E-001	5.48847E-001	-2.66876E-002	-3.74362E-002	7.04435E-001	-4.34147E-002	-2.80377E-003	2.28497E-004	-2.70575E-002	-2.45441E-002	1.19345E-003	1.67412E-003	-3.15019E-002	1.94148E-003
	33	33	4.99566E-002	-4.46248E-002	0.00000E+000	-2.22930E-003	-4.42427E-001	3.76109E-002	3.19934E+001	11	...........	6.26639E-002	-5.19042E-003	6.05001E-001	5.48998E-001	-2.66767E-002	-3.74303E-002	7.04344E-001	-4.34583E-002	-2.79636E-003	2.31621E-004	-2.69980E-002	-2.44989E-002	1.19044E-003	1.67032E-003	-3.14312E-002	1.93932E-003
	34	34	4.99542E-002	-4.41609E-002	0.00000E+000	-2.20602E-003	-4.37810E-001	3.76555E-002	3.19034E+001	11	...........	6.27351E-002	-5.04819E-003	6.04955E-001	5.49061E-001	-2.66531E-002	-3.74222E-002	7.04314E-001	-4.35515E-002	-2.77044E-003	2.22933E-004	-2.67153E-002	-2.42470E-002	1.17702E-003	1.65260E-003	-3.11031E-002	1.92327E-003
	35	35	4.99441E-002	-4.33268E-002	0.00000E+000	-2.16392E-003	-4.29513E-001	3.76050E-002	3.16307E+001	11	...........	6.26368E-002	-5.11167E-003	6.04963E-001	5.49162E-001	-2.66400E-002	-3.74160E-002	7.04440E-001	-4.34701E-002	-2.71385E-003	2.21472E-004	-2.62111E-002	-2.37934E-002	1.15423E-003	1.62112E-003	-3.05211E-002	1.88342E-003
	36	36	4.99526E-002	-4.28175E-002	0.00000E+000	-2.13885E-003	-4.24443E-001	3.77240E-002	3.11832E+001	11	...........	6.28383E-002	-5.12694E-003	6.05007E-001	5.49064E-001	-2.66453E-002	-3.74321E-002	7.04390E-001	-4.34372E-002	-2.69058E-003	2.19523E-004	-2.59049E-002	-2.35095E-002	1.14088E-003	1.60275E-003	-3.01602E-002	1.85987E-003
	37	37	4.99610E-002	-4.22871E-002	0.00000E+000	-2.11271E-003	-4.19174E-001	3.76761E-002	3.20037E+001	11	...........	6.27725E-002	-5.09111E-003	6.04919E-001	5.48945E-001	-2.66276E-002	-3.74331E-002	7.04437E-001	-4.35571E-002	-2.65447E-003	2.15289E-004	-2.55803E-002	-2.32133E-002	1.12601E-003	1.58294E-003	-2.97886E-002	1.84190E-003
	38	38	4.99429E-002	-4.20744E-002	0.00000E+000	-2.10132E-003	-4.17071E-001	3.77347E-002	3.15617E+001	11	...........	6.28411E-002	-5.16722E-003	6.04796E-001	5.48857E-001	-2.66237E-002	-3.74307E-002	7.04351E-001	-4.33561E-002	-2.64400E-003	2.17408E-004	-2.54465E-002	-2.30928E-002	1.12018E-003	1.57487E-003	-2.96351E-002	1.82418E-003
	39	39	4.99656E-002	-4.15650E-002	0.00000E+000	-2.07682E-003	-4.12001E-001	3.78245E-002	3.20717E+001	11	...........	6.30225E-002	-5.09250E-003	6.04929E-001	5.48923E-001	-2.66374E-002	-3.74014E-002	7.04440E-001	-4.33014E-002	-2.61953E-003	2.11670E-004	-2.51439E-002	-2.28160E-002	1.10718E-003	1.55459E-003	-2.92800E-002	1.79982E-003
	40	40	4.99518E-002	-4.11137E-002	0.00000E+000	-2.05371E-003	-4.07531E-001	3.78301E-002	3.23310E+001	11	...........	6.30100E-002	-5.03667E-003	6.04885E-001	5.49026E-001	-2.66196E-002	-3.73932E-002	7.04421E-001	-4.33560E-002	-2.59058E-003	2.07076E-004	-2.48691E-002	-2.25725E-002	1.09443E-003	1.53737E-003	-2.89614E-002	1.78253E-003
	41	41	4.99442E-002	-4.04658E-002	0.00000E+000	-2.02103E-003	-4.01090E-001	3.77976E-002	3.11615E+001	11	...........	6.29746E-002	-5.09111E-003	6.04976E-001	5.49108E-001	-2.66287E-002	-3.73854E-002	7.04456E-001	-4.35132E-002	-2.54832E-003	2.06016E-004	-2.44809E-002	-2.22201E-002	1.07755E-003	1.51283E-003	-2.85064E-002	1.76080E-003
	42	42	4.99676E-002	-3.99307E-002	0.00000E+000	-1.99524E-003	-3.95759E-001	3.78749E-002	3.18062E+001	11	...........	6.30956E-002	-5.03069E-003	6.04894E-001	5.49188E-001	-2.66190E-002	-3.73826E-002	7.04388E-001	-4.35706E-002	-2.51945E-003	2.00879E-004	-2.41538E-002	-2.19294E-002	1.06292E-003	1.49271E-003	-2.81267E-002	1.73980E-003
	43	43	4.99536E-002	-3.97281E-002	0.00000E+000	-1.98456E-003	-3.93746E-001	3.78702E-002	3.19059E+001	11	...........	6.30686E-002	-5.01514E-003	6.05007E-001	5.49320E-001	-2.66268E-002	-3.73758E-002	7.04410E-001	-4.35204E-002	-2.50560E-003	1.99242E-004	-2.40358E-002	-2.18234E-002	1.05783E-003	1.48487E-003	-2.79849E-002	1.72898E-003
	44	44	4.99542E-002	-3.95166E-002	0.00000E+000	-1.97402E-003	-3.91656E-001	3.80055E-002	3.22361E+001	11	...........	6.33193E-002	-4.93083E-003	6.05105E-001	5.49387E-001	-2.66418E-002	-3.73728E-002	7.04401E-001	-4.35199E-002	-2.50216E-003	1.94850E-004	-2.39117E-002	-2.17099E-002	1.05279E-003	1.47684E-003	-2.78355E-002	1.71976E-003
	45	45	4.99549E-002	-3.87449E-002	0.00000E+000	-1.93550E-003	-3.83985E-001	3.79722E-002	3.20660E+001	11	...........	6.32694E-002	-5.15750E-003	6.05177E-001	5.49244E-001	-2.66299E-002	-3.73854E-002	7.04408E-001	-4.35671E-002	-2.45137E-003	1.99827E-004	-2.34475E-002	-2.12804E-002	1.03177E-003	1.44850E-003	-2.72923E-002	1.68800E-003
	46	46	4.99488E-002	-3.80540E-002	0.00000E+000	-1.90075E-003	-3.77106E-001	3.78582E-002	3.12817E+001	11	...........	6.30755E-002	-5.14875E-003	6.05171E-001	5.49147E-001	-2.66635E-002	-3.73754E-002	7.04255E-001	-4.35060E-002	-2.40028E-003	1.95930E-004	-2.30292E-002	-2.08972E-002	1.01465E-003	1.42228E-003	-2.67997E-002	1.65558E-003
	47	47	4.99659E-002	-3.80732E-002	0.00000E+000	-1.90236E-003	-3.77292E-001	3.80905E-002	3.23954E+001	11	...........	6.34574E-002	-5.15944E-003	6.05126E-001	5.49131E-001	-2.66696E-002	-3.73478E-002	7.04162E-001	-4.35122E-002	-2.41603E-003	1.96437E-004	-2.30391E-002	-2.09072E-002	1.01540E-003	1.42195E-003	-2.68097E-002	1.65665E-003
	48	48	4.99539E-002	-3.79527E-002	0.00000E+000	-1.89588E-003	-3.76091E-001	3.80546E-002	3.24423E+001	11	...........	6.34106E-002	-5.15875E-003	6.05000E-001	5.49064E-001	-2.66949E-002	-3.73367E-002	7.04215E-001	-4.34829E-002	-2.40660E-003	1.95788E-004	-2.29613E-002	-2.08384E-002	1.01314E-003	1.41703E-003	-2.67268E-002	1.65029E-003
	49	49	4.99496E-002	-3.71374E-002	0.00000E+000	-1.85500E-003	-3.67984E-001	3.79976E-002	3.20549E+001	11	...........	6.33010E-002	-5.14708E-003	6.05009E-001	5.49149E-001	-2.67162E-002	-3.73404E-002	7.04306E-001	-4.35374E-002	-2.35083E-003	1.91149E-004	-2.24685E-002	-2.03940E-002	9.92172E-004	1.38673E-003	-2.61561E-002	1.61686E-003
	50	50	4.99549E-002	-3.68602E-002	0.00000E+000	-1.84135E-003	-3.65235E-001	3.81407E-002	3.21806E+001	11	...........	6.35326E-002	-5.10625E-003	6.05035E-001	5.49360E-001	-2.67293E-002	-3.73656E-002	7.04347E-001	-4.33907E-002	-2.34182E-003	1.88217E-004	-2.23017E-002	-2.02495E-002	9.85246E-004	1.37730E-003	-2.59623E-002	1.59939E-003
	51	51	4.99572E-002	-3.64369E-002	0.00000E+000	-1.82029E-003	-3.61021E-001	3.80706E-002	3.23958E+001	11	...........	6.34271E-002	-5.05222E-003	6.05201E-001	5.49403E-001	-2.67304E-002	-3.73800E-002	7.04294E-001	-4.33394E-002	-2.31109E-003	1.84088E-004	-2.20517E-002	-2.00186E-002	9.73975E-004	1.36201E-003	-2.56623E-002	1.57916E-003
	52	52	4.99574E-002	-3.62279E-002	0.00000E+000	-1.80985E-003	-3.58940E-001	3.81386E-002	3.28580E+001	11	...........	6.35497E-002	-5.08333E-003	6.05352E-001	5.49370E-001	-2.67221E-002	-3.73986E-002	7.04195E-001	-4.33614E-002	-2.30227E-003	1.84158E-004	-2.19306E-002	-1.99025E-002	9.68084E-004	1.35487E-003	-2.55115E-002	1.57089E-003
	53	53	4.99447E-002	-3.57072E-002	0.00000E+000	-1.78338E-003	-3.53762E-001	3.81357E-002	3.22155E+001	11	...........	6.35433E-002	-5.14889E-003	6.05257E-001	5.49415E-001	-2.67375E-002	-3.73761E-002	7.04295E-001	-4.34347E-002	-2.26895E-003	1.83852E-004	-2.16120E-002	-1.96181E-002	9.54720E-004	1.33459E-003	-2.51484E-002	1.55093E-003
	54	54	4.99627E-002	-3.51731E-002	0.00000E+000	-1.75734E-003	-3.48437E-001	3.81891E-002	3.25898E+001	11	...........	6.36299E-002	-5.20639E-003	6.05239E-001	5.49484E-001	-2.67490E-002	-3.73769E-002	7.04263E-001	-4.35051E-002	-2.23806E-003	1.83125E-004	-2.12881E-002	-1.93270E-002	9.40845E-004	1.31466E-003	-2.47711E-002	1.53021E-003
	55	55	4.99462E-002	-3.49062E-002	0.00000E+000	-1.74343E-003	-3.45785E-001	3.81617E-002	3.21320E+001	11	...........	6.35700E-002	-5.18667E-003	6.05320E-001	5.49625E-001	-2.67715E-002	-3.73486E-002	7.04296E-001	-4.32686E-002	-2.21898E-003	1.81047E-004	-2.11294E-002	-1.91853E-002	9.34491E-004	1.30370E-003	-2.45843E-002	1.51034E-003
	56	56	4.99680E-002	-3.42483E-002	0.00000E+000	-1.71132E-003	-3.39255E-001	3.82095E-002	3.25239E+001	11	...........	6.36611E-002	-5.14944E-003	6.05238E-001	5.49559E-001	-2.67433E-002	-3.73369E-002	7.04275E-001	-4.32732E-002	-2.18028E-003	1.76359E-004	-2.07283E-002	-1.88214E-002	9.15913E-004	1.27873E-003	-2.41202E-002	1.48203E-003
	57	57	4.99489E-002	-3.41335E-002	0.00000E+000	-1.70493E-003	-3.38116E-001	3.81917E-002	3.25145E+001	11	...........	6.36153E-002	-5.10181E-003	6.05259E-001	5.49412E-001	-2.67258E-002	-3.73425E-002	7.04219E-001	-4.33339E-002	-2.17141E-003	1.74142E-004	-2.06596E-002	-1.87533E-002	9.12246E-004	1.27463E-003	-2.40374E-002	1.47914E-003
	58	58	4.99588E-002	-3.38324E-002	0.00000E+000	-1.69022E-003	-3.35117E-001	3.83229E-002	3.27680E+001	11	...........	6.38183E-002	-5.21083E-003	6.05268E-001	5.49312E-001	-2.67218E-002	-3.73476E-002	7.04275E-001	-4.33626E-002	-2.15912E-003	1.76295E-004	-2.04776E-002	-1.85845E-002	9.04062E-004	1.26356E-003	-2.38273E-002	1.46706E-003
	59	59	4.99482E-002	-3.32233E-002	0.00000E+000	-1.65944E-003	-3.29066E-001	3.82972E-002	3.23519E+001	11	...........	6.38029E-002	-5.18264E-003	6.05158E-001	5.49290E-001	-2.67357E-002	-3.73779E-002	7.04281E-001	-4.33906E-002	-2.11975E-003	1.72185E-004	-2.01054E-002	-1.82493E-002	8.88249E-004	1.24182E-003	-2.33986E-002	1.44158E-003
	60	60	4.99565E-002	-3.23217E-002	0.00000E+000	-1.61468E-003	-3.20091E-001	3.81717E-002	3.19011E+001	11	...........	6.35896E-002	-5.14903E-003	6.05206E-001	5.49178E-001	-2.67249E-002	-3.73814E-002	7.04277E-001	-4.32992E-002	-2.05532E-003	1.66425E-004	-1.95613E-002	-1.77504E-002	8.63794E-004	1.20823E-003	-2.27635E-002	1.39950E-003
	61	61	4.99546E-002	-3.25477E-002	0.00000E+000	-1.62591E-003	-3.22328E-001	3.83992E-002	3.23241E+001	11	...........	6.39921E-002	-5.12139E-003	6.05365E-001	5.49042E-001	-2.67300E-002	-3.73610E-002	7.04301E-001	-4.32378E-002	-2.08280E-003	1.66689E-004	-1.97033E-002	-1.78701E-002	8.70000E-004	1.21601E-003	-2.29234E-002	1.40729E-003
	62	62	4.99605E-002	-3.21087E-002	0.00000E+000	-1.60417E-003	-3.17974E-001	3.83986E-002	3.29639E+001	11	...........	6.39654E-002	-5.05056E-003	6.05221E-001	5.49049E-001	-2.67069E-002	-3.73704E-002	7.04413E-001	-4.32882E-002	-2.05385E-003	1.62167E-004	-1.94329E-002	-1.76292E-002	8.57525E-004	1.19992E-003	-2.26178E-002	1.38993E-003
	63	63	4.99535E-002	-3.18557E-002	0.00000E+000	-1.59130E-003	-3.15469E-001	3.84182E-002	3.30615E+001	11	...........	6.40021E-002	-5.17236E-003	6.05226E-001	5.48899E-001	-2.66931E-002	-3.73692E-002	7.04530E-001	-4.34289E-002	-2.03883E-003	1.64769E-004	-1.92799E-002	-1.74855E-002	8.50326E-004	1.19042E-003	-2.24433E-002	1.38346E-003
	64	64	4.99484E-002	-3.15370E-002	0.00000E+000	-1.57522E-003	-3.12297E-001	3.82955E-002	3.24857E+001	11	...........	6.40374E-002	-5.20097E-003	6.05091E-001	5.48912E-001	-2.67211E-002	-3.73960E-002	7.04469E-001	-4.34069E-002	-2.01954E-003	1.64023E-004	-1.90827E-002	-1.73110E-002	8.42703E-004	1.17936E-003	-2.22168E-002	1.36892E-003
	65	65	4.99618E-002	-3.06697E-002	0.00000E+000	-1.53231E-003	-3.03703E-001	3.83913E-002	3.21153E+001	11	...........	6.39451E-002	-5.22972E-003	6.05209E-001	5.48808E-001	-2.67344E-002	-3.74043E-002	7.04507E-001	-4.33681E-002	-1.96118E-003	1.60394E-004	-1.85616E-002	-1.68318E-002	8.19937E-004	1.14718E-003	-2.16070E-002	1.33008E-003
	66	66	4.99557E-002	-3.02018E-002	0.00000E+000	-1.50875E-003	-2.99041E-001	3.83352E-002	3.25073E+001	11	...........	6.38457E-002	-5.12347E-003	6.05198E-001	5.48847E-001	-2.67607E-002	-3.74149E-002	7.04656E-001	-4.34621E-002	-1.92825E-003	1.54738E-004	-1.82781E-002	-1.65762E-002	8.08221E-004	1.13000E-003	-2.12819E-002	1.31263E-003
	67	67	4.99566E-002	-3.03784E-002	0.00000E+000	-1.51760E-003	-3.00803E-001	3.85359E-002	3.29291E+001	11	...........	6.41989E-002	-5.09611E-003	6.05168E-001	5.48920E-001	-2.67715E-002	-3.73969E-002	7.04661E-001	-4.36612E-002	-1.95026E-003	1.54812E-004	-1.83840E-002	-1.66753E-002	8.13275E-004	1.13606E-003	-2.14064E-002	1.32636E-003
	68	68	4.99582E-002	-3.01688E-002	0.00000E+000	-1.50718E-003	-2.98711E-001	3.85586E-002	3.28229E+001	11	...........	6.42393E-002	-5.20444E-003	6.05236E-001	5.48859E-001	-2.67956E-002	-3.73832E-002	7.04563E-001	-4.36864E-002	-1.93802E-003	1.57012E-004	-1.82593E-002	-1.65584E-002	8.08391E-004	1.12781E-003	-2.12558E-002	1.31797E-003
	69	69	4.99533E-002	-2.95786E-002	0.00000E+000	-1.47755E-003	-2.92842E-001	3.84344E-002	3.29501E+001	11	...........	6.40139E-002	-5.11625E-003	6.05242E-001	5.48954E-001	-2.67944E-002	-3.74106E-002	7.04388E-001	-4.35731E-002	-1.89344E-003	1.51331E-004	-1.79022E-002	-1.62373E-002	7.92541E-004	1.10655E-003	-2.08348E-002	1.28883E-003
	70	70	4.99551E-002	-2.94123E-002	0.00000E+000	-1.46929E-003	-2.91198E-001	3.86291E-002	3.33915E+001	11	...........	6.43514E-002	-5.09597E-003	6.05138E-001	5.48997E-001	-2.67931E-002	-3.74253E-002	7.04327E-001	-4.34953E-002	-1.89272E-003	1.49884E-004	-1.77985E-002	-1.61472E-002	7.88045E-004	1.10076E-003	-2.07159E-002	1.27929E-003
	71	71	4.99547E-002	-2.90123E-002	0.00000E+000	-1.44930E-003	-2.87215E-001	3.85864E-002	3.23314E+001	11	...........	6.42718E-002	-5.09111E-003	6.05118E-001	5.48954E-001	-2.68037E-002	-3.73965E-002	7.04343E-001	-4.34653E-002	-1.86467E-003	1.47705E-004	-1.75559E-002	-1.59264E-002	7.77639E-004	1.08496E-003	-2.04346E-002	1.26103E-003
	72	72	4.99619E-002	-2.83779E-002	0.00000E+000	-1.41781E-003	-2.80916E-001	3.84647E-002	3.29866E+001	11	...........	6.40699E-002	-5.02583E-003	6.05063E-001	5.49191E-001	-2.68103E-002	-3.73582E-002	7.04400E-001	-4.34950E-002	-1.81817E-003	1.42622E-004	-1.71704E-002	-1.55849E-002	7.60818E-004	1.06015E-003	-1.99894E-002	1.23429E-003
	73	73	4.99555E-002	-2.85801E-002	0.00000E+000	-1.42773E-003	-2.82917E-001	3.86374E-002	3.31459E+001	11	...........	6.43511E-002	-5.10236E-003	6.05103E-001	5.49273E-001	-2.68093E-002	-3.73519E-002	7.04357E-001	-4.34917E-002	-1.83916E-003	1.45826E-004	-1.72939E-002	-1.56983E-002	7.66213E-004	1.06752E-003	-2.01306E-002	1.24300E-003
	74	74	4.99538E-002	-2.82577E-002	0.00000E+000	-1.41158E-003	-2.79721E-001	3.86787E-002	3.34615E+001	11	...........	6.44490E-002	-5.08667E-003	6.04986E-001	5.49239E-001	-2.68137E-002	-3.73664E-002	7.04206E-001	-4.34979E-002	-1.82118E-003	1.43737E-004	-1.70955E-002	-1.55202E-002	7.57695E-004	1.05589E-003	-1.98992E-002	1.22915E-003
	75	75	4.99536E-002	-2.78766E-002	0.00000E+000	-1.39254E-003	-2.75921E-001	3.86799E-002	3.35680E+001	11	...........	6.44344E-002	-5.17403E-003	6.04972E-001	5.49129E-001	-2.68217E-002	-3.74011E-002	7.04300E-001	-4.34239E-002	-1.79621E-003	1.44234E-004	-1.68646E-002	-1.53078E-002	7.47697E-004	1.04262E-003	-1.96335E-002	1.21051E-003
	76	76	4.99511E-002	-2.70461E-002	0.00000E+000	-1.35098E-003	-2.67652E-001	3.85740E-002	3.17279E+001	11	...........	6.42632E-002	-5.17278E-003	6.05044E-001	5.49153E-001	-2.68221E-002	-3.74065E-002	7.04339E-001	-4.33786E-002	-1.73807E-003	1.39903E-004	-1.63641E-002	-1.48525E-002	7.25433E-004	1.01170E-003	-1.90496E-002	1.17322E-003
	77	77	4.99633E-002	-2.67884E-002	0.00000E+000	-1.33843E-003	-2.65096E-001	3.86465E-002	3.27625E+001	11	...........	6.43865E-002	-5.13556E-003	6.05049E-001	5.48997E-001	-2.67893E-002	-3.74212E-002	7.04392E-001	-4.34479E-002	-1.72481E-003	1.37573E-004	-1.62083E-002	-1.47067E-002	7.17642E-004	1.00245E-003	-1.88695E-002	1.16390E-003
	78	78	4.99575E-002	-2.69905E-002	0.00000E+000	-1.34838E-003	-2.67104E-001	3.87548E-002	3.37033E+001	11	...........	6.45625E-002	-5.19181E-003	6.05226E-001	5.49172E-001	-2.67935E-002	-3.74301E-002	7.04498E-001	-4.35886E-002	-1.74257E-003	1.40129E-004	-1.63354E-002	-1.48224E-002	7.23169E-004	1.01026E-003	-1.90148E-002	1.17648E-003
	79	79	4.99452E-002	-2.64406E-002	0.00000E+000	-1.32058E-003	-2.61635E-001	3.86747E-002	3.29184E+001	11	...........	6.44478E-002	-5.14153E-003	6.05419E-001	5.49250E-001	-2.67812E-002	-3.74404E-002	7.04618E-001	-4.34672E-002	-1.70404E-003	1.35945E-004	-1.60077E-002	-1.45225E-002	7.08113E-004	9.89947E-004	-1.86305E-002	1.14930E-003
	80	80	4.99603E-002	-2.60124E-002	0.00000E+000	-1.29959E-003	-2.57373E-001	3.87543E-002	3.34179E+001	11	...........	6.45742E-002	-5.15222E-003	6.05386E-001	5.49296E-001	-2.67662E-002	-3.74542E-002	7.04452E-001	-4.34364E-002	-1.67973E-003	1.34022E-004	-1.57476E-002	-1.42885E-002	6.96256E-004	9.74274E-004	-1.83245E-002	1.12989E-003
	81	81	4.99576E-002	-2.57184E-002	0.00000E+000	-1.28483E-003	-2.54459E-001	3.87542E-002	3.29787E+001	11	...........	6.45619E-002	-5.08931E-003	6.05238E-001	5.49325E-001	-2.67546E-002	-3.74740E-002	7.04376E-001	-4.35985E-002	-1.66043E-003	1.30889E-004	-1.55657E-002	-1.41278E-002	6.88085E-004	9.63772E-004	-1.81154E-002	1.12128E-003
	82	82	4.99595E-002	-2.52865E-002	0.00000E+000	-1.26330E-003	-2.50154E-001	3.86536E-002	3.33177E+001	11	...........	6.43956E-002	-5.04514E-003	6.05092E-001	5.49297E-001	-2.67368E-002	-3.74996E-002	7.04511E-001	-4.36811E-002	-1.62834E-003	1.27574E-004	-1.53007E-002	-1.38898E-002	6.76081E-004	9.48234E-004	-1.78146E-002	1.10454E-003
	83	83	4.99581E-002	-2.54348E-002	0.00000E+000	-1.27068E-003	-2.51631E-001	3.88470E-002	3.36920E+001	11	...........	6.47168E-002	-4.96056E-003	6.05177E-001	5.49361E-001	-2.67474E-002	-3.75011E-002	7.04383E-001	-4.36683E-002	-1.64606E-003	1.26171E-004	-1.53926E-002	-1.39729E-002	6.80314E-004	9.53834E-004	-1.79159E-002	1.11070E-003
	84	84	4.99532E-002	-2.48668E-002	0.00000E+000	-1.24218E-003	-2.45974E-001	3.87167E-002	3.33102E+001	11	...........	6.45133E-002	-5.06028E-003	6.05102E-001	5.49273E-001	-2.67262E-002	-3.74861E-002	7.04279E-001	-4.35221E-002	-1.60424E-003	1.25833E-004	-1.50469E-002	-1.36587E-002	6.64596E-004	9.32160E-004	-1.75132E-002	1.08226E-003
	85	85	4.99600E-002	-2.47705E-002	0.00000E+000	-1.23753E-003	-2.45009E-001	3.88920E-002	3.38553E+001	11	...........	6.47865E-002	-5.04778E-003	6.05027E-001	5.49216E-001	-2.67325E-002	-3.74650E-002	7.04374E-001	-4.34835E-002	-1.60480E-003	1.25036E-004	-1.49868E-002	-1.36044E-002	6.62178E-004	9.28028E-004	-1.74477E-002	1.07711E-003
	86	86	4.99477E-002	-2.44400E-002	0.00000E+000	-1.22072E-003	-2.41729E-001	3.88363E-002	3.29520E+001	11	...........	6.46925E-002	-5.09806E-003	6.05077E-001	5.49040E-001	-2.67161E-002	-3.74301E-002	7.04419E-001	-4.34835E-002	-1.58108E-003	1.24596E-004	-1.47881E-002	-1.34185E-002	6.52941E-004	9.14791E-004	-1.72160E-002	1.06273E-003
	87	87	4.99596E-002	-2.37702E-002	0.00000E+000	-1.18755E-003	-2.35077E-001	3.87248E-002	3.30008E+001	11	...........	6.44940E-002	-5.07972E-003	6.05056E-001	5.49002E-001	-2.66764E-002	-3.74479E-002	7.04331E-001	-4.34628E-002	-1.53304E-003	1.20746E-004	-1.43823E-002	-1.30499E-002	6.34104E-004	8.90146E-004	-1.67421E-002	1.03312E-003
	88	88	4.99599E-002	-2.38095E-002	0.00000E+000	-1.18952E-003	-2.35466E-001	3.88673E-002	3.37372E+001	11	...........	6.47478E-002	-5.17222E-003	6.05028E-001	5.49184E-001	-2.66675E-002	-3.74633E-002	7.04392E-001	-4.35192E-002	-1.54161E-003	1.23148E-004	-1.44054E-002	-1.30758E-002	6.34939E-004	8.91982E-004	-1.67712E-002	1.03617E-003
	89	89	4.99516E-002	-2.36316E-002	0.00000E+000	-1.18044E-003	-2.33701E-001	3.88783E-002	3.31927E+001	11	...........	6.47710E-002	-5.07181E-003	6.05104E-001	5.49338E-001	-2.66678E-002	-3.74562E-002	7.04426E-001	-4.35235E-002	-1.53064E-003	1.19855E-004	-1.42996E-002	-1.29817E-002	6.30203E-004	8.85152E-004	-1.66467E-002	1.02853E-003
	90	90	4.99619E-002	-2.31741E-002	0.00000E+000	-1.15782E-003	-2.29160E-001	3.88790E-002	3.38453E+001	11	...........	6.47690E-002	-5.09125E-003	6.05167E-001	5.49378E-001	-2.66833E-002	-3.74565E-002	7.04260E-001	-4.35085E-002	-1.50096E-003	1.17985E-004	-1.40242E-002	-1.27313E-002	6.18362E-004	8.68020E-004	-1.63206E-002	1.00827E-003
	91	91	4.99527E-002	-2.30249E-002	0.00000E+000	-1.15016E-003	-2.27677E-001	3.88743E-002	3.39794E+001	11	...........	6.47667E-002	-5.05083E-003	6.05230E-001	5.49295E-001	-2.66783E-002	-3.74371E-002	7.04288E-001	-4.34967E-002	-1.49125E-003	1.16295E-004	-1.39354E-002	-1.26475E-002	6.14266E-004	8.61985E-004	-1.62162E-002	1.00151E-003
	92	92	4.99527E-002	-2.24649E-002	0.00000E+000	-1.12218E-003	-2.22093E-001	3.87802E-002	3.28750E+001	11	...........	6.45974E-002	-4.96222E-003	6.05255E-001	5.49133E-001	-2.66632E-002	-3.74294E-002	7.04327E-001	-4.36335E-002	-1.45117E-003	1.11476E-004	-1.35970E-002	-1.23362E-002	5.98986E-004	8.40848E-004	-1.58226E-002	9.80221E-004
	93	93	4.99635E-002	-2.24275E-002	0.00000E+000	-1.12056E-003	-2.21723E-001	3.90092E-002	3.33657E+001	11	...........	6.49775E-002	-5.01625E-003	6.05176E-001	5.49296E-001	-2.66726E-002	-3.74262E-002	7.04325E-001	-4.35081E-002	-1.45728E-003	1.12502E-004	-1.35726E-002	-1.23193E-002	5.98201E-004	8.39378E-004	-1.57963E-002	9.75778E-004
	94	94	4.99544E-002	-2.21320E-002	0.00000E+000	-1.10559E-003	-2.18779E-001	3.88300E-002	3.39005E+001	11	...........	6.46979E-002	-5.10458E-003	6.05110E-001	5.49329E-001	-2.66775E-002	-3.74408E-002	7.04365E-001	-4.34754E-002	-1.43189E-003	1.12975E-004	-1.33923E-002	-1.21578E-002	5.90426E-004	8.28640E-004	-1.55890E-002	9.62198E-004
	95	95	4.99597E-002	-2.19901E-002	0.00000E+000	-1.09862E-003	-2.17367E-001	3.89754E-002	3.39650E+001	11	...........	6.49292E-002	-5.06750E-003	6.05139E-001	5.49372E-001	-2.66987E-002	-3.74282E-002	7.04242E-001	-4.34275E-002	-1.42780E-003	1.11435E-004	-1.33071E-002	-1.20808E-002	5.87109E-004	8.23051E-004	-1.54864E-002	9.54976E-004
	96	96	4.99515E-002	-2.16318E-002	0.00000E+000	-1.08054E-003	-2.13819E-001	3.89889E-002	3.39607E+001	11	...........	6.49512E-002	-5.11514E-003	6.05113E-001	5.49394E-001	-2.66794E-002	-3.74089E-002	7.04254E-001	-4.34503E-002	-1.40501E-003	1.10649E-004	-1.30897E-002	-1.18844E-002	5.77123E-004	8.09220E-004	-1.52342E-002	9.39906E-004
	97	97	4.99477E-002	-2.10737E-002	0.00000E+000	-1.05258E-003	-2.08263E-001	3.88342E-002	3.22021E+001	11	...........	6.46837E-002	-5.10764E-003	6.05188E-001	5.49283E-001	-2.66644E-002	-3.74339E-002	7.04246E-001	-4.34169E-002	-1.36313E-003	1.07637E-004	-1.27536E-002	-1.15754E-002	5.61919E-004	7.88871E-004	-1.48411E-002	9.14957E-004
	98	98	4.99712E-002	-2.10409E-002	0.00000E+000	-1.05144E-003	-2.07939E-001	3.90766E-002	3.37204E+001	11	...........	6.51032E-002	-5.14306E-003	6.05244E-001	5.49097E-001	-2.66787E-002	-3.74517E-002	7.04334E-001	-4.34675E-002	-1.36983E-003	1.08215E-004	-1.27349E-002	-1.15535E-002	5.61346E-004	7.88019E-004	-1.48199E-002	9.14597E-004
	99	99	4.99564E-002	-2.09374E-002	0.00000E+000	-1.04596E-003	-2.06902E-001	3.89713E-002	3.40347E+001	11	...........	6.49292E-002	-5.20639E-003	6.05316E-001	5.48970E-001	-2.66575E-002	-3.74569E-002	7.04354E-001	-4.35064E-002	-1.35945E-003	1.09008E-004	-1.26737E-002	-1.14940E-002	5.58138E-004	7.84251E-004	-1.47473E-002	9.10910E-004
	100	100	4.99552E-002	-2.04682E-002	0.00000E+000	-1.02249E-003	-2.02249E-001	3.89286E-002	3.35453E+001	11	...........	6.48642E-002	-5.14972E-003	6.05429E-001	5.49066E-001	-2.66612E-002	-3.74246E-002	7.04338E-001	-4.34886E-002	-1.32765E-003	1.05406E-004	-1.23920E-002	-1.12384E-002	5.45708E-004	7.66014E-004	-1.44165E-002	8.90133E-004
	101	101	4.99543E-002	-2.03512E-002	0.00000E+000	-1.01663E-003	-2.01092E-001	3.90937E-002	3.41482E+001	11	...........	6.51394E-002	-5.07958E-003	6.05409E-001	5.49144E-001	-2.66821E-002	-3.73976E-002	7.04210E-001	-4.33972E-002	-1.32566E-003	1.03376E-004	-1.23208E-002	-1.11757E-002	5.43012E-004	7.61086E-004	-1.43315E-002	8.83185E-004
	102	102	4.99589E-002	-2.01333E-002	0.00000E+000	-1.00584E-003	-1.98922E-001	3.90291E-002	3.33388E+001	11	...........	6.50274E-002	-5.21278E-003	6.05532E-001	5.49125E-001	-2.66767E-002	-3.74054E-002	7.04251E-001	-4.34332E-002	-1.30922E-003	1.04950E-004	-1.21914E-002	-1.10557E-002	5.37089E-004	7.53094E-004	-1.41789E-002	8.74453E-004
	103	103	4.99584E-002	-1.97963E-002	0.00000E+000	-9.88992E-004	-1.95562E-001	3.89847E-002	3.41066E+001	11	...........	6.49636E-002	-5.14278E-003	6.05635E-001	5.48953E-001	-2.66929E-002	-3.74058E-002	7.04221E-001	-4.33826E-002	-1.28604E-003	1.01808E-004	-1.19893E-002	-1.08672E-002	5.28421E-004	7.40497E-004	-1.39410E-002	8.58816E-004
	104	104	4.99534E-002	-1.97888E-002	0.00000E+000	-9.88519E-004	-1.95483E-001	3.90637E-002	3.40957E+001	11	...........	6.50869E-002	-5.13917E-003	6.05826E-001	5.48797E-001	-2.67069E-002	-3.74115E-002	7.04189E-001	-4.33481E-002	-1.28799E-003	1.01698E-004	-1.19886E-002	-1.08601E-002	5.28499E-004	7.40330E-004	-1.39351E-002	8.57807E-004
	105	105	4.99607E-002	-1.94723E-002	0.00000E+000	-9.72851E-004	-1.92325E-001	3.90823E-002	3.38172E+001	11	...........	6.51032E-002	-5.13986E-003	6.05700E-001	5.48791E-001	-2.67333E-002	-3.73907E-002	7.04190E-001	-4.33464E-002	-1.26771E-003	1.00085E-004	-1.17944E-002	-1.06862E-002	5.20560E-004	7.28084E-004	-1.37122E-002	8.44055E-004
	106	106	4.99537E-002	-1.89715E-002	0.00000E+000	-9.47696E-004	-1.87367E-001	3.89638E-002	3.35082E+001	11	...........	6.49119E-002	-5.17625E-003	6.05735E-001	5.48815E-001	-2.67282E-002	-3.73869E-002	7.04102E-001	-4.34006E-002	-1.23148E-003	9.82012E-005	-1.14917E-002	-1.04118E-002	5.07074E-004	7.09286E-004	-1.33579E-002	8.23373E-004
	107	107	4.99544E-002	-1.87991E-002	0.00000E+000	-9.39098E-004	-1.85652E-001	3.90653E-002	3.33734E+001	11	...........	6.50808E-002	-5.20139E-003	6.05698E-001	5.48793E-001	-2.67358E-002	-3.73874E-002	7.04092E-001	-4.34515E-002	-1.22346E-003	9.77815E-005	-1.13866E-002	-1.03168E-002	5.02610E-004	7.02849E-004	-1.32363E-002	8.16850E-004
	108	108	4.99632E-002	-1.87701E-002	0.00000E+000	-9.37814E-004	-1.85367E-001	3.91381E-002	3.42699E+001	11	...........	6.52007E-002	-5.16097E-003	6.05760E-001	5.48727E-001	-2.67281E-002	-3.74062E-002	7.04150E-001	-4.34300E-002	-1.22382E-003	9.68719E-005	-1.13702E-002	-1.02997E-002	5.01688E-004	7.02118E-004	-1.32170E-002	8.15185E-004
	109	109	4.99539E-002	-1.85740E-002	0.00000E+000	-9.27846E-004	-1.83411E-001	3.91450E-002	3.37303E+001	11	...........	6.52137E-002	-5.17875E-003	6.05791E-001	5.48692E-001	-2.67222E-002	-3.73825E-002	7.04157E-001	-4.34449E-002	-1.21128E-003	9.61903E-005	-1.12520E-002	-1.01914E-002	4.96339E-004	6.94344E-004	-1.30790E-002	8.06946E-004
	110	110	4.99603E-002	-1.81788E-002	0.00000E+000	-9.08217E-004	-1.79475E-001	3.90833E-002	3.41739E+001	11	...........	6.51085E-002	-5.11819E-003	6.05781E-001	5.48792E-001	-2.67471E-002	-3.73754E-002	7.04269E-001	-4.36403E-002	-1.18359E-003	9.30425E-005	-1.10124E-002	-9.97637E-003	4.86229E-004	6.79439E-004	-1.28027E-002	7.93327E-004
	111	111	4.99553E-002	-1.79997E-002	0.00000E+000	-8.99178E-004	-1.77705E-001	3.91457E-002	3.41901E+001	11	...........	6.52117E-002	-5.02181E-003	6.05881E-001	5.48726E-001	-2.67379E-002	-3.73925E-002	7.04452E-001	-4.36410E-002	-1.17379E-003	9.03907E-005	-1.09056E-002	-9.87688E-003	4.81273E-004	6.73052E-004	-1.26799E-002	7.85522E-004
	112	112	4.99541E-002	-1.77839E-002	0.00000E+000	-8.88380E-004	-1.75563E-001	3.91077E-002	3.29444E+001	11	...........	6.51476E-002	-5.03903E-003	6.05965E-001	5.48738E-001	-2.67207E-002	-3.73892E-002	7.04407E-001	-4.36140E-002	-1.15858E-003	8.96136E-005	-1.07764E-002	-9.75871E-003	4.75198E-004	6.64925E-004	-1.25271E-002	7.75628E-004
	113	113	4.99625E-002	-1.75134E-002	0.00000E+000	-8.75014E-004	-1.72868E-001	3.91547E-002	3.41993E+001	11	...........	6.52226E-002	-5.06306E-003	6.06027E-001	5.48738E-001	-2.66937E-002	-3.73908E-002	7.04381E-001	-4.34535E-002	-1.14227E-003	8.86714E-005	-1.06136E-002	-9.61028E-003	4.67499E-004	6.54842E-004	-1.23361E-002	7.61019E-004
	114	114	4.99571E-002	-1.74998E-002	0.00000E+000	-8.74239E-004	-1.72727E-001	3.91782E-002	3.40822E+001	11	...........	6.52669E-002	-5.05778E-003	6.06115E-001	5.48873E-001	-2.66949E-002	-3.73954E-002	7.04456E-001	-4.33761E-002	-1.14216E-003	8.85100E-005	-1.06069E-002	-9.60517E-003	4.67154E-004	6.54412E-004	-1.23278E-002	7.59073E-004
	115	115	4.99566E-002	-1.71483E-002	0.00000E+000	-8.56670E-004	-1.69223E-001	3.90681E-002	3.40511E+001	11	...........	6.50999E-002	-5.04750E-003	6.06116E-001	5.48869E-001	-2.67037E-002	-3.73849E-002	7.04428E-001	-4.33607E-002	-1.11635E-003	8.65559E-005	-1.03938E-002	-9.41215E-003	4.57923E-004	6.41086E-004	-1.20797E-002	7.43561E-004
	116	116	4.99574E-002	-1.70325E-002	0.00000E+000	-8.50897E-004	-1.68070E-001	3.92658E-002	3.44560E+001	11	...........	6.54154E-002	-5.13139E-003	6.05964E-001	5.48781E-001	-2.66931E-002	-3.73906E-002	7.04424E-001	-4.33585E-002	-1.11419E-003	8.74002E-005	-1.03211E-002	-9.34710E-003	4.54648E-004	6.36853E-004	-1.19981E-002	7.38501E-004
	117	117	4.99556E-002	-1.67962E-002	0.00000E+000	-8.39065E-004	-1.65727E-001	3.91292E-002	3.35877E+001	11	...........	6.51926E-002	-5.19208E-003	6.06016E-001	5.48898E-001	-2.66900E-002	-3.74190E-002	7.04401E-001	-4.34082E-002	-1.09499E-003	8.72074E-005	-1.01788E-002	-9.21942E-003	4.48291E-004	6.28498E-004	-1.18313E-002	7.29094E-004
	118	118	4.99617E-002	-1.65491E-002	0.00000E+000	-8.26822E-004	-1.63285E-001	3.91328E-002	3.41546E+001	11	...........	6.52087E-002	-5.13764E-003	6.06000E-001	5.49004E-001	-2.67021E-002	-3.74062E-002	7.04387E-001	-4.33646E-002	-1.07915E-003	8.50234E-005	-1.00288E-002	-9.08553E-003	4.41896E-004	6.19041E-004	-1.16570E-002	7.17646E-004
	119	119	4.99555E-002	-1.65217E-002	0.00000E+000	-8.25349E-004	-1.63010E-001	3.92589E-002	3.48283E+001	11	...........	6.54161E-002	-5.24042E-003	6.06020E-001	5.49110E-001	-2.67168E-002	-3.74150E-002	7.04420E-001	-4.33417E-002	-1.08078E-003	8.65805E-005	-1.00125E-002	-9.07223E-003	4.41407E-004	6.18159E-004	-1.16382E-002	7.16077E-004
	120	120	4.99570E-002	-1.63093E-002	0.00000E+000	-8.14764E-004	-1.60893E-001	3.92471E-002	3.42042E+001	11	...........	6.53897E-002	-5.20014E-003	6.06027E-001	5.49104E-001	-2.67233E-002	-3.74094E-002	7.04473E-001	-4.33592E-002	-1.06646E-003	8.48107E-005	-9.88388E-003	-8.95551E-003	4.35839E-004	6.10122E-004	-1.14895E-002	7.07158E-004
	121	121	4.99565E-002	-1.59053E-002	0.00000E+000	-7.94575E-004	-1.56874E-001	3.91117E-002	3.41139E+001	11	...........	6.51507E-002	-5.03250E-003	6.05800E-001	5.49143E-001	-2.67349E-002	-3.74135E-002	7.04555E-001	-4.32858E-002	-1.03624E-003	8.00436E-005	-9.63545E-003	-8.73430E-003	4.25227E-004	5.95074E-004	-1.12062E-002	6.88475E-004
	122	122	4.99606E-002	-1.59300E-002	0.00000E+000	-7.95871E-004	-1.57118E-001	3.92846E-002	3.41794E+001	11	...........	6.54387E-002	-4.95167E-003	6.05691E-001	5.49099E-001	-2.67403E-002	-3.74289E-002	7.04548E-001	-4.33075E-002	-1.04244E-003	7.88799E-005	-9.64865E-003	-8.74713E-003	4.25972E-004	5.96241E-004	-1.12234E-002	6.89887E-004
	123	123	4.99571E-002	-1.56888E-002	0.00000E+000	-7.83766E-004	-1.54718E-001	3.92197E-002	3.44669E+001	11	...........	6.53489E-002	-4.95153E-003	6.05714E-001	5.49187E-001	-2.67406E-002	-3.74306E-002	7.04569E-001	-4.33912E-002	-1.02524E-003	7.76834E-005	-9.50292E-003	-8.61607E-003	4.19527E-004	5.87240E-004	-1.10538E-002	6.80756E-004
	124	124	4.99552E-002	-1.53902E-002	0.00000E+000	-7.68822E-004	-1.51749E-001	3.91791E-002	3.41132E+001	11	...........	6.52790E-002	-5.07194E-003	6.05639E-001	5.49227E-001	-2.67465E-002	-3.74121E-002	7.04624E-001	-4.33672E-002	-1.00466E-003	7.80584E-005	-9.32092E-003	-8.45273E-003	4.11635E-004	5.75781E-004	-1.08443E-002	6.67432E-004
	125	125	4.99557E-002	-1.52069E-002	0.00000E+000	-7.59671E-004	-1.49925E-001	3.92947E-002	3.38642E+001	11	...........	6.54693E-002	-5.03583E-003	6.05616E-001	5.49205E-001	-2.67757E-002	-3.73967E-002	7.04493E-001	-4.33151E-002	-9.95586E-004	7.65794E-005	-9.20955E-003	-8.35171E-003	4.07175E-004	5.68688E-004	-1.07132E-002	6.58689E-004
	126	126	4.99627E-002	-1.50893E-002	0.00000E+000	-7.53902E-004	-1.48753E-001	3.92270E-002	3.42614E+001	11	...........	6.53522E-002	-4.98764E-003	6.05603E-001	5.49257E-001	-2.67686E-002	-3.73799E-002	7.04526E-001	-4.33243E-002	-9.86118E-004	7.52599E-005	-9.13811E-003	-8.28789E-003	4.03919E-004	5.64035E-004	-1.06308E-002	6.53732E-004
	127	127	4.99559E-002	-1.49277E-002	0.00000E+000	-7.45728E-004	-1.47142E-001	3.91950E-002	3.42540E+001	11	...........	6.52992E-002	-4.98639E-003	6.05635E-001	5.49391E-001	-2.67551E-002	-3.73772E-002	7.04528E-001	-4.33582E-002	-9.74768E-004	7.44354E-005	-9.04076E-003	-8.20115E-003	3.99393E-004	5.57957E-004	-1.05170E-002	6.47239E-004
	128	128	4.99569E-002	-1.47484E-002	0.00000E+000	-7.36782E-004	-1.45354E-001	3.93506E-002	3.44093E+001	11	...........	6.55610E-002	-4.98333E-003	6.05560E-001	5.49405E-001	-2.67390E-002	-3.73417E-002	7.04456E-001	-4.34512E-002	-9.66917E-004	7.34960E-005	-8.93102E-003	-8.10283E-003	3.94357E-004	5.50728E-004	-1.03896E-002	6.40835E-004
	129	129	4.99564E-002	-1.44592E-002	0.00000E+000	-7.22331E-004	-1.42477E-001	3.92414E-002	3.39932E+001	11	...........	6.53874E-002	-5.03889E-003	6.05366E-001	5.49481E-001	-2.67519E-002	-3.73419E-002	7.04438E-001	-4.34239E-002	-9.45450E-004	7.28584E-005	-8.75311E-003	-7.94506E-003	3.86812E-004	5.39935E-004	-1.01856E-002	6.27875E-004
	130	130	4.99588E-002	-1.42981E-002	0.00000E+000	-7.14314E-004	-1.40865E-001	3.93478E-002	3.34080E+001	11	...........	6.55581E-002	-5.18333E-003	6.05318E-001	5.49412E-001	-2.67389E-002	-3.73642E-002	7.04576E-001	-4.34258E-002	-9.37353E-004	7.41116E-005	-8.65488E-003	-7.85553E-003	3.82314E-004	5.34235E-004	-1.00741E-002	6.20905E-004
	131	131	4.99580E-002	-1.40909E-002	0.00000E+000	-7.03955E-004	-1.38829E-001	3.92253E-002	3.41035E+001	11	...........	6.53569E-002	-5.07972E-003	6.05183E-001	5.49474E-001	-2.67406E-002	-3.73871E-002	7.04540E-001	-4.33283E-002	-9.20940E-004	7.15780E-005	-8.52759E-003	-7.74260E-003	3.76799E-004	5.26819E-004	-9.92762E-003	6.10536E-004
	132	132	4.99577E-002	-1.40798E-002	0.00000E+000	-7.03395E-004	-1.38719E-001	3.94149E-002	3.45070E+001	11	...........	6.56568E-002	-5.11056E-003	6.05378E-001	5.49676E-001	-2.67262E-002	-3.74111E-002	7.04427E-001	-4.34965E-002	-9.24435E-004	7.19556E-005	-8.52361E-003	-7.73933E-003	3.76300E-004	5.26741E-004	-9.91819E-003	6.12422E-004
	133	133	4.99589E-002	-1.38968E-002	0.00000E+000	-6.94267E-004	-1.36901E-001	3.93612E-002	3.45992E+001	11	...........	6.55739E-002	-5.00167E-003	6.05387E-001	5.49897E-001	-2.67049E-002	-3.73960E-002	7.04502E-001	-4.35668E-002	-9.11266E-004	6.95071E-005	-8.41294E-003	-7.64180E-003	3.71112E-004	5.19684E-004	-9.79031E-003	6.05438E-004
	134	134	4.99561E-002	-1.36589E-002	0.00000E+000	-6.82344E-004	-1.34534E-001	3.92982E-002	3.41977E+001	11	...........	6.54693E-002	-4.97028E-003	6.05336E-001	5.50012E-001	-2.66912E-002	-3.74025E-002	7.04482E-001	-4.36779E-002	-8.94238E-004	6.78885E-005	-8.26822E-003	-7.51255E-003	3.64573E-004	5.10877E-004	-9.62244E-003	5.96592E-004
	135	135	4.99578E-002	-1.34537E-002	0.00000E+000	-6.72119E-004	-1.32492E-001	3.94075E-002	3.36450E+001	11	...........	6.56583E-002	-5.02389E-003	6.05477E-001	5.49993E-001	-2.67126E-002	-3.73872E-002	7.04543E-001	-4.36075E-002	-8.83350E-004	6.75901E-005	-8.14594E-003	-7.39947E-003	3.59385E-004	5.02998E-004	-9.47874E-003	5.86684E-004
	136	136	4.99607E-002	-1.32684E-002	0.00000E+000	-6.62898E-004	-1.30642E-001	3.92777E-002	3.45560E+001	11	...........	6.54392E-002	-5.05250E-003	6.05577E-001	5.50054E-001	-2.67449E-002	-3.73711E-002	7.04440E-001	-4.35224E-002	-8.68271E-004	6.70385E-005	-8.03502E-003	-7.29832E-003	3.54861E-004	4.95854E-004	-9.34677E-003	5.77471E-004
	137	137	4.99565E-002	-1.32447E-002	0.00000E+000	-6.61661E-004	-1.30403E-001	3.93919E-002	3.49301E+001	11	...........	6.56229E-002	-5.12819E-003	6.05572E-001	5.50153E-001	-2.67536E-002	-3.73793E-002	7.04438E-001	-4.34685E-002	-8.69158E-004	6.79216E-005	-8.02064E-003	-7.28663E-003	3.54344E-004	4.95079E-004	-9.33009E-003	5.75728E-004
	138	138	4.99536E-002	-1.30181E-002	0.00000E+000	-6.50302E-004	-1.28157E-001	3.93967E-002	3.38058E+001	11	...........	6.56357E-002	-5.11542E-003	6.05559E-001	5.50384E-001	-2.67593E-002	-3.73810E-002	7.04602E-001	-4.34004E-002	-8.54455E-004	6.65932E-005	-7.88326E-003	-7.16498E-003	3.48356E-004	4.86631E-004	-9.17261E-003	5.64993E-004
	139	139	4.99644E-002	-1.28544E-002	0.00000E+000	-6.42264E-004	-1.26541E-001	3.93858E-002	3.48550E+001	11	...........	6.56253E-002	-5.14083E-003	6.05513E-001	5.50459E-001	-2.67500E-002	-3.73842E-002	7.04722E-001	-4.35721E-002	-8.43575E-004	6.60825E-005	-7.78352E-003	-7.07583E-003	3.43856E-004	4.80552E-004	-9.05880E-003	5.60094E-004
	140	140	4.99556E-002	-1.27355E-002	0.00000E+000	-6.36209E-004	-1.25356E-001	3.93695E-002	3.48268E+001	11	...........	6.55950E-002	-5.08556E-003	6.05436E-001	5.50462E-001	-2.67537E-002	-3.74000E-002	7.04727E-001	-4.34817E-002	-8.35385E-004	6.47671E-005	-7.71053E-003	-7.01041E-003	3.40722E-004	4.76308E-004	-8.97505E-003	5.53761E-004
	141	141	4.99572E-002	-1.24957E-002	0.00000E+000	-6.24251E-004	-1.22963E-001	3.93071E-002	3.39075E+001	11	...........	6.54861E-002	-5.13403E-003	6.05432E-001	5.50382E-001	-2.67506E-002	-3.73865E-002	7.04630E-001	-4.34261E-002	-8.18296E-004	6.41534E-005	-7.56531E-003	-6.87743E-003	3.34268E-004	4.67172E-004	-8.80486E-003	5.42641E-004
	142	142	4.99619E-002	-1.24802E-002	0.00000E+000	-6.23532E-004	-1.22810E-001	3.94663E-002	3.48294E+001	11	...........	6.57611E-002	-5.19139E-003	6.05602E-001	5.50265E-001	-2.67586E-002	-3.74121E-002	7.04505E-001	-4.34511E-002	-8.20709E-004	6.47893E-005	-7.55801E-003	-6.86739E-003	3.33951E-004	4.66908E-004	-8.79233E-003	5.42276E-004
	143	143	4.99537E-002	-1.23221E-002	0.00000E+000	-6.15535E-004	-1.21237E-001	3.93679E-002	3.42168E+001	11	...........	6.55756E-002	-5.11000E-003	6.05593E-001	5.50120E-001	-2.67651E-002	-3.74201E-002	7.04480E-001	-4.32579E-002	-8.08030E-004	6.29660E-005	-7.46220E-003	-6.77864E-003	3.29803E-004	4.61095E-004	-8.68068E-003	5.33029E-004
	144	144	4.99614E-002	-1.22156E-002	0.00000E+000	-6.10310E-004	-1.20176E-001	3.94693E-002	3.48432E+001	11	...........	6.57604E-002	-5.01917E-003	6.05650E-001	5.50158E-001	-2.67567E-002	-3.74078E-002	7.04535E-001	-4.32771E-002	-8.03305E-004	6.13123E-005	-7.39841E-003	-6.72053E-003	3.26850E-004	4.56960E-004	-8.60634E-003	5.28657E-004
	145	145	4.99587E-002	-1.20873E-002	0.00000E+000	-6.03868E-004	-1.18895E-001	3.94283E-002	3.50593E+001	11	...........	6.56753E-002	-5.07125E-003	6.05591E-001	5.50279E-001	-2.67624E-002	-3.73956E-002	7.04408E-001	-4.33897E-002	-7.93840E-004	6.12979E-005	-7.31998E-003	-6.65141E-003	3.23486E-004	4.52013E-004	-8.51442E-003	5.24466E-004
	146	146	4.99582E-002	-1.18772E-002	0.00000E+000	-5.93366E-004	-1.16798E-001	3.94388E-002	3.40533E+001	11	...........	6.57118E-002	-5.07097E-003	6.05485E-001	5.50324E-001	-2.67742E-002	-3.73879E-002	7.04455E-001	-4.34833E-002	-7.80475E-004	6.02292E-005	-7.19150E-003	-6.53633E-003	3.18003E-004	4.44065E-004	-8.36698E-003	5.16462E-004
	147	147	4.99569E-002	-1.16277E-002	0.00000E+000	-5.80886E-004	-1.14323E-001	3.92867E-002	3.38945E+001	11	...........	6.54525E-002	-5.02208E-003	6.05501E-001	5.50302E-001	-2.67700E-002	-3.73701E-002	7.04511E-001	-4.35165E-002	-7.61065E-004	5.83955E-005	-7.04061E-003	-6.39877E-003	3.11275E-004	4.34530E-004	-8.19188E-003	5.05999E-004
	148	148	4.99599E-002	-1.17206E-002	0.00000E+000	-5.85558E-004	-1.15233E-001	3.95596E-002	3.50505E+001	11	...........	6.59147E-002	-4.91889E-003	6.05382E-001	5.50284E-001	-2.67581E-002	-3.73553E-002	7.04303E-001	-4.35250E-002	-7.72558E-004	5.76521E-005	-7.09541E-003	-6.44963E-003	3.13619E-004	4.37825E-004	-8.25483E-003	5.10137E-004
	149	149	4.99592E-002	-1.15570E-002	0.00000E+000	-5.77376E-004	-1.13629E-001	3.94800E-002	3.48218E+001	11	...........	6.57746E-002	-5.05500E-003	6.05322E-001	5.50300E-001	-2.67681E-002	-3.73597E-002	7.04356E-001	-4.35739E-002	-7.60154E-004	5.84204E-005	-6.99568E-003	-6.35979E-003	3.09357E-004	4.31765E-004	-8.14022E-003	5.03581E-004
	150	150	4.99560E-002	-1.13100E-002	0.00000E+000	-5.65004E-004	-1.11177E-001	3.93940E-002	3.41775E+001	11	...........	6.56254E-002	-5.00944E-003	6.05186E-001	5.50319E-001	-2.67765E-002	-3.73457E-002	7.04409E-001	-4.34969E-002	-7.42226E-004	5.66570E-005	-6.84468E-003	-6.22414E-003	3.02844E-004	4.22382E-004	-7.96689E-003	4.91952E-004
	151	151	4.99592E-002	-1.11784E-002	0.00000E+000	-5.58462E-004	-1.09863E-001	3.95207E-002	3.48119E+001	11	...........	6.58399E-002	-5.01347E-003	6.05132E-001	5.50376E-001	-2.67629E-002	-3.73201E-002	7.04438E-001	-4.34090E-002	-7.35981E-004	5.60424E-005	-6.76439E-003	-6.15230E-003	2.99165E-004	4.17178E-004	-7.87446E-003	4.85242E-004
	152	152	4.99541E-002	-1.10629E-002	0.00000E+000	-5.52639E-004	-1.08711E-001	3.94127E-002	3.38785E+001	11	...........	6.56635E-002	-5.02125E-003	6.04938E-001	5.50465E-001	-2.67435E-002	-3.73058E-002	7.04217E-001	-4.34128E-002	-7.26432E-004	5.55498E-005	-6.69239E-003	-6.08977E-003	2.95862E-004	4.12713E-004	-7.79071E-003	4.80273E-004
	153	153	4.99629E-002	-1.09733E-002	0.00000E+000	-5.48255E-004	-1.07817E-001	3.95270E-002	3.48631E+001	11	...........	6.58483E-002	-5.04069E-003	6.04804E-001	5.50528E-001	-2.67318E-002	-3.73101E-002	7.04257E-001	-4.34828E-002	-7.22570E-004	5.53128E-005	-6.63667E-003	-6.04108E-003	2.93335E-004	4.09414E-004	-7.72799E-003	4.77147E-004
	154	154	4.99583E-002	-1.08926E-002	0.00000E+000	-5.44178E-004	-1.07014E-001	3.95538E-002	3.47208E+001	11	...........	6.58811E-002	-5.16028E-003	6.04797E-001	5.50540E-001	-2.67160E-002	-3.73174E-002	7.04418E-001	-4.35857E-002	-7.17620E-004	5.62091E-005	-6.58784E-003	-5.99684E-003	2.91008E-004	4.06485E-004	-7.67297E-003	4.74764E-004
	155	155	4.99585E-002	-1.06755E-002	0.00000E+000	-5.33330E-004	-1.04852E-001	3.93850E-002	3.42678E+001	11	...........	6.56053E-002	-5.18069E-003	6.04781E-001	5.50430E-001	-2.67299E-002	-3.73082E-002	7.04404E-001	-4.36172E-002	-7.00367E-004	5.53063E-005	-6.45632E-003	-5.87609E-003	2.85354E-004	3.98282E-004	-7.51984E-003	4.65634E-004
	156	156	4.99591E-002	-1.06452E-002	0.00000E+000	-5.31822E-004	-1.04550E-001	3.95844E-002	3.50848E+001	11	...........	6.59650E-002	-5.15111E-003	6.04820E-001	5.50407E-001	-2.67210E-002	-3.72949E-002	7.04327E-001	-4.35614E-002	-7.02208E-004	5.48344E-005	-6.43840E-003	-5.85917E-003	2.84449E-004	3.97010E-004	-7.49767E-003	4.63718E-004
	157	157	4.99570E-002	-1.05361E-002	0.00000E+000	-5.26350E-004	-1.03470E-001	3.95542E-002	3.46485E+001	11	...........	6.59060E-002	-5.10681E-003	6.04805E-001	5.50545E-001	-2.67314E-002	-3.73131E-002	7.04329E-001	-4.33886E-002	-6.94390E-004	5.38056E-005	-6.37226E-003	-5.80058E-003	2.81644E-004	3.93133E-004	-7.42085E-003	4.57145E-004
	158	158	4.99574E-002	-1.02258E-002	0.00000E+000	-5.10853E-004	-1.00423E-001	3.93593E-002	3.35914E+001	11	...........	6.55669E-002	-5.16792E-003	6.04711E-001	5.50739E-001	-2.67211E-002	-3.73211E-002	7.04334E-001	-4.34440E-002	-6.70473E-004	5.28459E-005	-6.18364E-003	-5.63174E-003	2.73244E-004	3.81637E-004	-7.20236E-003	4.44249E-004
	159	159	4.99610E-002	-1.02297E-002	0.00000E+000	-5.11087E-004	-1.00465E-001	3.96113E-002	3.47620E+001	11	...........	6.59867E-002	-5.13111E-003	6.04616E-001	5.50782E-001	-2.67119E-002	-3.73221E-002	7.04333E-001	-4.35131E-002	-6.75025E-004	5.24899E-005	-6.18505E-003	-5.63435E-003	2.73256E-004	3.81795E-004	-7.20513E-003	4.45127E-004
	160	160	4.99591E-002	-1.01941E-002	0.00000E+000	-5.09286E-004	-1.00106E-001	3.95880E-002	3.50832E+001	11	...........	6.59485E-002	-5.12472E-003	6.04505E-001	5.50742E-001	-2.67046E-002	-3.73394E-002	7.04241E-001	-4.34762E-002	-6.72282E-004	5.22417E-005	-6.16236E-003	-5.61429E-003	2.72228E-004	3.80640E-004	-7.17907E-003	4.43199E-004
	161	161	4.99574E-002	-1.00257E-002	0.00000E+000	-5.00858E-004	-9.84273E-002	3.94748E-002	3.44948E+001	11	...........	6.57810E-002	-5.14514E-003	6.04406E-001	5.50704E-001	-2.67081E-002	-3.73542E-002	7.04278E-001	-4.34953E-002	-6.59501E-004	5.15836E-005	-6.05959E-003	-5.52119E-003	2.67767E-004	3.74502E-004	-7.06088E-003	4.36071E-004
	162	162	4.99579E-002	-9.87701E-003	0.00000E+000	-4.93435E-004	-9.69467E-002	3.96589E-002	3.49079E+001	11	...........	6.60533E-002	-5.12306E-003	6.04332E-001	5.50694E-001	-2.66944E-002	-3.73701E-002	7.04244E-001	-4.37079E-002	-6.52410E-004	5.06005E-005	-5.96900E-003	-5.43921E-003	2.63661E-004	3.69105E-004	-6.95582E-003	4.31704E-004
	163	163	4.99576E-002	-9.70809E-003	0.00000E+000	-4.84993E-004	-9.52613E-002	3.94302E-002	3.35814E+001	11	...........	6.56892E-002	-5.13778E-003	6.04303E-001	5.50637E-001	-2.66750E-002	-3.73556E-002	7.04371E-001	-4.35985E-002	-6.37716E-004	4.98780E-005	-5.86663E-003	-5.34563E-003	2.58963E-004	3.62651E-004	-6.83809E-003	4.23258E-004
	164	164	4.99599E-002	-9.68720E-003	0.00000E+000	-4.83972E-004	-9.50507E-002	3.96033E-002	3.47715E+001	11	...........	6.59781E-002	-5.05986E-003	6.04181E-001	5.50452E-001	-2.66867E-002	-3.73610E-002	7.04389E-001	-4.36749E-002	-6.39142E-004	4.90159E-005	-5.85282E-003	-5.33233E-003	2.58519E-004	3.61923E-004	-6.82355E-003	4.23087E-004
	165	165	4.99594E-002	-9.62792E-003	0.00000E+000	-4.81005E-004	-9.44640E-002	3.95934E-002	3.49739E+001	11	...........	6.59575E-002	-5.05944E-003	6.03951E-001	5.50238E-001	-2.66711E-002	-3.73425E-002	7.04376E-001	-4.35518E-002	-6.35033E-004	4.87119E-005	-5.81479E-003	-5.29765E-003	2.56787E-004	3.59530E-004	-6.78168E-003	4.19313E-004
	166	166	4.99584E-002	-9.45585E-003	0.00000E+000	-4.72399E-004	-9.27540E-002	3.95252E-002	3.44498E+001	11	...........	6.58408E-002	-5.09597E-003	6.04022E-001	5.50235E-001	-2.66704E-002	-3.73531E-002	7.04331E-001	-4.35278E-002	-6.22581E-004	4.81867E-005	-5.71154E-003	-5.20294E-003	2.52191E-004	3.53205E-004	-6.66005E-003	4.11592E-004
	167	167	4.99590E-002	-9.40272E-003	0.00000E+000	-4.69750E-004	-9.22200E-002	3.96485E-002	3.49565E+001	11	...........	6.60408E-002	-5.12222E-003	6.04123E-001	5.50156E-001	-2.66853E-002	-3.73510E-002	7.04270E-001	-4.34229E-002	-6.20963E-004	4.81628E-005	-5.68040E-003	-5.17296E-003	2.50914E-004	3.51201E-004	-6.62205E-003	4.08293E-004
	168	168	4.99572E-002	-9.26702E-003	0.00000E+000	-4.62955E-004	-9.08653E-002	3.95667E-002	3.51558E+001	11	...........	6.59092E-002	-5.11625E-003	6.04130E-001	5.50151E-001	-2.66903E-002	-3.73372E-002	7.04288E-001	-4.34665E-002	-6.10782E-004	4.74124E-005	-5.59848E-003	-5.09826E-003	2.47339E-004	3.46005E-004	-6.52665E-003	4.02805E-004
	169	169	4.99584E-002	-9.08533E-003	0.00000E+000	-4.53889E-004	-8.90640E-002	3.95092E-002	3.36787E+001	11	...........	6.58344E-002	-5.04639E-003	6.04123E-001	5.50166E-001	-2.66815E-002	-3.73442E-002	7.04278E-001	-4.34156E-002	-5.98128E-004	4.58481E-005	-5.48866E-003	-4.99844E-003	2.42411E-004	3.39284E-004	-6.39861E-003	3.94445E-004
	170	170	4.99611E-002	-9.02852E-003	0.00000E+000	-4.51074E-004	-8.85047E-002	3.96420E-002	3.47597E+001	11	...........	6.60503E-002	-5.05778E-003	6.04092E-001	5.50168E-001	-2.67168E-002	-3.73050E-002	7.04357E-001	-4.33456E-002	-5.96336E-004	4.56642E-005	-5.45405E-003	-4.96720E-003	2.41213E-004	3.36809E-004	-6.35930E-003	3.91346E-004
	171	171	4.99580E-002	-8.97451E-003	0.00000E+000	-4.48349E-004	-8.79700E-002	3.95387E-002	3.46456E+001	11	...........	6.58799E-002	-5.12889E-003	6.04246E-001	5.50255E-001	-2.67193E-002	-3.72726E-002	7.04411E-001	-4.34312E-002	-5.91239E-004	4.60293E-005	-5.42281E-003	-4.93827E-003	2.39793E-004	3.34504E-004	-6.32175E-003	3.89774E-004
	172	172	4.99590E-002	-8.90543E-003	0.00000E+000	-4.44907E-004	-8.72967E-002	3.96799E-002	3.51898E+001	11	...........	6.61149E-002	-5.12764E-003	6.04220E-001	5.50488E-001	-2.67167E-002	-3.72474E-002	7.04481E-001	-4.33214E-002	-5.88781E-004	4.56638E-005	-5.38084E-003	-4.90233E-003	2.37923E-004	3.31704E-004	-6.27371E-003	3.85796E-004
	173	173	4.99578E-002	-8.80356E-003	0.00000E+000	-4.39806E-004	-8.62780E-002	3.96576E-002	3.44891E+001	11	...........	6.60593E-002	-5.16667E-003	6.04249E-001	5.50683E-001	-2.67303E-002	-3.72382E-002	7.04533E-001	-4.34111E-002	-5.81557E-004	4.54851E-005	-5.31954E-003	-4.84798E-003	2.35322E-004	3.27829E-004	-6.20240E-003	3.82172E-004
	174	174	4.99586E-002	-8.58661E-003	0.00000E+000	-4.28975E-004	-8.41160E-002	3.95151E-002	3.40837E+001	11	...........	6.58333E-002	-5.21736E-003	6.04112E-001	5.50561E-001	-2.67197E-002	-3.72215E-002	7.04589E-001	-4.34596E-002	-5.65285E-004	4.47994E-005	-5.18727E-003	-4.72745E-003	2.29432E-004	3.19607E-004	-6.05003E-003	3.73170E-004
	175	175	4.99595E-002	-8.55909E-003	0.00000E+000	-4.27607E-004	-8.38427E-002	3.95567E-002	3.48539E+001	11	...........	6.59112E-002	-5.11014E-003	6.04150E-001	5.50555E-001	-2.67586E-002	-3.72101E-002	7.04634E-001	-4.32974E-002	-5.64140E-004	4.37381E-005	-5.17097E-003	-4.71224E-003	2.29029E-004	3.18485E-004	-6.03102E-003	3.70586E-004
	176	176	4.99592E-002	-8.54542E-003	0.00000E+000	-4.26922E-004	-8.37087E-002	3.97510E-002	3.53461E+001	11	...........	6.62206E-002	-5.09972E-003	6.04103E-001	5.50422E-001	-2.67714E-002	-3.72090E-002	7.04506E-001	-4.34053E-002	-5.65883E-004	4.35793E-005	-5.16231E-003	-4.70359E-003	2.28773E-004	3.17967E-004	-6.02030E-003	3.70916E-004
	177	177	4.99585E-002	-8.39710E-003	0.00000E+000	-4.19506E-004	-8.22307E-002	3.96043E-002	3.47453E+001	11	...........	6.59875E-002	-5.09250E-003	6.04095E-001	5.50313E-001	-2.67725E-002	-3.72101E-002	7.04581E-001	-4.33947E-002	-5.54103E-004	4.27622E-005	-5.07264E-003	-4.62103E-003	2.24811E-004	3.12457E-004	-5.91644E-003	3.64390E-004
	178	178	4.99597E-002	-8.32260E-003	0.00000E+000	-4.15794E-004	-8.14940E-002	3.96523E-002	3.50736E+001	11	...........	6.60621E-002	-5.04264E-003	6.04123E-001	5.50204E-001	-2.67704E-002	-3.71996E-002	7.04613E-001	-4.33446E-002	-5.49808E-004	4.19679E-005	-5.02787E-003	-4.57913E-003	2.22800E-004	3.09597E-004	-5.86421E-003	3.60740E-004
	179	179	4.99580E-002	-8.16684E-003	0.00000E+000	-4.07999E-004	-7.99427E-002	3.95955E-002	3.40102E+001	11	...........	6.59646E-002	-5.05736E-003	6.04169E-001	5.50196E-001	-2.67531E-002	-3.72015E-002	7.04606E-001	-4.33867E-002	-5.38722E-004	4.13026E-005	-4.93415E-003	-4.49336E-003	2.18488E-004	3.03819E-004	-5.75440E-003	3.54332E-004
	180	180	4.99592E-002	-8.08048E-003	0.00000E+000	-4.03695E-004	-7.90820E-002	3.96064E-002	3.45143E+001	11	...........	6.59850E-002	-4.97917E-003	6.04242E-001	5.50301E-001	-2.67432E-002	-3.72249E-002	7.04614E-001	-4.34671E-002	-5.33191E-004	4.02341E-005	-4.88257E-003	-4.44669E-003	2.16098E-004	3.00795E-004	-5.69362E-003	3.51235E-004
	181	181	4.99595E-002	-8.09653E-003	0.00000E+000	-4.04499E-004	-7.92367E-002	3.97788E-002	3.45669E+001	11	...........	6.62712E-002	-5.00097E-003	6.04238E-001	5.50480E-001	-2.67469E-002	-3.72522E-002	7.04627E-001	-4.33562E-002	-5.36567E-004	4.04905E-005	-4.89223E-003	-4.45698E-003	2.16558E-004	3.01614E-004	-5.70504E-003	3.51035E-004
	182	182	4.99580E-002	-7.93281E-003	0.00000E+000	-3.96308E-004	-7.76107E-002	3.96002E-002	3.49479E+001	11	...........	6.59793E-002	-5.09500E-003	6.04289E-001	5.50440E-001	-2.67456E-002	-3.72600E-002	7.04474E-001	-4.33892E-002	-5.23402E-004	4.04177E-005	-4.79371E-003	-4.36654E-003	2.12168E-004	2.95577E-004	-5.58846E-003	3.44198E-004
	183	183	4.99596E-002	-7.87413E-003	0.00000E+000	-3.93389E-004	-7.70287E-002	3.97231E-002	3.52358E+001	11	...........	6.61789E-002	-5.10375E-003	6.04418E-001	5.50449E-001	-2.67621E-002	-3.72408E-002	7.04433E-001	-4.34914E-002	-5.21101E-004	4.01876E-005	-4.75927E-003	-4.33430E-003	2.10728E-004	2.93239E-004	-5.54680E-003	3.42457E-004
	184	184	4.99584E-002	-7.82692E-003	0.00000E+000	-3.91020E-004	-7.65740E-002	3.97023E-002	3.55251E+001	11	...........	6.61400E-002	-5.05250E-003	6.04464E-001	5.50576E-001	-2.67644E-002	-3.72387E-002	7.04474E-001	-4.33868E-002	-5.17672E-004	3.95455E-005	-4.73109E-003	-4.30931E-003	2.09483E-004	2.91465E-004	-5.51386E-003	3.39585E-004
	185	185	4.99570E-002	-7.69891E-003	0.00000E+000	-3.84615E-004	-7.53007E-002	3.96807E-002	3.43613E+001	11	...........	6.61049E-002	-5.06917E-003	6.04515E-001	5.50513E-001	-2.67821E-002	-3.72404E-002	7.04455E-001	-4.34093E-002	-5.08936E-004	3.90271E-005	-4.65411E-003	-4.23835E-003	2.06193E-004	2.86711E-004	-5.42354E-003	3.34205E-004
	186	186	4.99585E-002	-7.55056E-003	0.00000E+000	-3.77215E-004	-7.38180E-002	3.96091E-002	3.43240E+001	11	...........	6.59906E-002	-5.00514E-003	6.04668E-001	5.50517E-001	-2.67974E-002	-3.72367E-002	7.04505E-001	-4.32940E-002	-4.98265E-004	3.77916E-005	-4.56558E-003	-4.15671E-003	2.02335E-004	2.81157E-004	-5.31941E-003	3.26894E-004
	187	187	4.99622E-002	-7.59155E-003	0.00000E+000	-3.79291E-004	-7.42247E-002	3.97404E-002	3.55437E+001	11	...........	6.62112E-002	-4.95444E-003	6.04747E-001	5.50537E-001	-2.68393E-002	-3.72649E-002	7.04602E-001	-4.33328E-002	-5.02646E-004	3.76119E-005	-4.59097E-003	-4.17943E-003	2.03752E-004	2.82898E-004	-5.34902E-003	3.28963E-004
	188	188	4.99588E-002	-7.53706E-003	0.00000E+000	-3.76542E-004	-7.36840E-002	3.96747E-002	3.54127E+001	11	...........	6.61118E-002	-4.94500E-003	6.04792E-001	5.50628E-001	-2.68104E-002	-3.72676E-002	7.04582E-001	-4.33814E-002	-4.98289E-004	3.72708E-005	-4.55835E-003	-4.15012E-003	2.02072E-004	2.80888E-004	-5.31048E-003	3.26968E-004
	189	189	4.99575E-002	-7.34704E-003	0.00000E+000	-3.67040E-004	-7.17880E-002	3.96350E-002	3.45811E+001	11	...........	6.60324E-002	-4.89722E-003	6.04859E-001	5.50585E-001	-2.67656E-002	-3.72444E-002	7.04600E-001	-4.33457E-002	-4.85142E-004	3.59801E-005	-4.44392E-003	-4.04517E-003	1.96648E-004	2.73636E-004	-5.17672E-003	3.18462E-004
	190	190	4.99570E-002	-7.25393E-003	0.00000E+000	-3.62385E-004	-7.08613E-002	3.96361E-002	3.39498E+001	11	...........	6.60504E-002	-4.98125E-003	6.05096E-001	5.50572E-001	-2.67354E-002	-3.72429E-002	7.04518E-001	-4.35236E-002	-4.79125E-004	3.61336E-005	-4.38932E-003	-3.99381E-003	1.93937E-004	2.70157E-004	-5.11053E-003	3.15717E-004
	191	191	4.99625E-002	-7.22388E-003	0.00000E+000	-3.60923E-004	-7.05627E-002	3.97112E-002	3.52781E+001	11	...........	6.61626E-002	-4.90944E-003	6.05331E-001	5.50470E-001	-2.67242E-002	-3.72624E-002	7.04549E-001	-4.34647E-002	-4.77951E-004	3.54652E-005	-4.37284E-003	-3.97653E-003	1.93052E-004	2.69179E-004	-5.08958E-003	3.13984E-004
	192	192	4.99589E-002	-7.18758E-003	0.00000E+000	-3.59083E-004	-7.01947E-002	3.97168E-002	3.56589E+001	11	...........	6.61543E-002	-5.03333E-003	6.05518E-001	5.50469E-001	-2.67346E-002	-3.72792E-002	7.04531E-001	-4.34600E-002	-4.75489E-004	3.61775E-005	-4.35221E-003	-3.95654E-003	1.92157E-004	2.67947E-004	-5.06387E-003	3.12372E-004
	193	193	4.99578E-002	-7.07616E-003	0.00000E+000	-3.53509E-004	-6.90873E-002	3.96872E-002	3.45658E+001	11	...........	6.61357E-002	-4.97653E-003	6.05532E-001	5.50382E-001	-2.67433E-002	-3.72803E-002	7.04555E-001	-4.33608E-002	-4.67987E-004	3.52147E-005	-4.28484E-003	-3.89459E-003	1.89240E-004	2.63801E-004	-4.98554E-003	3.06828E-004
	194	194	4.99595E-002	-6.99381E-003	0.00000E+000	-3.49407E-004	-6.82700E-002	3.97486E-002	3.52722E+001	11	...........	6.62250E-002	-5.01569E-003	6.05669E-001	5.50448E-001	-2.67361E-002	-3.72839E-002	7.04303E-001	-4.33453E-002	-4.63165E-004	3.50788E-005	-4.23593E-003	-3.84973E-003	1.86987E-004	2.60757E-004	-4.92577E-003	3.03149E-004
	195	195	4.99575E-002	-6.90157E-003	0.00000E+000	-3.44785E-004	-6.73533E-002	3.96297E-002	3.40684E+001	11	...........	6.60203E-002	-5.06458E-003	6.05696E-001	5.50315E-001	-2.67553E-002	-3.72842E-002	7.04265E-001	-4.34504E-002	-4.55644E-004	3.49536E-005	-4.18025E-003	-3.79804E-003	1.84653E-004	2.57319E-004	-4.86053E-003	2.99876E-004
	196	196	4.99615E-002	-6.87529E-003	0.00000E+000	-3.43500E-004	-6.70853E-002	3.97759E-002	3.51024E+001	11	...........	6.62833E-002	-5.02542E-003	6.05688E-001	5.50133E-001	-2.67549E-002	-3.72714E-002	7.04341E-001	-4.36254E-002	-4.55717E-004	3.45512E-005	-4.16428E-003	-3.78232E-003	1.83947E-004	2.56251E-004	-4.84254E-003	2.99937E-004
	197	197	4.99592E-002	-6.82638E-003	0.00000E+000	-3.41040E-004	-6.65987E-002	3.97008E-002	3.55570E+001	11	...........	6.61526E-002	-5.00778E-003	6.05741E-001	5.50123E-001	-2.67431E-002	-3.72693E-002	7.04435E-001	-4.35376E-002	-4.51583E-004	3.41850E-005	-4.13501E-003	-3.75535E-003	1.82558E-004	2.54414E-004	-4.80874E-003	2.97204E-004
	198	198	4.99589E-002	-6.76562E-003	0.00000E+000	-3.38003E-004	-6.59933E-002	3.97686E-002	3.50443E+001	11	...........	6.62612E-002	-4.99306E-003	6.05735E-001	5.50185E-001	-2.67279E-002	-3.72954E-002	7.04453E-001	-4.34869E-002	-4.48299E-004	3.37811E-005	-4.09817E-003	-3.72235E-003	1.80831E-004	2.52327E-004	-4.76606E-003	2.94216E-004
	199	199	4.99592E-002	-6.64700E-003	0.00000E+000	-3.32079E-004	-6.48087E-002	3.96757E-002	3.52399E+001	11	...........	6.61101E-002	-4.95153E-003	6.05696E-001	5.50281E-001	-2.67278E-002	-3.73065E-002	7.04337E-001	-4.35385E-002	-4.39434E-004	3.29128E-005	-4.02606E-003	-3.65772E-003	1.77660E-004	2.47977E-004	-4.68173E-003	2.89400E-004
	200	200	4.99584E-002	-6.58550E-003	0.00000E+000	-3.29001E-004	-6.41913E-002	3.97985E-002	3.44807E+001	11	...........	6.63076E-002	-5.07681E-003	6.05822E-001	5.50196E-001	-2.67532E-002	-3.73194E-002	7.04317E-001	-4.35444E-002	-4.36669E-004	3.34333E-005	-3.98964E-003	-3.62332E-003	1.76183E-004	2.45767E-004	-4.63828E-003	2.86762E-004
	201	201	4.99600E-002	-6.47638E-003	0.00000E+000	-3.23560E-004	-6.31220E-002	3.96082E-002	3.46178E+001	11	...........	6.59776E-002	-5.04472E-003	6.05840E-001	5.50226E-001	-2.67267E-002	-3.73161E-002	7.04386E-001	-4.36258E-002	-4.27297E-004	3.26716E-005	-3.92365E-003	-3.56347E-003	1.73092E-004	2.41673E-004	-4.56187E-003	2.82538E-004
	202	202	4.99596E-002	-6.49843E-003	0.00000E+000	-3.24659E-004	-6.33307E-002	3.98338E-002	3.55848E+001	11	...........	6.63582E-002	-5.14472E-003	6.05826E-001	5.50329E-001	-2.67272E-002	-3.73031E-002	7.04420E-001	-4.34806E-002	-4.31224E-004	3.34326E-005	-3.93692E-003	-3.57628E-003	1.73685E-004	2.42411E-004	-4.57762E-003	2.82555E-004
	203	203	4.99592E-002	-6.45422E-003	0.00000E+000	-3.22448E-004	-6.29087E-002	3.97641E-002	3.51014E+001	11	...........	6.62607E-002	-5.14750E-003	6.05877E-001	5.50219E-001	-2.67200E-002	-3.73087E-002	7.04407E-001	-4.34537E-002	-4.27661E-004	3.32231E-005	-3.91046E-003	-3.55123E-003	1.72457E-004	2.40799E-004	-4.54640E-003	2.80460E-004
	204	204	4.99589E-002	-6.36121E-003	0.00000E+000	-3.17799E-004	-6.19953E-002	3.97134E-002	3.53019E+001	11	...........	6.61529E-002	-5.07389E-003	6.05705E-001	5.50282E-001	-2.67224E-002	-3.73036E-002	7.04467E-001	-4.36201E-002	-4.20813E-004	3.22761E-005	-3.85302E-003	-3.50046E-003	1.69987E-004	2.37296E-004	-4.48126E-003	2.77477E-004
	205	205	4.99594E-002	-6.29688E-003	0.00000E+000	-3.14589E-004	-6.13513E-002	3.98013E-002	3.48450E+001	11	...........	6.63119E-002	-5.18375E-003	6.05636E-001	5.50294E-001	-2.67028E-002	-3.72994E-002	7.04473E-001	-4.34093E-002	-4.17559E-004	3.26415E-005	-3.81362E-003	-3.46514E-003	1.68144E-004	2.34870E-004	-4.43598E-003	2.73343E-004
	206	206	4.99582E-002	-6.17711E-003	0.00000E+000	-3.08597E-004	-6.01587E-002	3.95646E-002	3.43831E+001	11	...........	6.59193E-002	-5.09583E-003	6.05528E-001	5.50166E-001	-2.66833E-002	-3.73014E-002	7.04536E-001	-4.34681E-002	-4.07191E-004	3.14775E-005	-3.74041E-003	-3.39844E-003	1.64826E-004	2.30415E-004	-4.35200E-003	2.68507E-004
	207	207	4.99602E-002	-6.19597E-003	0.00000E+000	-3.09552E-004	-6.03453E-002	3.98913E-002	3.52591E+001	11	...........	6.64655E-002	-5.07153E-003	6.05473E-001	5.50093E-001	-2.67115E-002	-3.73062E-002	7.04557E-001	-4.34853E-002	-4.11818E-004	3.14230E-005	-3.75149E-003	-3.40836E-003	1.65504E-004	2.31148E-004	-4.36541E-003	2.69433E-004
	208	208	4.99590E-002	-6.09942E-003	0.00000E+000	-3.04721E-004	-5.93840E-002	3.96562E-002	3.48464E+001	11	...........	6.60608E-002	-5.13028E-003	6.05386E-001	5.50152E-001	-2.67279E-002	-3.73206E-002	7.04521E-001	-4.34037E-002	-4.02933E-004	3.12917E-005	-3.69250E-003	-3.35561E-003	1.63025E-004	2.27634E-004	-4.29717E-003	2.64738E-004
	209	209	4.99595E-002	-6.07808E-003	0.00000E+000	-3.03658E-004	-5.91700E-002	3.98564E-002	3.53710E+001	11	...........	6.64115E-002	-5.17181E-003	6.05250E-001	5.50397E-001	-2.67311E-002	-3.73393E-002	7.04448E-001	-4.34708E-002	-4.03655E-004	3.14347E-005	-3.67876E-003	-3.34536E-003	1.62474E-004	2.26951E-004	-4.28169E-003	2.64219E-004
	210	210	4.99583E-002	-6.03072E-003	0.00000E+000	-3.01285E-004	-5.86973E-002	3.97823E-002	3.55892E+001	11	...........	6.62832E-002	-5.12972E-003	6.05182E-001	5.50582E-001	-2.67571E-002	-3.73186E-002	7.04412E-001	-4.33728E-002	-3.99736E-004	3.09359E-005	-3.64969E-003	-3.32041E-003	1.61365E-004	2.25058E-004	-4.24811E-003	2.61569E-004
	211	211	4.99593E-002	-5.91771E-003	0.00000E+000	-2.95645E-004	-5.75720E-002	3.96466E-002	3.43755E+001	11	...........	6.60490E-002	-5.09458E-003	6.05180E-001	5.50538E-001	-2.67526E-002	-3.72946E-002	7.04478E-001	-4.35279E-002	-3.90859E-004	3.01483E-005	-3.58128E-003	-3.25793E-003	1.58314E-004	2.20699E-004	-4.16890E-003	2.57586E-004
	212	212	4.99608E-002	-5.91609E-003	0.00000E+000	-2.95573E-004	-5.75520E-002	3.98757E-002	3.54438E+001	11	...........	6.64401E-002	-5.05361E-003	6.05118E-001	5.50518E-001	-2.67485E-002	-3.72896E-002	7.04411E-001	-4.35875E-002	-3.93066E-004	2.98976E-005	-3.57993E-003	-3.25692E-003	1.58246E-004	2.20609E-004	-4.16736E-003	2.57868E-004
	213	213	4.99588E-002	-5.81872E-003	0.00000E+000	-2.90696E-004	-5.65887E-002	3.96259E-002	3.44236E+001	11	...........	6.60108E-002	-5.15986E-003	6.05110E-001	5.50682E-001	-2.67432E-002	-3.72842E-002	7.04526E-001	-4.34721E-002	-3.84098E-004	3.00238E-005	-3.52096E-003	-3.20426E-003	1.55611E-004	2.16946E-004	-4.09944E-003	2.52952E-004
	214	214	4.99589E-002	-5.80578E-003	0.00000E+000	-2.90051E-004	-5.64613E-002	3.99264E-002	3.54367E+001	11	...........	6.65169E-002	-5.18944E-003	6.05260E-001	5.50754E-001	-2.67453E-002	-3.72882E-002	7.04618E-001	-4.34235E-002	-3.86183E-004	3.01288E-005	-3.51401E-003	-3.19756E-003	1.55277E-004	2.16487E-004	-4.09086E-003	2.52107E-004
	215	215	4.99592E-002	-5.71867E-003	0.00000E+000	-2.85700E-004	-5.55967E-002	3.98021E-002	3.47951E+001	11	...........	6.63142E-002	-5.19083E-003	6.05241E-001	5.50682E-001	-2.67156E-002	-3.72942E-002	7.04632E-001	-4.34036E-002	-3.79229E-004	2.96847E-005	-3.46117E-003	-3.14917E-003	1.52777E-004	2.13273E-004	-4.02956E-003	2.48211E-004
	216	216	4.99592E-002	-5.62782E-003	0.00000E+000	-2.81162E-004	-5.46853E-002	3.96359E-002	3.44168E+001	11	...........	6.60190E-002	-5.12806E-003	6.05237E-001	5.50701E-001	-2.67149E-002	-3.72804E-002	7.04607E-001	-4.34032E-002	-3.71543E-004	2.88598E-005	-3.40617E-003	-3.09925E-003	1.50346E-004	2.09807E-004	-3.96540E-003	2.44265E-004
	217	217	4.99597E-002	-5.62018E-003	0.00000E+000	-2.80782E-004	-5.46120E-002	3.98877E-002	3.53299E+001	11	...........	6.64439E-002	-5.08639E-003	6.05076E-001	5.50708E-001	-2.66976E-002	-3.72711E-002	7.04616E-001	-4.35004E-002	-3.73426E-004	2.85864E-005	-3.40063E-003	-3.09508E-003	1.50045E-004	2.09470E-004	-3.96007E-003	2.44480E-004
	218	218	4.99596E-002	-5.59599E-003	0.00000E+000	-2.79574E-004	-5.43687E-002	3.98580E-002	3.54524E+001	11	...........	6.64157E-002	-5.13278E-003	6.04947E-001	5.50662E-001	-2.66847E-002	-3.72928E-002	7.04612E-001	-4.36081E-002	-3.71661E-004	2.87230E-005	-3.38528E-003	-3.08150E-003	1.49327E-004	2.08690E-004	-3.94300E-003	2.44030E-004
	219	219	4.99582E-002	-5.49360E-003	0.00000E+000	-2.74450E-004	-5.33487E-002	3.97092E-002	3.49827E+001	11	...........	6.61685E-002	-5.13569E-003	6.04863E-001	5.50877E-001	-2.66932E-002	-3.72979E-002	7.04505E-001	-4.35986E-002	-3.63503E-004	2.82134E-005	-3.32287E-003	-3.02630E-003	1.46642E-004	2.04900E-004	-3.87027E-003	2.39513E-004
	220	220	4.99590E-002	-5.44392E-003	0.00000E+000	-2.71973E-004	-5.28553E-002	3.98527E-002	3.42102E+001	11	...........	6.64121E-002	-5.11292E-003	6.04897E-001	5.50829E-001	-2.67056E-002	-3.73078E-002	7.04493E-001	-4.36742E-002	-3.61542E-004	2.78343E-005	-3.29301E-003	-2.99866E-003	1.45383E-004	2.03100E-004	-3.83520E-003	2.37758E-004
	221	221	4.99604E-002	-5.38141E-003	0.00000E+000	-2.68857E-004	-5.22340E-002	3.98018E-002	3.53471E+001	11	...........	6.63151E-002	-5.06042E-003	6.05032E-001	5.50766E-001	-2.66811E-002	-3.73161E-002	7.04626E-001	-4.35378E-002	-3.56869E-004	2.72322E-005	-3.25592E-003	-2.96389E-003	1.43582E-004	2.00813E-004	-3.79188E-003	2.34295E-004
	222	222	4.99598E-002	-5.38892E-003	0.00000E+000	-2.69230E-004	-5.23060E-002	3.98165E-002	3.56977E+001	11	...........	6.63372E-002	-5.04431E-003	6.05124E-001	5.50830E-001	-2.66853E-002	-3.73197E-002	7.04629E-001	-4.35049E-002	-3.57486E-004	2.71834E-005	-3.26096E-003	-2.96838E-003	1.43805E-004	2.01113E-004	-3.79719E-003	2.34444E-004
	223	223	4.99580E-002	-5.30732E-003	0.00000E+000	-2.65143E-004	-5.14987E-002	3.98251E-002	3.48052E+001	11	...........	6.63346E-002	-4.95653E-003	6.05043E-001	5.50769E-001	-2.67206E-002	-3.73340E-002	7.04524E-001	-4.34665E-002	-3.52059E-004	2.63059E-005	-3.21116E-003	-2.92311E-003	1.41815E-004	1.98144E-004	-3.73914E-003	2.30691E-004
	224	224	4.99606E-002	-5.26837E-003	0.00000E+000	-2.63211E-004	-5.11147E-002	3.98570E-002	3.56609E+001	11	...........	6.64204E-002	-5.03819E-003	6.04973E-001	5.50704E-001	-2.67260E-002	-3.73282E-002	7.04512E-001	-4.33965E-002	-3.49927E-004	2.65431E-005	-3.18722E-003	-2.90131E-003	1.40802E-004	1.96659E-004	-3.71163E-003	2.28629E-004
	225	225	4.99585E-002	-5.22084E-003	0.00000E+000	-2.60825E-004	-5.06500E-002	3.98620E-002	3.44166E+001	11	...........	6.64032E-002	-5.01375E-003	6.04928E-001	5.50692E-001	-2.67424E-002	-3.73185E-002	7.04585E-001	-4.34399E-002	-3.46681E-004	2.61760E-005	-3.15824E-003	-2.87508E-003	1.39618E-004	1.94834E-004	-3.67853E-003	2.26793E-004
	226	226	4.99598E-002	-5.10147E-003	0.00000E+000	-2.54868E-004	-4.94640E-002	3.97011E-002	3.46966E+001	11	...........	6.61407E-002	-5.02986E-003	6.04709E-001	5.50840E-001	-2.67656E-002	-3.72874E-002	7.04518E-001	-4.34744E-002	-3.37415E-004	2.56597E-005	-3.08490E-003	-2.81010E-003	1.36544E-004	1.90220E-004	-3.59408E-003	2.21784E-004
	227	227	4.99601E-002	-5.13312E-003	0.00000E+000	-2.56451E-004	-4.97793E-002	3.99282E-002	3.55618E+001	11	...........	6.65185E-002	-5.06569E-003	6.04698E-001	5.50843E-001	-2.67885E-002	-3.73150E-002	7.04453E-001	-4.32818E-002	-3.41447E-004	2.60028E-005	-3.10399E-003	-2.82754E-003	1.37508E-004	1.91542E-004	-3.61604E-003	2.22171E-004
	228	228	4.99591E-002	-5.10748E-003	0.00000E+000	-2.55165E-004	-4.95227E-002	3.98942E-002	3.49435E+001	11	...........	6.64649E-002	-5.08181E-003	6.04717E-001	5.51097E-001	-2.67751E-002	-3.73158E-002	7.04457E-001	-4.32607E-002	-3.39468E-004	2.59552E-005	-3.08858E-003	-2.81472E-003	1.36754E-004	1.90590E-004	-3.59800E-003	2.20953E-004
	229	228.088	4.99527E-002	-5.03900E-003	0.00000E+000	-2.51712E-004	-4.88415E-002	3.97764E-002	3.54604E+001	11	...........	6.63286E-002	-5.09434E-003	6.04687E-001	5.51247E-001	-2.67013E-002	-3.73349E-002	7.04530E-001	-4.32516E-002	-3.34230E-004	2.56704E-005	-3.04702E-003	-2.77773E-003	1.34548E-004	1.88131E-004	-3.55013E-003	2.17945E-004
STARTTIMEOFFSET	QUANT	709507.8	Start Time Offset (s)
