EXPLAIN
TAG	PWR800_DISCHARGE
TITLE	LABEL	PWR Discharge	Test Identifier
DATE	LABEL	10/18/2022	Date
TIME	LABEL	10:59:40	Time
NOTES	NOTES	1	Notes...
	
PSTAT	PSTAT	REF3000-21114	Potentiostat
CAPACITY	QUANT	5.30000E-002	Capacity (A-hr)
CELLTYPE	SELECTOR	1	Cell Type
WORKINGCONNECTION	SELECTOR	0	Working Connection
MAXDISCHARGETIME	VARIABLEANDUNITS	7.20000E+003	s	2.00000E+000	hour(s)	Max Discharge Time
DISCHARGEMODE	MULTIPARAM	0	1.00000E-001	Discharge Mode	Constant Current	Amp(s)
VOLTAGEFINISH	TWOPARAM	T	5.00000E-003	7.20000E+003	Voltage Finish	I (A) <	Max Time(s)
SAMPLETIME	QUANT	1.00000E+000	Sample Period (s)
DISCHARGESTOPAT1	MULTIPARAM	1	5.00000E-002	Stop At 1	|Voltage| < Limit	V
DISCHARGESTOPAT2	MULTIPARAM	0	0.00000E+000	Stop At 2	None	N/A
AESELECTOR	AESELECTOR	0x1	T	Set Limits	AE Channels
AESBHCSELECTOR	TOGGLE	F	Save Both Half Cells
IRCOMP	TOGGLE	F	IR Measure
EOC	QUANT	0.507376	Open Circuit (V)
SEQUENCER	TOGGLE	TRUE	Run as Sequence
PSTATMODEL	IQUANT	5	Pstat Model
PSTATSECTION	LABEL	REF3000-21114	Pstat Section
PSTATSERIALNO	LABEL	21114	Pstat Serial Number
CTRLMODE	IQUANT	0	Control Mode
ELECTROMETER	IQUANT	0	RE=0 or CS=1
IESTAB	IQUANT	0	I/E Stability
CASPEED	IQUANT	4	Control Amp Speed
CONVENTION	IQUANT	1	Current Convention
ICHRANGE	IQUANT	2	Ich Range
ICHRANGEMODE	TOGGLE	T	Ich Auto Range
ICHOFFSETENABLE	TOGGLE	F	Ich Offset Enable
ICHOFFSET	QUANT	0	Ich Offset (V)
ICHFILTER	IQUANT	1	Ich Filter
VCHRANGE	IQUANT	3	Vch Range
VCHRANGEMODE	TOGGLE	T	Vch Auto Range
VCHOFFSETENABLE	TOGGLE	F	Vch Offset Enable
VCHOFFSET	QUANT	0	Vch Offset (V)
VCHFILTER	IQUANT	1	Vch Filter
ACHRANGE	IQUANT	2	Ach Range
ACHOFFSETENABLE	TOGGLE	F	Ach Offset Enable
ACHOFFSET	QUANT	0	Ach Offset (V)
ACHFILTER	IQUANT	1	Ach Filter
IERANGELOWERLIMIT	IQUANT	9	I/E Range Lower Limit
IERANGEMODE	TOGGLE	F	I/E AutoRange
IERANGE	IQUANT	9	I/E Range
POSFEEDENABLE	TOGGLE	F	Positive Feedback IR Comp
POSFEEDRESISTANCE	QUANT	0	Positive Feedback Resistance (ohm)
ACHSELECT	IQUANT	1	Ach Select
SENSECABLEID	IQUANT	13	Sense Cable ID
PWRCABLEID	IQUANT	13	Power Cable ID
DCCALDATE	LABEL		DC Calibration Date
ACCALDATE	LABEL		AC Calibration Date
THERMOSELECT	IQUANT	1	Thermo Select
FRAMEWORKVERSION	LABEL	7.8.6	Framework Version
INSTRUMENTVERSION	LABEL	4.50	Instrument Version
COMPLIANCEVOLTAGE	IQUANT	0	Compliance Voltage
CURVE	TABLE	47
	Pt	T	Vf	Im	Vu	Pwr	Sig	Ach	Temp	IERange	Over	Vf1	Vf2	Vf3	Vf4	Vf5	Vf6	Vf7	Vf8	Pwr1	Pwr2	Pwr3	Pwr4	Pwr5	Pwr6	Pwr7	Pwr8
	#	s	V	A	V	W	V	V	deg C	#	bits	V	V	V	V	V	V	V	V	W	W	W	W	W	W	W	W
	0	1	2.62736E-001	-1.00084E-001	0.00000E+000	-2.62957E-002	-9.94000E-001	3.46842E-002	2.84698E+001	11	...........	5.76293E-002	-5.15944E-003	6.05847E-001	5.28775E-001	-2.68800E-002	-3.80424E-002	7.04968E-001	-4.39421E-002	-5.76777E-003	5.16378E-004	-6.06356E-002	-5.29219E-002	2.69026E-003	3.80743E-003	-7.05560E-002	4.39790E-003
	1	2	1.62928E-001	-1.00084E-001	0.00000E+000	-1.63066E-002	-9.94000E-001	3.46559E-002	2.79555E+001	11	...........	5.75843E-002	-5.23597E-003	6.05920E-001	5.28927E-001	-2.68611E-002	-3.80479E-002	7.04945E-001	-4.38354E-002	-5.76329E-003	5.24039E-004	-6.06432E-002	-5.29374E-002	2.68838E-003	3.80800E-003	-7.05540E-002	4.38724E-003
	2	2.795	8.30486E-002	-1.00084E-001	0.00000E+000	-8.31188E-003	-9.94000E-001	3.45759E-002	2.70401E+001	11	...........	5.74527E-002	-5.22065E-003	6.05989E-001	5.28933E-001	-2.68842E-002	-3.80321E-002	7.04870E-001	-4.38957E-002	-5.75012E-003	5.22506E-004	-6.06501E-002	-5.29380E-002	2.69069E-003	3.80643E-003	-7.05465E-002	4.39328E-003
	3	3	4.92173E-002	-9.42454E-002	0.00000E+000	-4.63850E-003	-9.35935E-001	3.46569E-002	2.66361E+001	11	...........	5.75942E-002	-5.23645E-003	6.05958E-001	5.28884E-001	-2.67453E-002	-3.80786E-002	7.04900E-001	-4.38455E-002	-5.42799E-003	4.93512E-004	-5.71088E-002	-4.98449E-002	2.52062E-003	3.58873E-003	-6.64336E-002	4.13224E-003
	4	4	4.95233E-002	-6.91238E-002	0.00000E+000	-3.42324E-003	-6.86171E-001	3.47693E-002	2.78303E+001	11	...........	5.77726E-002	-5.25028E-003	6.06062E-001	5.28860E-001	-2.68512E-002	-3.80449E-002	7.04947E-001	-4.38224E-002	-3.99346E-003	3.62919E-004	-4.18933E-002	-3.65568E-002	1.85606E-003	2.62980E-003	-4.87286E-002	3.02917E-003
	5	5	4.97605E-002	-4.61630E-002	0.00000E+000	-2.29710E-003	-4.57890E-001	3.49469E-002	2.92003E+001	11	...........	5.80743E-002	-5.26444E-003	6.06094E-001	5.29004E-001	-2.68365E-002	-3.80503E-002	7.04893E-001	-4.38296E-002	-2.68089E-003	2.43023E-004	-2.79791E-002	-2.44204E-002	1.23886E-003	1.75652E-003	-3.25400E-002	2.02331E-003
	6	6	4.98588E-002	-3.36556E-002	0.00000E+000	-1.67803E-003	-3.33537E-001	3.49831E-002	3.00220E+001	11	...........	5.80993E-002	-5.34264E-003	6.06110E-001	5.28924E-001	-2.68136E-002	-3.80475E-002	7.04968E-001	-4.38068E-002	-1.95537E-003	1.79810E-004	-2.03990E-002	-1.78012E-002	9.02428E-004	1.28051E-003	-2.37261E-002	1.47434E-003
	7	7	4.99067E-002	-2.59956E-002	0.00000E+000	-1.29735E-003	-2.57383E-001	3.50139E-002	3.04551E+001	11	...........	5.81736E-002	-5.36528E-003	6.06059E-001	5.28886E-001	-2.68176E-002	-3.80542E-002	7.04954E-001	-4.37526E-002	-1.51226E-003	1.39474E-004	-1.57549E-002	-1.37487E-002	6.97140E-004	9.89241E-004	-1.83257E-002	1.13738E-003
	8	8	4.99335E-002	-2.10623E-002	0.00000E+000	-1.05171E-003	-2.08325E-001	3.50078E-002	3.06941E+001	11	...........	5.81611E-002	-5.28917E-003	6.06058E-001	5.28946E-001	-2.68187E-002	-3.80833E-002	7.04902E-001	-4.37442E-002	-1.22500E-003	1.11402E-004	-1.27649E-002	-1.11408E-002	5.64863E-004	8.02121E-004	-1.48468E-002	9.21351E-004
	9	9	4.99530E-002	-1.77301E-002	0.00000E+000	-8.85673E-004	-1.75193E-001	3.50514E-002	3.06837E+001	11	...........	5.82367E-002	-5.28861E-003	6.06020E-001	5.29049E-001	-2.68168E-002	-3.81019E-002	7.05014E-001	-4.37781E-002	-1.03254E-003	9.37677E-005	-1.07448E-002	-9.38011E-003	4.75465E-004	6.75552E-004	-1.25000E-002	7.76190E-004
	10	10	4.99643E-002	-1.53871E-002	0.00000E+000	-7.68806E-004	-1.51888E-001	3.50758E-002	3.12133E+001	11	...........	5.82581E-002	-5.35111E-003	6.06017E-001	5.29130E-001	-2.68246E-002	-3.80904E-002	7.04866E-001	-4.38519E-002	-8.96423E-004	8.23382E-005	-9.32486E-003	-8.14179E-003	4.12753E-004	5.86102E-004	-1.08459E-002	6.74755E-004
	11	11	4.99704E-002	-1.36910E-002	0.00000E+000	-6.84147E-004	-1.35023E-001	3.50747E-002	3.14219E+001	11	...........	5.82685E-002	-5.27972E-003	6.06042E-001	5.29032E-001	-2.68310E-002	-3.80571E-002	7.04897E-001	-4.38525E-002	-7.97756E-004	7.22848E-005	-8.29734E-003	-7.24299E-003	3.67344E-004	5.21041E-004	-9.65077E-003	6.00386E-004
	12	12	4.99753E-002	-1.23773E-002	0.00000E+000	-6.18561E-004	-1.21957E-001	3.50733E-002	3.14885E+001	11	...........	5.82546E-002	-5.21639E-003	6.05999E-001	5.29204E-001	-2.68344E-002	-3.80335E-002	7.04851E-001	-4.38304E-002	-7.21036E-004	6.45650E-005	-7.50065E-003	-6.55013E-003	3.32139E-004	4.70753E-004	-8.72417E-003	5.42503E-004
	13	13	4.99782E-002	-1.13652E-002	0.00000E+000	-5.68012E-004	-1.11894E-001	3.51448E-002	3.12070E+001	11	...........	5.83807E-002	-5.26153E-003	6.05866E-001	5.29183E-001	-2.68340E-002	-3.80068E-002	7.04979E-001	-4.38676E-002	-6.63508E-004	5.97983E-005	-6.88579E-003	-6.01427E-003	3.04974E-004	4.31955E-004	-8.01223E-003	4.98564E-004
	14	14	4.99822E-002	-1.05932E-002	0.00000E+000	-5.29471E-004	-1.04218E-001	3.51506E-002	3.16793E+001	11	...........	5.83694E-002	-5.23889E-003	6.05710E-001	5.29243E-001	-2.68361E-002	-3.79903E-002	7.04992E-001	-4.38174E-002	-6.18319E-004	5.54966E-005	-6.41641E-003	-5.60638E-003	2.84280E-004	4.02438E-004	-7.46812E-003	4.64166E-004
	15	15	4.99831E-002	-9.95380E-003	0.00000E+000	-4.97522E-004	-9.78863E-002	3.50963E-002	3.18159E+001	11	...........	5.82926E-002	-5.23264E-003	6.05760E-001	5.29233E-001	-2.68094E-002	-3.79639E-002	7.05021E-001	-4.36982E-002	-5.80233E-004	5.20847E-005	-6.02962E-003	-5.26788E-003	2.66856E-004	3.77885E-004	-7.01765E-003	4.34963E-004
	16	16	4.99839E-002	-9.41888E-003	0.00000E+000	-4.70792E-004	-9.25563E-002	3.52218E-002	3.10494E+001	11	...........	5.85107E-002	-5.22639E-003	6.05808E-001	5.29193E-001	-2.68282E-002	-3.79925E-002	7.05019E-001	-4.36618E-002	-5.51105E-004	4.92267E-005	-5.70603E-003	-4.98440E-003	2.52691E-004	3.57847E-004	-6.64049E-003	4.11245E-004
	17	17	4.99867E-002	-9.00046E-003	0.00000E+000	-4.49904E-004	-8.84050E-002	3.51773E-002	3.15496E+001	11	...........	5.84157E-002	-5.20792E-003	6.05862E-001	5.29233E-001	-2.68579E-002	-3.79993E-002	7.05062E-001	-4.38289E-002	-5.25768E-004	4.68736E-005	-5.45304E-003	-4.76334E-003	2.41734E-004	3.42011E-004	-6.34588E-003	3.94480E-004
	18	18	4.99871E-002	-8.67841E-003	0.00000E+000	-4.33809E-004	-8.52060E-002	3.52215E-002	3.20064E+001	11	...........	5.85110E-002	-5.19819E-003	6.05965E-001	5.29225E-001	-2.68475E-002	-3.80019E-002	7.04995E-001	-4.38075E-002	-5.07782E-004	4.51121E-005	-5.25881E-003	-4.59283E-003	2.32994E-004	3.29797E-004	-6.11823E-003	3.80180E-004
	19	19	4.99861E-002	-8.33590E-003	0.00000E+000	-4.16679E-004	-8.17990E-002	3.51912E-002	3.18079E+001	11	...........	5.84594E-002	-5.22625E-003	6.05921E-001	5.29092E-001	-2.68436E-002	-3.79964E-002	7.05104E-001	-4.37628E-002	-4.87312E-004	4.35655E-005	-5.05090E-003	-4.41046E-003	2.23766E-004	3.16734E-004	-5.87768E-003	3.64802E-004
	20	20	4.99870E-002	-8.06554E-003	0.00000E+000	-4.03172E-004	-7.91013E-002	3.51597E-002	3.17706E+001	11	...........	5.85600E-002	-5.21444E-003	6.06217E-001	5.29087E-001	-2.68401E-002	-3.79887E-002	7.05212E-001	-4.38240E-002	-4.72318E-004	4.20573E-005	-4.88947E-003	-4.26737E-003	2.16480E-004	3.06400E-004	-5.68791E-003	3.53464E-004
	21	21	4.99894E-002	-7.84140E-003	0.00000E+000	-3.91987E-004	-7.68777E-002	3.50820E-002	3.25088E+001	11	...........	5.85407E-002	-5.17333E-003	6.06112E-001	5.29063E-001	-2.68367E-002	-3.79837E-002	7.05251E-001	-4.38233E-002	-4.59041E-004	4.05662E-005	-4.75277E-003	-4.14860E-003	2.10437E-004	2.97846E-004	-5.53016E-003	3.43636E-004
	22	22	4.99885E-002	-7.63937E-003	0.00000E+000	-3.81880E-004	-7.48713E-002	3.50676E-002	3.20443E+001	11	...........	5.85089E-002	-5.22639E-003	6.06077E-001	5.29186E-001	-2.68842E-002	-3.80024E-002	7.05163E-001	-4.38681E-002	-4.46971E-004	3.99263E-005	-4.63005E-003	-4.04265E-003	2.05378E-004	2.90314E-004	-5.38700E-003	3.35124E-004
	23	23	4.99882E-002	-7.43486E-003	0.00000E+000	-3.71655E-004	-7.28320E-002	3.50706E-002	3.24311E+001	11	...........	5.85144E-002	-5.17639E-003	6.05969E-001	5.29217E-001	-2.68924E-002	-3.79915E-002	7.05145E-001	-4.37838E-002	-4.35047E-004	3.84858E-005	-4.50530E-003	-3.93466E-003	1.99941E-004	2.82462E-004	-5.24266E-003	3.25526E-004
	24	24	4.99886E-002	-7.22852E-003	0.00000E+000	-3.61344E-004	-7.07767E-002	3.51225E-002	3.24025E+001	11	...........	5.86068E-002	-5.23556E-003	6.06100E-001	5.29343E-001	-2.69104E-002	-3.80106E-002	7.05010E-001	-4.37368E-002	-4.23641E-004	3.78453E-005	-4.38121E-003	-3.82637E-003	1.94523E-004	2.74760E-004	-5.09618E-003	3.16152E-004
	25	25	4.99891E-002	-7.04973E-003	0.00000E+000	-3.52410E-004	-6.89993E-002	3.50430E-002	3.15134E+001	11	...........	5.84725E-002	-5.33972E-003	6.06068E-001	5.29305E-001	-2.69021E-002	-3.80126E-002	7.05083E-001	-4.37878E-002	-4.12215E-004	3.76436E-005	-4.27262E-003	-3.73145E-003	1.89652E-004	2.67979E-004	-4.97064E-003	3.08692E-004
	26	26	4.99901E-002	-6.92916E-003	0.00000E+000	-3.46389E-004	-6.77967E-002	3.51917E-002	3.22892E+001	11	...........	5.87235E-002	-5.34833E-003	6.06023E-001	5.29236E-001	-2.69057E-002	-3.80244E-002	7.05159E-001	-4.38310E-002	-4.06904E-004	3.70595E-005	-4.19923E-003	-3.66717E-003	1.86434E-004	2.63478E-004	-4.88616E-003	3.03712E-004
	27	27	4.99891E-002	-6.80822E-003	0.00000E+000	-3.40337E-004	-6.65887E-002	3.51035E-002	3.25099E+001	11	...........	5.85740E-002	-5.34472E-003	6.05996E-001	5.29116E-001	-2.69271E-002	-3.80018E-002	7.05173E-001	-4.38467E-002	-3.98785E-004	3.63881E-005	-4.12575E-003	-3.60234E-003	1.83326E-004	2.58725E-004	-4.80098E-003	2.98518E-004
	28	28	4.99893E-002	-6.67046E-003	0.00000E+000	-3.33452E-004	-6.52120E-002	3.51458E-002	3.22854E+001	11	...........	5.86444E-002	-5.26222E-003	6.05986E-001	5.29188E-001	-2.69408E-002	-3.80217E-002	7.05168E-001	-4.37657E-002	-3.91186E-004	3.51015E-005	-4.04220E-003	-3.52993E-003	1.79708E-004	2.53622E-004	-4.70380E-003	2.91937E-004
	29	29	4.99890E-002	-6.55756E-003	0.00000E+000	-3.27805E-004	-6.40890E-002	3.52297E-002	3.27085E+001	11	...........	5.87928E-002	-5.19861E-003	6.05952E-001	5.29214E-001	-2.69343E-002	-3.80243E-002	7.05171E-001	-4.39110E-002	-3.85537E-004	3.40902E-005	-3.97356E-003	-3.47035E-003	1.76623E-004	2.49346E-004	-4.62420E-003	2.87949E-004
	30	30	4.99900E-002	-6.40897E-003	0.00000E+000	-3.20385E-004	-6.26347E-002	3.51288E-002	3.18964E+001	11	...........	5.86069E-002	-5.23736E-003	6.05886E-001	5.29252E-001	-2.69289E-002	-3.80242E-002	7.05151E-001	-4.39046E-002	-3.75610E-004	3.35661E-005	-3.88311E-003	-3.39196E-003	1.72586E-004	2.43696E-004	-4.51929E-003	2.81383E-004
	31	31	4.99900E-002	-6.28720E-003	0.00000E+000	-3.14297E-004	-6.14280E-002	3.50829E-002	3.17708E+001	11	...........	5.85321E-002	-5.31681E-003	6.05847E-001	5.29121E-001	-2.68999E-002	-3.80372E-002	7.05123E-001	-4.39168E-002	-3.68003E-004	3.34278E-005	-3.80908E-003	-3.32669E-003	1.69125E-004	2.39148E-004	-4.43325E-003	2.76114E-004
	32	32	4.99904E-002	-6.22900E-003	0.00000E+000	-3.11390E-004	-6.08437E-002	3.52963E-002	3.27149E+001	11	...........	5.89056E-002	-5.34542E-003	6.05839E-001	5.29059E-001	-2.68787E-002	-3.80215E-002	7.05100E-001	-4.38714E-002	-3.66922E-004	3.32966E-005	-3.77377E-003	-3.29551E-003	1.67428E-004	2.36836E-004	-4.39206E-003	2.73275E-004
	33	33	4.99896E-002	-6.11596E-003	0.00000E+000	-3.05734E-004	-5.97173E-002	3.52025E-002	3.27116E+001	11	...........	5.87421E-002	-5.26931E-003	6.05876E-001	5.29042E-001	-2.68692E-002	-3.80251E-002	7.05045E-001	-4.38551E-002	-3.59264E-004	3.22269E-005	-3.70551E-003	-3.23560E-003	1.64331E-004	2.32560E-004	-4.31203E-003	2.68216E-004
	34	34	4.99897E-002	-6.01108E-003	0.00000E+000	-3.00492E-004	-5.86737E-002	3.51931E-002	3.26311E+001	11	...........	5.87285E-002	-5.21042E-003	6.05930E-001	5.29074E-001	-2.68882E-002	-3.80393E-002	7.05193E-001	-4.39314E-002	-3.53022E-004	3.13202E-005	-3.64229E-003	-3.18030E-003	1.61627E-004	2.28657E-004	-4.23897E-003	2.64075E-004
	35	35	4.99902E-002	-5.94045E-003	0.00000E+000	-2.96964E-004	-5.79693E-002	3.52620E-002	3.27003E+001	11	...........	5.88446E-002	-5.20167E-003	6.05884E-001	5.29131E-001	-2.68643E-002	-3.80283E-002	7.05157E-001	-4.40424E-002	-3.49563E-004	3.09002E-005	-3.59922E-003	-3.14328E-003	1.59586E-004	2.25905E-004	-4.18895E-003	2.61631E-004
	36	36	4.99899E-002	-5.83019E-003	0.00000E+000	-2.91451E-004	-5.68703E-002	3.51703E-002	3.27133E+001	11	...........	5.86819E-002	-5.25333E-003	6.05693E-001	5.29281E-001	-2.68299E-002	-3.80186E-002	7.05114E-001	-4.39122E-002	-3.42127E-004	3.06279E-005	-3.53131E-003	-3.08581E-003	1.56423E-004	2.21656E-004	-4.11095E-003	2.56017E-004
	37	37	4.99895E-002	-5.71990E-003	0.00000E+000	-2.85935E-004	-5.57760E-002	3.51427E-002	3.17262E+001	11	...........	5.86285E-002	-5.25250E-003	6.05580E-001	5.29350E-001	-2.68332E-002	-3.80408E-002	7.05111E-001	-4.38674E-002	-3.35349E-004	3.00438E-005	-3.46386E-003	-3.02783E-003	1.53483E-004	2.17590E-004	-4.03317E-003	2.50917E-004
	38	38	4.99909E-002	-5.66050E-003	0.00000E+000	-2.82974E-004	-5.51853E-002	3.52561E-002	3.26819E+001	11	...........	5.88136E-002	-5.27306E-003	6.05667E-001	5.29174E-001	-2.68469E-002	-3.80500E-002	7.05248E-001	-4.38919E-002	-3.32914E-004	2.98481E-005	-3.42838E-003	-2.99539E-003	1.51967E-004	2.15382E-004	-3.99206E-003	2.48450E-004
	39	39	4.99895E-002	-5.58552E-003	0.00000E+000	-2.79218E-004	-5.44310E-002	3.52971E-002	3.30293E+001	11	...........	5.89060E-002	-5.23028E-003	6.05868E-001	5.28941E-001	-2.68347E-002	-3.80539E-002	7.05310E-001	-4.37951E-002	-3.29020E-004	2.92138E-005	-3.38409E-003	-2.95441E-003	1.49886E-004	2.12551E-004	-3.93952E-003	2.44619E-004
	40	40	4.99897E-002	-5.50464E-003	0.00000E+000	-2.75175E-004	-5.36280E-002	3.52803E-002	3.25525E+001	11	...........	5.88586E-002	-5.20972E-003	6.06001E-001	5.28859E-001	-2.68251E-002	-3.80546E-002	7.05276E-001	-4.37344E-002	-3.23995E-004	2.86776E-005	-3.33581E-003	-2.91118E-003	1.47663E-004	2.09477E-004	-3.88229E-003	2.40742E-004
	41	41	4.99905E-002	-5.42144E-003	0.00000E+000	-2.71021E-004	-5.28003E-002	3.52432E-002	3.30810E+001	11	...........	5.88090E-002	-5.24514E-003	6.05866E-001	5.28929E-001	-2.68246E-002	-3.80564E-002	7.05254E-001	-4.37611E-002	-3.18830E-004	2.84362E-005	-3.28467E-003	-2.86756E-003	1.45428E-004	2.06321E-004	-3.82349E-003	2.37248E-004
	42	42	4.99887E-002	-5.33070E-003	0.00000E+000	-2.66475E-004	-5.18993E-002	3.52762E-002	3.18739E+001	11	...........	5.88751E-002	-5.25194E-003	6.06043E-001	5.28912E-001	-2.68115E-002	-3.80785E-002	7.05229E-001	-4.38861E-002	-3.13846E-004	2.79965E-005	-3.23064E-003	-2.81947E-003	1.42924E-004	2.02985E-004	-3.75936E-003	2.33944E-004
	43	43	4.99897E-002	-5.19967E-003	0.00000E+000	-2.59930E-004	-5.06047E-002	3.52336E-002	3.09969E+001	11	...........	5.87972E-002	-5.24389E-003	6.06028E-001	5.28769E-001	-2.68200E-002	-3.80690E-002	7.05193E-001	-4.38269E-002	-3.05726E-004	2.72665E-005	-3.15114E-003	-2.74942E-003	1.39455E-004	1.97946E-004	-3.66677E-003	2.27886E-004
	44	44	4.99927E-002	-5.16764E-003	0.00000E+000	-2.58344E-004	-5.02897E-002	3.52071E-002	3.19532E+001	11	...........	5.87437E-002	-5.31833E-003	6.06076E-001	5.28804E-001	-2.68157E-002	-3.80697E-002	7.05226E-001	-4.39864E-002	-3.03566E-004	2.74832E-005	-3.13198E-003	-2.73267E-003	1.38574E-004	1.96730E-004	-3.64435E-003	2.27306E-004
	45	45	4.99900E-002	-5.12179E-003	0.00000E+000	-2.56038E-004	-4.98397E-002	3.53216E-002	3.22675E+001	11	...........	5.90450E-002	-5.29125E-003	6.06153E-001	5.28903E-001	-2.68246E-002	-3.80554E-002	7.05330E-001	-4.39189E-002	-3.02416E-004	2.71007E-005	-3.10459E-003	-2.70893E-003	1.37390E-004	1.94912E-004	-3.61255E-003	2.24943E-004
	46	45.2833	4.99875E-002	-5.06741E-003	0.00000E+000	-2.53307E-004	-4.93012E-002	3.53679E-002	3.21046E+001	11	...........	5.90142E-002	-5.24657E-003	6.06140E-001	5.28890E-001	-2.68368E-002	-3.80490E-002	7.05386E-001	-4.38647E-002	-2.99049E-004	2.65865E-005	-3.07156E-003	-2.68010E-003	1.35993E-004	1.92810E-004	-3.57448E-003	2.22280E-004
STARTTIMEOFFSET	QUANT	1003658	Start Time Offset (s)
