EXPLAIN
TAG	PWR800_DISCHARGE
TITLE	LABEL	PWR Discharge	Test Identifier
DATE	LABEL	10/15/2022	Date
TIME	LABEL	17:42:12	Time
NOTES	NOTES	1	Notes...
	
PSTAT	PSTAT	REF3000-21114	Potentiostat
CAPACITY	QUANT	5.30000E-002	Capacity (A-hr)
CELLTYPE	SELECTOR	1	Cell Type
WORKINGCONNECTION	SELECTOR	0	Working Connection
MAXDISCHARGETIME	VARIABLEANDUNITS	7.20000E+003	s	2.00000E+000	hour(s)	Max Discharge Time
DISCHARGEMODE	MULTIPARAM	0	1.00000E-001	Discharge Mode	Constant Current	Amp(s)
VOLTAGEFINISH	TWOPARAM	T	5.00000E-003	7.20000E+003	Voltage Finish	I (A) <	Max Time(s)
SAMPLETIME	QUANT	1.00000E+000	Sample Period (s)
DISCHARGESTOPAT1	MULTIPARAM	1	5.00000E-002	Stop At 1	|Voltage| < Limit	V
DISCHARGESTOPAT2	MULTIPARAM	0	0.00000E+000	Stop At 2	None	N/A
AESELECTOR	AESELECTOR	0x1	T	Set Limits	AE Channels
AESBHCSELECTOR	TOGGLE	F	Save Both Half Cells
IRCOMP	TOGGLE	F	IR Measure
EOC	QUANT	0.5575787	Open Circuit (V)
SEQUENCER	TOGGLE	TRUE	Run as Sequence
PSTATMODEL	IQUANT	5	Pstat Model
PSTATSECTION	LABEL	REF3000-21114	Pstat Section
PSTATSERIALNO	LABEL	21114	Pstat Serial Number
CTRLMODE	IQUANT	0	Control Mode
ELECTROMETER	IQUANT	0	RE=0 or CS=1
IESTAB	IQUANT	0	I/E Stability
CASPEED	IQUANT	4	Control Amp Speed
CONVENTION	IQUANT	1	Current Convention
ICHRANGE	IQUANT	2	Ich Range
ICHRANGEMODE	TOGGLE	T	Ich Auto Range
ICHOFFSETENABLE	TOGGLE	F	Ich Offset Enable
ICHOFFSET	QUANT	0	Ich Offset (V)
ICHFILTER	IQUANT	1	Ich Filter
VCHRANGE	IQUANT	3	Vch Range
VCHRANGEMODE	TOGGLE	T	Vch Auto Range
VCHOFFSETENABLE	TOGGLE	F	Vch Offset Enable
VCHOFFSET	QUANT	0	Vch Offset (V)
VCHFILTER	IQUANT	1	Vch Filter
ACHRANGE	IQUANT	2	Ach Range
ACHOFFSETENABLE	TOGGLE	F	Ach Offset Enable
ACHOFFSET	QUANT	0	Ach Offset (V)
ACHFILTER	IQUANT	1	Ach Filter
IERANGELOWERLIMIT	IQUANT	9	I/E Range Lower Limit
IERANGEMODE	TOGGLE	F	I/E AutoRange
IERANGE	IQUANT	9	I/E Range
POSFEEDENABLE	TOGGLE	F	Positive Feedback IR Comp
POSFEEDRESISTANCE	QUANT	0	Positive Feedback Resistance (ohm)
ACHSELECT	IQUANT	1	Ach Select
SENSECABLEID	IQUANT	13	Sense Cable ID
PWRCABLEID	IQUANT	13	Power Cable ID
DCCALDATE	LABEL		DC Calibration Date
ACCALDATE	LABEL		AC Calibration Date
THERMOSELECT	IQUANT	1	Thermo Select
FRAMEWORKVERSION	LABEL	7.8.6	Framework Version
INSTRUMENTVERSION	LABEL	4.50	Instrument Version
COMPLIANCEVOLTAGE	IQUANT	0	Compliance Voltage
CURVE	TABLE	164
	Pt	T	Vf	Im	Vu	Pwr	Sig	Ach	Temp	IERange	Over	Vf1	Vf2	Vf3	Vf4	Vf5	Vf6	Vf7	Vf8	Pwr1	Pwr2	Pwr3	Pwr4	Pwr5	Pwr6	Pwr7	Pwr8
	#	s	V	A	V	W	V	V	deg C	#	bits	V	V	V	V	V	V	V	V	W	W	W	W	W	W	W	W
	0	1	3.20492E-001	-1.00083E-001	0.00000E+000	-3.20757E-002	-9.94000E-001	3.57740E-002	3.03334E+001	11	...........	5.94306E-002	-3.50389E-003	5.63983E-001	6.61018E-001	-2.95112E-002	-3.87011E-002	6.36731E-001	-4.24918E-002	-5.94797E-003	3.50679E-004	-5.64449E-002	-6.61565E-002	2.95357E-003	3.87331E-003	-6.37258E-002	4.25270E-003
	1	2	2.27882E-001	-1.00083E-001	0.00000E+000	-2.28072E-002	-9.94000E-001	3.57711E-002	2.92022E+001	11	...........	5.94996E-002	-3.58111E-003	5.64072E-001	6.60916E-001	-2.94937E-002	-3.86829E-002	6.36734E-001	-4.26387E-002	-5.95492E-003	3.58410E-004	-5.64543E-002	-6.61467E-002	2.95183E-003	3.87152E-003	-6.37265E-002	4.26743E-003
	2	3	1.51157E-001	-1.00084E-001	0.00000E+000	-1.51284E-002	-9.94000E-001	3.56628E-002	2.85400E+001	11	...........	5.92849E-002	-3.64111E-003	5.63950E-001	6.60686E-001	-2.94947E-002	-3.86964E-002	6.36634E-001	-4.24883E-002	-5.93345E-003	3.64416E-004	-5.64422E-002	-6.61239E-002	2.95194E-003	3.87288E-003	-6.37167E-002	4.25239E-003
	3	4	8.46688E-002	-1.00084E-001	0.00000E+000	-8.47397E-003	-9.94000E-001	3.56638E-002	2.81428E+001	11	...........	5.92532E-002	-3.65194E-003	5.63940E-001	6.60653E-001	-2.94904E-002	-3.86425E-002	6.36554E-001	-4.24410E-002	-5.93028E-003	3.65500E-004	-5.64412E-002	-6.61206E-002	2.95151E-003	3.86749E-003	-6.37087E-002	4.24765E-003
	4	4.07167	5.21185E-002	-1.00083E-001	0.00000E+000	-5.21618E-003	-9.94000E-001	3.56709E-002	2.79000E+001	11	...........	5.93469E-002	-3.73062E-003	5.63967E-001	6.60738E-001	-2.97287E-002	-3.85930E-002	6.36624E-001	-4.24341E-002	-5.93963E-003	3.73372E-004	-5.64436E-002	-6.61288E-002	2.97534E-003	3.86251E-003	-6.37153E-002	4.24694E-003
	5	5	4.95436E-002	-8.34421E-002	0.00000E+000	-4.13402E-003	-8.28536E-001	3.56998E-002	2.82759E+001	11	...........	5.96152E-002	-3.57466E-003	5.64092E-001	6.60686E-001	-2.94499E-002	-3.86815E-002	6.36634E-001	-4.24191E-002	-4.97441E-003	2.98277E-004	-4.70690E-002	-5.51290E-002	2.45736E-003	3.22766E-003	-5.31220E-002	3.53953E-003
	6	6	4.97867E-002	-6.20776E-002	0.00000E+000	-3.09064E-003	-6.16118E-001	3.59115E-002	2.92902E+001	11	...........	5.96814E-002	-3.66111E-003	5.64237E-001	6.60692E-001	-2.94793E-002	-3.86518E-002	6.36641E-001	-4.24644E-002	-3.70488E-003	2.27273E-004	-3.50265E-002	-4.10142E-002	1.83000E-003	2.39941E-003	-3.95211E-002	2.63609E-003
	7	7	4.98460E-002	-5.11706E-002	0.00000E+000	-2.55065E-003	-5.07672E-001	3.58383E-002	2.94505E+001	11	...........	5.95703E-002	-3.69264E-003	5.64243E-001	6.60667E-001	-2.95056E-002	-3.86336E-002	6.36696E-001	-4.25029E-002	-3.04825E-003	1.88954E-004	-2.88726E-002	-3.38067E-002	1.50982E-003	1.97690E-003	-3.25801E-002	2.17490E-003
	8	8	4.99025E-002	-4.46525E-002	0.00000E+000	-2.22827E-003	-4.42861E-001	3.61051E-002	3.04886E+001	11	...........	5.99744E-002	-3.70208E-003	5.64262E-001	6.60520E-001	-2.95192E-002	-3.86412E-002	6.36748E-001	-4.24819E-002	-2.67801E-003	1.65307E-004	-2.51957E-002	-2.94939E-002	1.31810E-003	1.72543E-003	-2.84324E-002	1.89693E-003
	9	9	4.99203E-002	-4.01807E-002	0.00000E+000	-2.00583E-003	-3.98413E-001	3.60822E-002	3.09374E+001	11	...........	5.99367E-002	-3.58458E-003	5.64331E-001	6.60429E-001	-2.95319E-002	-3.86664E-002	6.36666E-001	-4.27356E-002	-2.40830E-003	1.44031E-004	-2.26752E-002	-2.65365E-002	1.18661E-003	1.55364E-003	-2.55817E-002	1.71714E-003
	10	10	4.99313E-002	-3.68870E-002	0.00000E+000	-1.84182E-003	-3.65664E-001	3.60883E-002	3.08679E+001	11	...........	5.99494E-002	-3.66333E-003	5.64352E-001	6.60447E-001	-2.95535E-002	-3.86715E-002	6.36631E-001	-4.25679E-002	-2.21136E-003	1.35130E-004	-2.08173E-002	-2.43619E-002	1.09014E-003	1.42648E-003	-2.34834E-002	1.57020E-003
	11	11	4.99433E-002	-3.47190E-002	0.00000E+000	-1.73398E-003	-3.44086E-001	3.61753E-002	3.13981E+001	11	...........	6.00636E-002	-3.65583E-003	5.64308E-001	6.60586E-001	-2.95364E-002	-3.86857E-002	6.36708E-001	-4.26153E-002	-2.08535E-003	1.26927E-004	-1.95922E-002	-2.29349E-002	1.02547E-003	1.34313E-003	-2.21059E-002	1.47956E-003
	12	12	4.99346E-002	-3.31781E-002	0.00000E+000	-1.65674E-003	-3.28774E-001	3.62822E-002	3.13607E+001	11	...........	6.02628E-002	-3.71111E-003	5.64426E-001	6.60669E-001	-2.95625E-002	-3.87006E-002	6.36791E-001	-4.25496E-002	-1.99941E-003	1.23128E-004	-1.87266E-002	-2.19198E-002	9.80829E-004	1.28401E-003	-2.11275E-002	1.41172E-003
	13	13	4.99598E-002	-3.13339E-002	0.00000E+000	-1.56543E-003	-3.10442E-001	3.61587E-002	3.10595E+001	11	...........	6.00400E-002	-3.64903E-003	5.64532E-001	6.60564E-001	-2.95618E-002	-3.87144E-002	6.36732E-001	-4.25512E-002	-1.88129E-003	1.14338E-004	-1.76890E-002	-2.06980E-002	9.26286E-004	1.21307E-003	-1.99513E-002	1.33330E-003
	14	14	4.99594E-002	-3.06363E-002	0.00000E+000	-1.53057E-003	-3.03529E-001	3.63366E-002	3.18501E+001	11	...........	6.03574E-002	-3.53361E-003	5.64852E-001	6.60648E-001	-2.95531E-002	-3.87617E-002	6.36618E-001	-4.24653E-002	-1.84912E-003	1.08257E-004	-1.73050E-002	-2.02398E-002	9.05395E-004	1.18751E-003	-1.95036E-002	1.30098E-003
	15	15	4.99555E-002	-2.96986E-002	0.00000E+000	-1.48361E-003	-2.94197E-001	3.63008E-002	3.17097E+001	11	...........	6.03160E-002	-3.58264E-003	5.64863E-001	6.60822E-001	-2.95244E-002	-3.87996E-002	6.36593E-001	-4.24361E-002	-1.79130E-003	1.06399E-004	-1.67756E-002	-1.96255E-002	8.76835E-004	1.15229E-003	-1.89059E-002	1.26029E-003
	16	16	4.99515E-002	-2.84273E-002	0.00000E+000	-1.41999E-003	-2.81562E-001	3.63507E-002	3.18952E+001	11	...........	6.03782E-002	-3.60778E-003	5.64881E-001	6.60724E-001	-2.95000E-002	-3.88056E-002	6.36635E-001	-4.24867E-002	-1.71639E-003	1.02559E-004	-1.60580E-002	-1.87826E-002	8.38605E-004	1.10314E-003	-1.80978E-002	1.20778E-003
	17	17	4.99542E-002	-2.76650E-002	0.00000E+000	-1.38198E-003	-2.73981E-001	3.63202E-002	3.03256E+001	11	...........	6.03474E-002	-3.58486E-003	5.64938E-001	6.60550E-001	-2.95006E-002	-3.87479E-002	6.36657E-001	-4.24286E-002	-1.66951E-003	9.91753E-005	-1.56290E-002	-1.82741E-002	8.16134E-004	1.07196E-003	-1.76131E-002	1.17379E-003
	18	18	4.99727E-002	-2.72889E-002	0.00000E+000	-1.36370E-003	-2.70221E-001	3.64674E-002	3.13409E+001	11	...........	6.05608E-002	-3.58028E-003	5.64915E-001	6.60474E-001	-2.95140E-002	-3.87800E-002	6.36735E-001	-4.24040E-002	-1.65264E-003	9.77018E-005	-1.54159E-002	-1.80236E-002	8.05405E-004	1.05826E-003	-1.73758E-002	1.15716E-003
	19	19	4.99571E-002	-2.70632E-002	0.00000E+000	-1.35200E-003	-2.67990E-001	3.64650E-002	3.17458E+001	11	...........	6.05889E-002	-3.53264E-003	5.64984E-001	6.60392E-001	-2.95272E-002	-3.88101E-002	6.36663E-001	-4.24815E-002	-1.63973E-003	9.56044E-005	-1.52903E-002	-1.78723E-002	7.99100E-004	1.05033E-003	-1.72301E-002	1.14968E-003
	20	20	4.99577E-002	-2.62484E-002	0.00000E+000	-1.31131E-003	-2.59883E-001	3.64320E-002	3.17759E+001	11	...........	6.06981E-002	-3.62403E-003	5.64968E-001	6.60472E-001	-2.95283E-002	-3.87608E-002	6.36728E-001	-4.26378E-002	-1.59323E-003	9.51249E-005	-1.48295E-002	-1.73363E-002	7.75071E-004	1.01741E-003	-1.67131E-002	1.11917E-003
	21	21	4.99645E-002	-2.58743E-002	0.00000E+000	-1.29280E-003	-2.56161E-001	3.63872E-002	3.21430E+001	11	...........	6.07271E-002	-3.55292E-003	5.64757E-001	6.60491E-001	-2.95247E-002	-3.87217E-002	6.36880E-001	-4.25718E-002	-1.57127E-003	9.19291E-005	-1.46127E-002	-1.70897E-002	7.63930E-004	1.00189E-003	-1.64788E-002	1.10151E-003
	22	22	4.99550E-002	-2.53056E-002	0.00000E+000	-1.26414E-003	-2.50513E-001	3.64196E-002	3.15127E+001	11	...........	6.07822E-002	-3.37403E-003	5.64692E-001	6.60403E-001	-2.95249E-002	-3.87128E-002	6.36841E-001	-4.25375E-002	-1.53813E-003	8.53817E-005	-1.42899E-002	-1.67119E-002	7.47144E-004	9.79650E-004	-1.61156E-002	1.07644E-003
	23	23	4.99654E-002	-2.47707E-002	0.00000E+000	-1.23768E-003	-2.45176E-001	3.63274E-002	3.14952E+001	11	...........	6.06424E-002	-3.48125E-003	5.64505E-001	6.60624E-001	-2.95519E-002	-3.87121E-002	6.36757E-001	-4.26294E-002	-1.50215E-003	8.62329E-005	-1.39832E-002	-1.63641E-002	7.32022E-004	9.58925E-004	-1.57729E-002	1.05596E-003
	24	24	4.99664E-002	-2.46984E-002	0.00000E+000	-1.23409E-003	-2.44451E-001	3.64895E-002	3.22368E+001	11	...........	6.08892E-002	-3.65847E-003	5.64408E-001	6.60622E-001	-2.95782E-002	-3.87208E-002	6.36783E-001	-4.27040E-002	-1.50387E-003	9.03585E-005	-1.39400E-002	-1.63163E-002	7.30535E-004	9.56343E-004	-1.57275E-002	1.05472E-003
	25	25	4.99610E-002	-2.43073E-002	0.00000E+000	-1.21442E-003	-2.40575E-001	3.64163E-002	3.20452E+001	11	...........	6.07760E-002	-3.62944E-003	5.64377E-001	6.60779E-001	-2.95533E-002	-3.87147E-002	6.36820E-001	-4.25526E-002	-1.47730E-003	8.82219E-005	-1.37185E-002	-1.60618E-002	7.18361E-004	9.41050E-004	-1.54794E-002	1.03434E-003
	26	26	4.99580E-002	-2.36567E-002	0.00000E+000	-1.18184E-003	-2.34110E-001	3.64545E-002	3.20577E+001	11	...........	6.08199E-002	-3.53375E-003	5.64328E-001	6.60682E-001	-2.95399E-002	-3.87296E-002	6.36722E-001	-4.25618E-002	-1.43880E-003	8.35970E-005	-1.33502E-002	-1.56296E-002	6.98817E-004	9.16215E-004	-1.50628E-002	1.00687E-003
	27	27	4.99658E-002	-2.32883E-002	0.00000E+000	-1.16362E-003	-2.30457E-001	3.63914E-002	3.17037E+001	11	...........	6.07496E-002	-3.45069E-003	5.64416E-001	6.60595E-001	-2.95485E-002	-3.87414E-002	6.36607E-001	-4.25778E-002	-1.41476E-003	8.03610E-005	-1.31443E-002	-1.53842E-002	6.88135E-004	9.02223E-004	-1.48255E-002	9.91566E-004
	28	28	4.99670E-002	-2.33370E-002	0.00000E+000	-1.16608E-003	-2.30937E-001	3.65907E-002	3.21540E+001	11	...........	6.10507E-002	-3.58694E-003	5.64351E-001	6.60431E-001	-2.95675E-002	-3.87543E-002	6.36685E-001	-4.25040E-002	-1.42474E-003	8.37085E-005	-1.31703E-002	-1.54125E-002	6.90017E-004	9.04409E-004	-1.48583E-002	9.91917E-004
	29	29	4.99611E-002	-2.28638E-002	0.00000E+000	-1.14230E-003	-2.26237E-001	3.64797E-002	3.23930E+001	11	...........	6.08760E-002	-3.54403E-003	5.64403E-001	6.60437E-001	-2.95221E-002	-3.87787E-002	6.36721E-001	-4.25543E-002	-1.39185E-003	8.10298E-005	-1.29044E-002	-1.51001E-002	6.74986E-004	8.86628E-004	-1.45578E-002	9.72951E-004
	30	30	4.99628E-002	-2.25798E-002	0.00000E+000	-1.12815E-003	-2.23408E-001	3.65031E-002	3.25324E+001	11	...........	6.08912E-002	-3.47361E-003	5.64358E-001	6.60271E-001	-2.95046E-002	-3.87504E-002	6.36654E-001	-4.25939E-002	-1.37491E-003	7.84333E-005	-1.27431E-002	-1.49088E-002	6.66206E-004	8.74975E-004	-1.43755E-002	9.61759E-004
	31	31	4.99625E-002	-2.22702E-002	0.00000E+000	-1.11268E-003	-2.20318E-001	3.66374E-002	3.21392E+001	11	...........	6.11160E-002	-3.57083E-003	5.64396E-001	6.60454E-001	-2.95121E-002	-3.87325E-002	6.36610E-001	-4.26147E-002	-1.36107E-003	7.95233E-005	-1.25692E-002	-1.47085E-002	6.57241E-004	8.62581E-004	-1.41775E-002	9.49039E-004
	32	32	4.99645E-002	-2.17083E-002	0.00000E+000	-1.08464E-003	-2.14743E-001	3.64771E-002	3.24046E+001	11	...........	6.08900E-002	-3.62847E-003	5.64371E-001	6.60634E-001	-2.95257E-002	-3.87054E-002	6.36708E-001	-4.27269E-002	-1.32182E-003	7.87678E-005	-1.22515E-002	-1.43412E-002	6.40951E-004	8.40227E-004	-1.38218E-002	9.27528E-004
	33	33	4.99633E-002	-2.16661E-002	0.00000E+000	-1.08251E-003	-2.14323E-001	3.65789E-002	3.25634E+001	11	...........	6.10462E-002	-3.62375E-003	5.64544E-001	6.60536E-001	-2.95329E-002	-3.86900E-002	6.36792E-001	-4.26940E-002	-1.32263E-003	7.85124E-005	-1.22314E-002	-1.43112E-002	6.39862E-004	8.38260E-004	-1.37968E-002	9.25011E-004
	34	34	4.99633E-002	-2.13699E-002	0.00000E+000	-1.06771E-003	-2.11372E-001	3.66018E-002	3.24207E+001	11	...........	6.10958E-002	-3.64681E-003	5.64600E-001	6.60475E-001	-2.94842E-002	-3.86775E-002	6.36771E-001	-4.27625E-002	-1.30561E-003	7.79319E-005	-1.20655E-002	-1.41143E-002	6.30074E-004	8.26534E-004	-1.36077E-002	9.13830E-004
	35	35	4.99630E-002	-2.09991E-002	0.00000E+000	-1.04918E-003	-2.07681E-001	3.66307E-002	3.24699E+001	11	...........	6.11421E-002	-3.67472E-003	5.64621E-001	6.60345E-001	-2.94967E-002	-3.86911E-002	6.36822E-001	-4.26124E-002	-1.28393E-003	7.71659E-005	-1.18565E-002	-1.38666E-002	6.19404E-004	8.12479E-004	-1.33727E-002	8.94821E-004
	36	36	4.99622E-002	-2.05080E-002	0.00000E+000	-1.02463E-003	-2.02813E-001	3.65152E-002	3.18974E+001	11	...........	6.09329E-002	-3.65208E-003	5.64593E-001	6.60257E-001	-2.95532E-002	-3.87210E-002	6.36771E-001	-4.27003E-002	-1.24961E-003	7.48970E-005	-1.15787E-002	-1.35406E-002	6.06077E-004	7.94090E-004	-1.30589E-002	8.75698E-004
	37	37	4.99682E-002	-2.04016E-002	0.00000E+000	-1.01943E-003	-2.01761E-001	3.66453E-002	3.26758E+001	11	...........	6.11500E-002	-3.42097E-003	5.64639E-001	6.60259E-001	-2.95257E-002	-3.87619E-002	6.36779E-001	-4.28068E-002	-1.24756E-003	6.97932E-005	-1.15195E-002	-1.34703E-002	6.02371E-004	7.90805E-004	-1.29913E-002	8.73326E-004
	38	38	4.99594E-002	-2.02214E-002	0.00000E+000	-1.01025E-003	-1.99966E-001	3.66664E-002	3.25292E+001	11	...........	6.11776E-002	-3.56333E-003	5.64680E-001	6.60361E-001	-2.94746E-002	-3.87215E-002	6.36685E-001	-4.26258E-002	-1.23710E-003	7.20557E-005	-1.14186E-002	-1.33534E-002	5.96019E-004	7.83005E-004	-1.28747E-002	8.61956E-004
	39	39	4.99647E-002	-1.98769E-002	0.00000E+000	-9.93142E-004	-1.96528E-001	3.67397E-002	3.27300E+001	11	...........	6.12889E-002	-3.51111E-003	5.64618E-001	6.60313E-001	-2.95057E-002	-3.86775E-002	6.36773E-001	-4.25685E-002	-1.21823E-003	6.97899E-005	-1.12228E-002	-1.31250E-002	5.86480E-004	7.68787E-004	-1.26571E-002	8.46127E-004
	40	40	4.99637E-002	-1.95954E-002	0.00000E+000	-9.79057E-004	-1.93718E-001	3.66868E-002	3.27838E+001	11	...........	6.12083E-002	-3.61292E-003	5.64628E-001	6.60188E-001	-2.95151E-002	-3.86999E-002	6.36808E-001	-4.26232E-002	-1.19940E-003	7.07964E-005	-1.10641E-002	-1.29366E-002	5.78360E-004	7.58338E-004	-1.24785E-002	8.35217E-004
	41	41	4.99613E-002	-1.91826E-002	0.00000E+000	-9.58389E-004	-1.89628E-001	3.65962E-002	3.21116E+001	11	...........	6.10726E-002	-3.67625E-003	5.64624E-001	6.59980E-001	-2.95251E-002	-3.86917E-002	6.36762E-001	-4.26969E-002	-1.17153E-003	7.05202E-005	-1.08310E-002	-1.26601E-002	5.66370E-004	7.42208E-004	-1.22148E-002	8.19040E-004
	42	42	4.99711E-002	-1.91230E-002	0.00000E+000	-9.55595E-004	-1.89043E-001	3.67595E-002	3.29317E+001	11	...........	6.13264E-002	-3.74514E-003	5.64642E-001	6.60137E-001	-2.94922E-002	-3.86647E-002	6.36857E-001	-4.25397E-002	-1.17274E-003	7.16181E-005	-1.07976E-002	-1.26238E-002	5.63978E-004	7.39384E-004	-1.21786E-002	8.13485E-004
	43	43	4.99622E-002	-1.89236E-002	0.00000E+000	-9.45467E-004	-1.87057E-001	3.67255E-002	3.29159E+001	11	...........	6.12774E-002	-3.67806E-003	5.64553E-001	6.59958E-001	-2.95215E-002	-3.86867E-002	6.36823E-001	-4.25300E-002	-1.15959E-003	6.96022E-005	-1.06834E-002	-1.24888E-002	5.58655E-004	7.32093E-004	-1.20510E-002	8.04823E-004
	44	44	4.99635E-002	-1.85534E-002	0.00000E+000	-9.26992E-004	-1.83368E-001	3.67996E-002	3.29165E+001	11	...........	6.13983E-002	-3.64764E-003	5.64661E-001	6.59948E-001	-2.95451E-002	-3.86783E-002	6.36820E-001	-4.24922E-002	-1.13915E-003	6.76760E-005	-1.04764E-002	-1.22443E-002	5.48162E-004	7.17614E-004	-1.18152E-002	7.88374E-004
	45	45	4.99644E-002	-1.82420E-002	0.00000E+000	-9.11450E-004	-1.80273E-001	3.66896E-002	3.25665E+001	11	...........	6.12203E-002	-3.68069E-003	5.64824E-001	6.59921E-001	-2.95706E-002	-3.86797E-002	6.36742E-001	-4.25699E-002	-1.11678E-003	6.71432E-005	-1.03035E-002	-1.20383E-002	5.39426E-004	7.05595E-004	-1.16154E-002	7.76559E-004
	46	46	4.99667E-002	-1.81218E-002	0.00000E+000	-9.05488E-004	-1.79085E-001	3.68036E-002	3.29402E+001	11	...........	6.14104E-002	-3.72722E-003	5.64553E-001	6.59871E-001	-2.95481E-002	-3.87058E-002	6.36716E-001	-4.25711E-002	-1.11287E-003	6.75441E-005	-1.02307E-002	-1.19581E-002	5.35465E-004	7.01420E-004	-1.15385E-002	7.71466E-004
	47	47	4.99563E-002	-1.79329E-002	0.00000E+000	-8.95863E-004	-1.77204E-001	3.67422E-002	3.27069E+001	11	...........	6.13303E-002	-3.62417E-003	5.64645E-001	6.60052E-001	-2.95424E-002	-3.87233E-002	6.36707E-001	-4.25478E-002	-1.09983E-003	6.49919E-005	-1.01257E-002	-1.18367E-002	5.29781E-004	6.94423E-004	-1.14180E-002	7.63006E-004
	48	48	4.99711E-002	-1.76830E-002	0.00000E+000	-8.83639E-004	-1.74721E-001	3.68754E-002	3.32178E+001	11	...........	6.15426E-002	-3.43125E-003	5.64564E-001	6.60254E-001	-2.95349E-002	-3.87121E-002	6.36703E-001	-4.26887E-002	-1.08826E-003	6.06747E-005	-9.98317E-003	-1.16753E-002	5.22265E-004	6.84545E-004	-1.12588E-002	7.54865E-004
	49	49	4.99614E-002	-1.74423E-002	0.00000E+000	-8.71444E-004	-1.72315E-001	3.67922E-002	3.28754E+001	11	...........	6.14062E-002	-3.59764E-003	5.64533E-001	6.60413E-001	-2.95258E-002	-3.87104E-002	6.36726E-001	-4.25543E-002	-1.07107E-003	6.27513E-005	-9.84679E-003	-1.15192E-002	5.15000E-004	6.75200E-004	-1.11060E-002	7.42247E-004
	50	50	4.99657E-002	-1.71576E-002	0.00000E+000	-8.57291E-004	-1.69480E-001	3.67827E-002	3.29852E+001	11	...........	6.13751E-002	-3.65500E-003	5.64476E-001	6.60372E-001	-2.94893E-002	-3.87139E-002	6.36762E-001	-4.25274E-002	-1.05305E-003	6.27110E-005	-9.68504E-003	-1.13304E-002	5.05965E-004	6.64237E-004	-1.09253E-002	7.29667E-004
	51	51	4.99686E-002	-1.71503E-002	0.00000E+000	-8.56976E-004	-1.69412E-001	3.68500E-002	3.31609E+001	11	...........	6.14954E-002	-3.52861E-003	5.64449E-001	6.60362E-001	-2.94368E-002	-3.87118E-002	6.36693E-001	-4.28290E-002	-1.05466E-003	6.05167E-005	-9.68047E-003	-1.13254E-002	5.04850E-004	6.63919E-004	-1.09195E-002	7.34531E-004
	52	52	4.99616E-002	-1.67222E-002	0.00000E+000	-8.35467E-004	-1.65160E-001	3.67836E-002	3.31821E+001	11	...........	6.13915E-002	-3.61861E-003	5.64334E-001	6.60343E-001	-2.94429E-002	-3.87308E-002	6.36728E-001	-4.28562E-002	-1.02660E-003	6.05111E-005	-9.43689E-003	-1.10424E-002	4.92350E-004	6.47664E-004	-1.06475E-002	7.16650E-004
	53	53	4.99644E-002	-1.64516E-002	0.00000E+000	-8.21995E-004	-1.62470E-001	3.67849E-002	3.23124E+001	11	...........	6.13894E-002	-3.68778E-003	5.64332E-001	6.60463E-001	-2.94728E-002	-3.87185E-002	6.36770E-001	-4.25111E-002	-1.00996E-003	6.06699E-005	-9.28417E-003	-1.08657E-002	4.84875E-004	6.36981E-004	-1.04759E-002	6.99376E-004
	54	54	4.99684E-002	-1.64304E-002	0.00000E+000	-8.20999E-004	-1.62264E-001	3.69933E-002	3.33042E+001	11	...........	6.17262E-002	-3.50500E-003	5.64324E-001	6.60721E-001	-2.95326E-002	-3.87465E-002	6.36760E-001	-4.24794E-002	-1.01418E-003	5.75884E-005	-9.27205E-003	-1.08559E-002	4.85232E-004	6.36620E-004	-1.04622E-002	6.97953E-004
	55	55	4.99620E-002	-1.61534E-002	0.00000E+000	-8.07055E-004	-1.59505E-001	3.67908E-002	3.33172E+001	11	...........	6.14014E-002	-3.52667E-003	5.64393E-001	6.60748E-001	-2.94943E-002	-3.87322E-002	6.36784E-001	-4.24724E-002	-9.91840E-004	5.69676E-005	-9.11685E-003	-1.06733E-002	4.76433E-004	6.25656E-004	-1.02862E-002	6.86072E-004
	56	56	4.99649E-002	-1.58821E-002	0.00000E+000	-7.93548E-004	-1.56801E-001	3.68933E-002	3.31010E+001	11	...........	6.15631E-002	-3.43097E-003	5.64453E-001	6.60719E-001	-2.94528E-002	-3.87297E-002	6.36664E-001	-4.25179E-002	-9.77751E-004	5.44910E-005	-8.96470E-003	-1.04936E-002	4.67772E-004	6.15109E-004	-1.01116E-002	6.75274E-004
	57	57	4.99646E-002	-1.57423E-002	0.00000E+000	-7.86559E-004	-1.55407E-001	3.70082E-002	3.36129E+001	11	...........	6.17429E-002	-3.41917E-003	5.64540E-001	6.60736E-001	-2.94862E-002	-3.87078E-002	6.36654E-001	-4.24061E-002	-9.71978E-004	5.38257E-005	-8.88718E-003	-1.04015E-002	4.64182E-004	6.09351E-004	-1.00224E-002	6.67571E-004
	58	58	4.99610E-002	-1.55261E-002	0.00000E+000	-7.75702E-004	-1.53263E-001	3.68407E-002	3.28419E+001	11	...........	6.14531E-002	-3.48472E-003	5.64503E-001	6.60667E-001	-2.95112E-002	-3.86917E-002	6.36637E-001	-4.24912E-002	-9.54129E-004	5.41043E-005	-8.76455E-003	-1.02576E-002	4.58196E-004	6.00732E-004	-9.88452E-003	6.59725E-004
	59	59	4.99680E-002	-1.53140E-002	0.00000E+000	-7.65210E-004	-1.51161E-001	3.69841E-002	3.34189E+001	11	...........	6.17203E-002	-3.62111E-003	5.64391E-001	6.60679E-001	-2.95324E-002	-3.87146E-002	6.36623E-001	-4.24914E-002	-9.45184E-004	5.54537E-005	-8.64308E-003	-1.01176E-002	4.52258E-004	5.92875E-004	-9.74924E-003	6.50713E-004
	60	60	4.99678E-002	-1.52033E-002	0.00000E+000	-7.59674E-004	-1.50056E-001	3.69836E-002	3.35171E+001	11	...........	6.17122E-002	-3.66083E-003	5.64371E-001	6.60694E-001	-2.95232E-002	-3.87057E-002	6.36666E-001	-4.24976E-002	-9.38228E-004	5.56566E-005	-8.58029E-003	-1.00447E-002	4.48849E-004	5.88453E-004	-9.67940E-003	6.46103E-004
	61	61	4.99600E-002	-1.47999E-002	0.00000E+000	-7.39401E-004	-1.46025E-001	3.69243E-002	3.25108E+001	11	...........	6.15956E-002	-3.68389E-003	5.64362E-001	6.60579E-001	-2.94847E-002	-3.87267E-002	6.36685E-001	-4.25757E-002	-9.11605E-004	5.45210E-005	-8.35247E-003	-9.77647E-003	4.36369E-004	5.73149E-004	-9.42285E-003	6.30114E-004
	62	62	4.99682E-002	-1.46695E-002	0.00000E+000	-7.33008E-004	-1.44728E-001	3.69302E-002	3.32614E+001	11	...........	6.16410E-002	-3.64583E-003	5.64236E-001	6.60706E-001	-2.94453E-002	-3.87504E-002	6.36730E-001	-4.25575E-002	-9.04241E-004	5.34825E-005	-8.27705E-003	-9.69221E-003	4.31947E-004	5.68448E-004	-9.34050E-003	6.24296E-004
	63	63	4.99608E-002	-1.46260E-002	0.00000E+000	-7.30726E-004	-1.44303E-001	3.70404E-002	3.31545E+001	11	...........	6.18286E-002	-3.64875E-003	5.64402E-001	6.60718E-001	-2.94589E-002	-3.87449E-002	6.36717E-001	-4.26803E-002	-9.04304E-004	5.33665E-005	-8.25493E-003	-9.66364E-003	4.30865E-004	5.66681E-004	-9.31260E-003	6.24241E-004
	64	64	4.99694E-002	-1.43758E-002	0.00000E+000	-7.18347E-004	-1.41798E-001	3.70249E-002	3.33358E+001	11	...........	6.17794E-002	-3.54069E-003	5.64478E-001	6.60488E-001	-2.94443E-002	-3.87535E-002	6.36748E-001	-4.27128E-002	-8.88126E-004	5.09001E-005	-8.11479E-003	-9.49502E-003	4.23284E-004	5.57110E-004	-9.15373E-003	6.14028E-004
	65	65	4.99653E-002	-1.41696E-002	0.00000E+000	-7.07989E-004	-1.39761E-001	3.70142E-002	3.32663E+001	11	...........	6.17733E-002	-3.57639E-003	5.64511E-001	6.60660E-001	-2.94576E-002	-3.87521E-002	6.36750E-001	-4.25339E-002	-8.75304E-004	5.06761E-005	-7.99890E-003	-9.36130E-003	4.17403E-004	5.49102E-004	-9.02250E-003	6.02689E-004
	66	66	4.99659E-002	-1.39673E-002	0.00000E+000	-6.97886E-004	-1.37766E-001	3.68817E-002	3.29662E+001	11	...........	6.15453E-002	-3.54417E-003	5.64559E-001	6.60664E-001	-2.94424E-002	-3.87532E-002	6.36673E-001	-4.25258E-002	-8.59619E-004	4.95023E-005	-7.88534E-003	-9.22767E-003	4.11229E-004	5.41276E-004	-8.89258E-003	5.93969E-004
	67	67	4.99610E-002	-1.38222E-002	0.00000E+000	-6.90570E-004	-1.36322E-001	3.70653E-002	3.37784E+001	11	...........	6.18575E-002	-3.59889E-003	5.64549E-001	6.60460E-001	-2.94249E-002	-3.87432E-002	6.36646E-001	-4.26049E-002	-8.55006E-004	4.97445E-005	-7.80330E-003	-9.12900E-003	4.06716E-004	5.35516E-004	-8.79984E-003	5.88892E-004
	68	68	4.99632E-002	-1.35477E-002	0.00000E+000	-6.76886E-004	-1.33586E-001	3.70325E-002	3.20072E+001	11	...........	6.18253E-002	-3.45306E-003	5.64404E-001	6.60378E-001	-2.94047E-002	-3.87474E-002	6.36554E-001	-4.25922E-002	-8.37589E-004	4.67809E-005	-7.64637E-003	-8.94659E-003	3.98366E-004	5.24937E-004	-8.62384E-003	5.77026E-004
	69	69	4.99731E-002	-1.34310E-002	0.00000E+000	-6.71189E-004	-1.32422E-001	3.71066E-002	3.25254E+001	11	...........	6.19204E-002	-3.38028E-003	5.64299E-001	6.60401E-001	-2.94079E-002	-3.87368E-002	6.36634E-001	-4.27514E-002	-8.31654E-004	4.54006E-005	-7.57911E-003	-8.86986E-003	3.94978E-004	5.20275E-004	-8.55064E-003	5.74195E-004
	70	70	4.99628E-002	-1.32623E-002	0.00000E+000	-6.62624E-004	-1.30742E-001	3.68767E-002	3.27103E+001	11	...........	6.15142E-002	-3.41014E-003	5.64175E-001	6.60818E-001	-2.94107E-002	-3.86900E-002	6.36827E-001	-4.28764E-002	-8.15822E-004	4.52264E-005	-7.48227E-003	-8.76399E-003	3.90055E-004	5.13120E-004	-8.44582E-003	5.68641E-004
	71	71	4.99657E-002	-1.31962E-002	0.00000E+000	-6.59358E-004	-1.30083E-001	3.71683E-002	3.31324E+001	11	...........	6.20285E-002	-3.56597E-003	5.64313E-001	6.60836E-001	-2.94262E-002	-3.86793E-002	6.36860E-001	-4.28844E-002	-8.18541E-004	4.70573E-005	-7.44680E-003	-8.72053E-003	3.88315E-004	5.10420E-004	-8.40414E-003	5.65912E-004
	72	72	4.99649E-002	-1.30433E-002	0.00000E+000	-6.51705E-004	-1.28565E-001	3.71357E-002	3.31523E+001	11	...........	6.20126E-002	-3.67083E-003	5.64498E-001	6.60893E-001	-2.94382E-002	-3.86832E-002	6.36700E-001	-4.29061E-002	-8.08847E-004	4.78796E-005	-7.36290E-003	-8.62019E-003	3.83970E-004	5.04555E-004	-8.30465E-003	5.59635E-004
	73	73	4.99611E-002	-1.28156E-002	0.00000E+000	-6.40279E-004	-1.26318E-001	3.71169E-002	3.29349E+001	11	...........	6.19618E-002	-3.65056E-003	5.64586E-001	6.60861E-001	-2.94450E-002	-3.86585E-002	6.36704E-001	-4.26349E-002	-7.94075E-004	4.67839E-005	-7.23549E-003	-8.46930E-003	3.77354E-004	4.95430E-004	-8.15972E-003	5.46390E-004
	74	74	4.99697E-002	-1.27073E-002	0.00000E+000	-6.34981E-004	-1.25243E-001	3.70107E-002	3.38435E+001	11	...........	6.17542E-002	-3.68264E-003	5.64491E-001	6.60874E-001	-2.94360E-002	-3.86406E-002	6.36722E-001	-4.25379E-002	-7.84730E-004	4.67965E-005	-7.17317E-003	-8.39793E-003	3.74052E-004	4.91018E-004	-8.09103E-003	5.40543E-004
	75	75	4.99633E-002	-1.25796E-002	0.00000E+000	-6.28517E-004	-1.23965E-001	3.71169E-002	3.33926E+001	11	...........	6.19562E-002	-3.68000E-003	5.64559E-001	6.60842E-001	-2.94218E-002	-3.86569E-002	6.36751E-001	-4.24968E-002	-7.79383E-004	4.62928E-005	-7.10191E-003	-8.31312E-003	3.70114E-004	4.86288E-004	-8.01006E-003	5.34592E-004
	76	76	4.99674E-002	-1.23561E-002	0.00000E+000	-6.17402E-004	-1.21739E-001	3.71130E-002	3.32807E+001	11	...........	6.19467E-002	-3.62917E-003	5.64740E-001	6.60916E-001	-2.94500E-002	-3.86422E-002	6.36611E-001	-4.25314E-002	-7.65419E-004	4.48424E-005	-6.97798E-003	-8.16634E-003	3.63887E-004	4.77467E-004	-7.86602E-003	5.25522E-004
	77	77	4.99668E-002	-1.22144E-002	0.00000E+000	-6.10314E-004	-1.20326E-001	3.69849E-002	3.28855E+001	11	...........	6.17083E-002	-3.68486E-003	5.64724E-001	6.60734E-001	-2.94503E-002	-3.86121E-002	6.36716E-001	-4.25896E-002	-7.53730E-004	4.50084E-005	-6.89776E-003	-8.07047E-003	3.59717E-004	4.71623E-004	-7.77710E-003	5.20206E-004
	78	78	4.99668E-002	-1.21710E-002	0.00000E+000	-6.08147E-004	-1.19896E-001	3.72290E-002	3.34735E+001	11	...........	6.21021E-002	-3.53208E-003	5.64591E-001	6.60583E-001	-2.94681E-002	-3.85962E-002	6.36863E-001	-4.25604E-002	-7.55846E-004	4.29891E-005	-6.87165E-003	-8.03998E-003	3.58656E-004	4.69756E-004	-7.75127E-003	5.18004E-004
	79	79	4.99648E-002	-1.20084E-002	0.00000E+000	-5.99999E-004	-1.18269E-001	3.71034E-002	3.35898E+001	11	...........	6.19156E-002	-3.60764E-003	5.64490E-001	6.60757E-001	-2.94972E-002	-3.85636E-002	6.36786E-001	-4.26960E-002	-7.43509E-004	4.33221E-005	-6.77864E-003	-7.93467E-003	3.54216E-004	4.63089E-004	-7.64680E-003	5.12712E-004
	80	80	4.99634E-002	-1.17542E-002	0.00000E+000	-5.87280E-004	-1.15734E-001	3.70506E-002	3.36023E+001	11	...........	6.18383E-002	-3.64236E-003	5.64394E-001	6.60953E-001	-2.94757E-002	-3.85850E-002	6.36837E-001	-4.25037E-002	-7.26861E-004	4.28131E-005	-6.63400E-003	-7.76898E-003	3.46463E-004	4.53536E-004	-7.48551E-003	4.99598E-004
	81	81	4.99672E-002	-1.16323E-002	0.00000E+000	-5.81232E-004	-1.14524E-001	3.70857E-002	3.29458E+001	11	...........	6.19026E-002	-3.61542E-003	5.64505E-001	6.61022E-001	-2.94533E-002	-3.86075E-002	6.36753E-001	-4.25357E-002	-7.20069E-004	4.20555E-005	-6.56648E-003	-7.68919E-003	3.42609E-004	4.49093E-004	-7.40689E-003	4.94787E-004
	82	82	4.99673E-002	-1.16583E-002	0.00000E+000	-5.82534E-004	-1.14779E-001	3.72347E-002	3.34318E+001	11	...........	6.21392E-002	-3.58333E-003	5.64760E-001	6.61042E-001	-2.94503E-002	-3.86037E-002	6.36826E-001	-4.27304E-002	-7.24437E-004	4.17756E-005	-6.58414E-003	-7.70663E-003	3.43340E-004	4.50054E-004	-7.42431E-003	4.98164E-004
	83	83	4.99652E-002	-1.14327E-002	0.00000E+000	-5.71238E-004	-1.12562E-001	3.70518E-002	3.38570E+001	11	...........	6.18278E-002	-3.59708E-003	5.64836E-001	6.60964E-001	-2.94744E-002	-3.85967E-002	6.36772E-001	-4.26596E-002	-7.06860E-004	4.11245E-005	-6.45762E-003	-7.55662E-003	3.36973E-004	4.41265E-004	-7.28004E-003	4.87715E-004
	84	84	4.99620E-002	-1.13391E-002	0.00000E+000	-5.66522E-004	-1.11629E-001	3.72277E-002	3.35323E+001	11	...........	6.21233E-002	-3.56361E-003	5.64696E-001	6.60935E-001	-2.94953E-002	-3.86142E-002	6.36747E-001	-4.26535E-002	-7.04420E-004	4.04080E-005	-6.40312E-003	-7.49438E-003	3.34448E-004	4.37848E-004	-7.22011E-003	4.83650E-004
	85	85	4.99701E-002	-1.11724E-002	0.00000E+000	-5.58287E-004	-1.09973E-001	3.71638E-002	3.34569E+001	11	...........	6.20232E-002	-3.58597E-003	5.64756E-001	6.60955E-001	-2.94976E-002	-3.86350E-002	6.36804E-001	-4.26431E-002	-6.92949E-004	4.00640E-005	-6.30969E-003	-7.38446E-003	3.29560E-004	4.31646E-004	-7.11464E-003	4.76426E-004
	86	86	4.99649E-002	-1.10667E-002	0.00000E+000	-5.52948E-004	-1.08919E-001	3.71176E-002	3.40987E+001	11	...........	6.19482E-002	-3.57861E-003	5.64867E-001	6.60971E-001	-2.94900E-002	-3.86485E-002	6.36723E-001	-4.25037E-002	-6.85565E-004	3.96036E-005	-6.25124E-003	-7.31479E-003	3.26358E-004	4.27713E-004	-7.04644E-003	4.70378E-004
	87	87	4.99642E-002	-1.10060E-002	0.00000E+000	-5.49904E-004	-1.08314E-001	3.72821E-002	3.38252E+001	11	...........	6.22167E-002	-3.62583E-003	5.64891E-001	6.60856E-001	-2.94914E-002	-3.86467E-002	6.36672E-001	-4.25728E-002	-6.84754E-004	3.99058E-005	-6.21717E-003	-7.27336E-003	3.24581E-004	4.25344E-004	-7.00719E-003	4.68554E-004
	88	88	4.99678E-002	-1.07826E-002	0.00000E+000	-5.38782E-004	-1.06090E-001	3.71648E-002	3.31556E+001	11	...........	6.20308E-002	-3.57347E-003	5.64876E-001	6.60739E-001	-2.95021E-002	-3.86119E-002	6.36775E-001	-4.27376E-002	-6.68852E-004	3.85312E-005	-6.09082E-003	-7.12447E-003	3.18108E-004	4.16336E-004	-6.86608E-003	4.60822E-004
	89	89	4.99665E-002	-1.06772E-002	0.00000E+000	-5.33502E-004	-1.05042E-001	3.71263E-002	3.37401E+001	11	...........	6.19817E-002	-3.61236E-003	5.65072E-001	6.60641E-001	-2.95162E-002	-3.86429E-002	6.36774E-001	-4.26232E-002	-6.61790E-004	3.85699E-005	-6.03338E-003	-7.05379E-003	3.15151E-004	4.12598E-004	-6.79896E-003	4.55096E-004
	90	90	4.99656E-002	-1.05966E-002	0.00000E+000	-5.29463E-004	-1.04244E-001	3.72155E-002	3.39416E+001	11	...........	6.20914E-002	-3.65722E-003	5.65120E-001	6.60518E-001	-2.95015E-002	-3.86461E-002	6.36885E-001	-4.25746E-002	-6.57955E-004	3.87540E-005	-5.98833E-003	-6.99921E-003	3.12615E-004	4.09516E-004	-6.74879E-003	4.51144E-004
	91	91	4.99657E-002	-1.04997E-002	0.00000E+000	-5.24624E-004	-1.03271E-001	3.72912E-002	3.37290E+001	11	...........	6.22114E-002	-3.64222E-003	5.64974E-001	6.60463E-001	-2.94993E-002	-3.86442E-002	6.36897E-001	-4.25574E-002	-6.53200E-004	3.82422E-005	-5.93205E-003	-6.93466E-003	3.09734E-004	4.05752E-004	-6.68723E-003	4.46839E-004
	92	92	4.99657E-002	-1.02390E-002	0.00000E+000	-5.11600E-004	-1.00729E-001	3.71912E-002	3.34195E+001	11	...........	6.20651E-002	-3.64153E-003	5.64594E-001	6.60660E-001	-2.95064E-002	-3.86417E-002	6.36770E-001	-4.26135E-002	-6.35486E-004	3.72856E-005	-5.78088E-003	-6.76450E-003	3.02116E-004	3.95652E-004	-6.51989E-003	4.36320E-004
	93	93	4.99658E-002	-1.01957E-002	0.00000E+000	-5.09437E-004	-1.00293E-001	3.71911E-002	3.37243E+001	11	...........	6.20449E-002	-3.58931E-003	5.64620E-001	6.60800E-001	-2.95072E-002	-3.86400E-002	6.36849E-001	-4.26187E-002	-6.32592E-004	3.65955E-005	-5.75671E-003	-6.73733E-003	3.00847E-004	3.93962E-004	-6.49314E-003	4.34529E-004
	94	94	4.99667E-002	-1.01377E-002	0.00000E+000	-5.06549E-004	-9.97200E-002	3.72442E-002	3.36252E+001	11	...........	6.21665E-002	-3.59556E-003	5.64591E-001	6.60736E-001	-2.95087E-002	-3.86415E-002	6.36742E-001	-4.26375E-002	-6.30228E-004	3.64508E-005	-5.72368E-003	-6.69837E-003	2.99152E-004	3.91738E-004	-6.45513E-003	4.32248E-004
	95	95	4.99647E-002	-1.00071E-002	0.00000E+000	-5.00003E-004	-9.84150E-002	3.72780E-002	3.41795E+001	11	...........	6.22208E-002	-3.65819E-003	5.64472E-001	6.60408E-001	-2.94907E-002	-3.86140E-002	6.36651E-001	-4.26189E-002	-6.22652E-004	3.66080E-005	-5.64874E-003	-6.60879E-003	2.95117E-004	3.86416E-004	-6.37105E-003	4.26493E-004
	96	96	4.99641E-002	-9.81938E-003	0.00000E+000	-4.90617E-004	-9.65463E-002	3.73045E-002	3.31798E+001	11	...........	6.22622E-002	-3.66694E-003	5.64399E-001	6.60416E-001	-2.94967E-002	-3.86140E-002	6.36685E-001	-4.25228E-002	-6.11377E-004	3.60071E-005	-5.54205E-003	-6.48488E-003	2.89639E-004	3.79166E-004	-6.25185E-003	4.17548E-004
	97	97	4.99677E-002	-9.69043E-003	0.00000E+000	-4.84209E-004	-9.52540E-002	3.70796E-002	3.33822E+001	11	...........	6.18969E-002	-3.63569E-003	5.64370E-001	6.60348E-001	-2.94889E-002	-3.86161E-002	6.36602E-001	-4.25432E-002	-5.99808E-004	3.52315E-005	-5.46899E-003	-6.39906E-003	2.85760E-004	3.74207E-004	-6.16895E-003	4.12262E-004
	98	98	4.99679E-002	-9.70935E-003	0.00000E+000	-4.85156E-004	-9.54437E-002	3.73608E-002	3.41146E+001	11	...........	6.23650E-002	-3.66056E-003	5.64564E-001	6.60305E-001	-2.94593E-002	-3.86437E-002	6.36732E-001	-4.26594E-002	-6.05524E-004	3.55416E-005	-5.48155E-003	-6.41113E-003	2.86031E-004	3.75206E-004	-6.18226E-003	4.14196E-004
	99	99	4.99645E-002	-9.55075E-003	0.00000E+000	-4.77199E-004	-9.38610E-002	3.72642E-002	3.36247E+001	11	...........	6.21976E-002	-3.68944E-003	5.64676E-001	6.60504E-001	-2.94889E-002	-3.86596E-002	6.36744E-001	-4.28226E-002	-5.94034E-004	3.52369E-005	-5.39308E-003	-6.30831E-003	2.81641E-004	3.69228E-004	-6.08138E-003	4.08988E-004
	100	100	4.99668E-002	-9.48075E-003	0.00000E+000	-4.73723E-004	-9.31577E-002	3.73308E-002	3.33497E+001	11	...........	6.22979E-002	-3.66708E-003	5.64809E-001	6.60492E-001	-2.94757E-002	-3.86267E-002	6.36651E-001	-4.28412E-002	-5.90631E-004	3.47667E-005	-5.35482E-003	-6.26196E-003	2.79452E-004	3.66210E-004	-6.03593E-003	4.06167E-004
	101	101	4.99661E-002	-9.24638E-003	0.00000E+000	-4.62006E-004	-9.08273E-002	3.72382E-002	3.36170E+001	11	...........	6.21218E-002	-3.64694E-003	5.64858E-001	6.60609E-001	-2.94886E-002	-3.86124E-002	6.36686E-001	-4.29054E-002	-5.74402E-004	3.37210E-005	-5.22290E-003	-6.10824E-003	2.72663E-004	3.57025E-004	-5.88704E-003	3.96720E-004
	102	102	4.99667E-002	-9.21717E-003	0.00000E+000	-4.60552E-004	-9.05320E-002	3.72179E-002	3.33840E+001	11	...........	6.20918E-002	-3.64375E-003	5.64614E-001	6.60646E-001	-2.94851E-002	-3.86133E-002	6.36779E-001	-4.28008E-002	-5.72311E-004	3.35851E-005	-5.20415E-003	-6.08928E-003	2.71769E-004	3.55906E-004	-5.86930E-003	3.94502E-004
	103	103	4.99643E-002	-9.13815E-003	0.00000E+000	-4.56582E-004	-8.97453E-002	3.70863E-002	3.39468E+001	11	...........	6.22483E-002	-3.64833E-003	5.64479E-001	6.60721E-001	-2.94987E-002	-3.86237E-002	6.36749E-001	-4.27414E-002	-5.68835E-004	3.33390E-005	-5.15829E-003	-6.03777E-003	2.69564E-004	3.52950E-004	-5.81871E-003	3.90577E-004
	104	104	4.99670E-002	-9.05840E-003	0.00000E+000	-4.52621E-004	-8.89547E-002	3.73362E-002	3.37180E+001	11	...........	6.23092E-002	-3.64722E-003	5.64458E-001	6.60808E-001	-2.95151E-002	-3.86175E-002	6.36639E-001	-4.27790E-002	-5.64421E-004	3.30380E-005	-5.11308E-003	-5.98586E-003	2.67360E-004	3.49813E-004	-5.76693E-003	3.87509E-004
	105	105	4.99660E-002	-8.89285E-003	0.00000E+000	-4.44340E-004	-8.73377E-002	3.72131E-002	3.38046E+001	11	...........	6.20854E-002	-3.66972E-003	5.64278E-001	6.60852E-001	-2.94974E-002	-3.86401E-002	6.36644E-001	-4.27568E-002	-5.52116E-004	3.26343E-005	-5.01804E-003	-5.87686E-003	2.62316E-004	3.43621E-004	-5.66158E-003	3.80230E-004
	106	106	4.99680E-002	-8.88268E-003	0.00000E+000	-4.43850E-004	-8.72373E-002	3.73643E-002	3.41679E+001	11	...........	6.23617E-002	-3.70583E-003	5.64266E-001	6.60753E-001	-2.94815E-002	-3.86062E-002	6.36660E-001	-4.26364E-002	-5.53939E-004	3.29177E-005	-5.01220E-003	-5.86925E-003	2.61875E-004	3.42927E-004	-5.65525E-003	3.78725E-004
	107	107	4.99657E-002	-8.73478E-003	0.00000E+000	-4.36439E-004	-8.57633E-002	3.71834E-002	3.38671E+001	11	...........	6.20432E-002	-3.69444E-003	5.64375E-001	6.60910E-001	-2.94811E-002	-3.86093E-002	6.36572E-001	-4.27167E-002	-5.41934E-004	3.22702E-005	-4.92969E-003	-5.77290E-003	2.57511E-004	3.37244E-004	-5.56032E-003	3.73121E-004
	108	108	4.99657E-002	-8.62418E-003	0.00000E+000	-4.30913E-004	-8.46613E-002	3.73014E-002	3.34222E+001	11	...........	6.22475E-002	-3.68722E-003	5.64531E-001	6.60878E-001	-2.94940E-002	-3.86264E-002	6.36617E-001	-4.28862E-002	-5.36833E-004	3.17993E-005	-4.86862E-003	-5.69953E-003	2.54362E-004	3.33121E-004	-5.49030E-003	3.69859E-004
	109	109	4.99664E-002	-8.52459E-003	0.00000E+000	-4.25943E-004	-8.36680E-002	3.72965E-002	3.41202E+001	11	...........	6.22208E-002	-3.63722E-003	5.64353E-001	6.60958E-001	-2.94874E-002	-3.86287E-002	6.36589E-001	-4.29444E-002	-5.30407E-004	3.10058E-005	-4.81088E-003	-5.63440E-003	2.51368E-004	3.29294E-004	-5.42667E-003	3.66084E-004
	110	110	4.99659E-002	-8.48952E-003	0.00000E+000	-4.24186E-004	-8.33170E-002	3.73992E-002	3.39332E+001	11	...........	6.23821E-002	-3.56667E-003	5.64264E-001	6.60987E-001	-2.94853E-002	-3.86300E-002	6.36770E-001	-4.28267E-002	-5.29594E-004	3.02793E-005	-4.79033E-003	-5.61146E-003	2.50316E-004	3.27950E-004	-5.40587E-003	3.63578E-004
	111	111	4.99660E-002	-8.36565E-003	0.00000E+000	-4.17998E-004	-8.20847E-002	3.73462E-002	3.45192E+001	11	...........	6.23206E-002	-3.54319E-003	5.64312E-001	6.61017E-001	-2.94779E-002	-3.86192E-002	6.36632E-001	-4.25861E-002	-5.21352E-004	2.96411E-005	-4.72084E-003	-5.52984E-003	2.46602E-004	3.23075E-004	-5.32584E-003	3.56261E-004
	112	112	4.99652E-002	-8.23570E-003	0.00000E+000	-4.11498E-004	-8.07930E-002	3.72657E-002	3.30781E+001	11	...........	6.21786E-002	-3.59583E-003	5.64276E-001	6.61042E-001	-2.95111E-002	-3.85996E-002	6.36545E-001	-4.25757E-002	-5.12084E-004	2.96142E-005	-4.64721E-003	-5.44414E-003	2.43045E-004	3.17894E-004	-5.24239E-003	3.50641E-004
	113	113	4.99677E-002	-8.18773E-003	0.00000E+000	-4.09122E-004	-8.03133E-002	3.74152E-002	3.40351E+001	11	...........	6.24374E-002	-3.50792E-003	5.64362E-001	6.61291E-001	-2.95000E-002	-3.86185E-002	6.36630E-001	-4.27085E-002	-5.11220E-004	2.87219E-005	-4.62084E-003	-5.41447E-003	2.41538E-004	3.16198E-004	-5.21255E-003	3.49685E-004
	114	114	4.99671E-002	-8.12579E-003	0.00000E+000	-4.06023E-004	-7.96957E-002	3.72943E-002	3.40529E+001	11	...........	6.22128E-002	-3.59625E-003	5.64488E-001	6.61462E-001	-2.95078E-002	-3.86425E-002	6.36649E-001	-4.25019E-002	-5.05528E-004	2.92224E-005	-4.58692E-003	-5.37490E-003	2.39774E-004	3.14001E-004	-5.17328E-003	3.45362E-004
	115	115	4.99643E-002	-7.98150E-003	0.00000E+000	-3.98790E-004	-7.82580E-002	3.74410E-002	3.34747E+001	11	...........	6.24674E-002	-3.66097E-003	5.64402E-001	6.61355E-001	-2.95075E-002	-3.86578E-002	6.36644E-001	-4.25606E-002	-4.98583E-004	2.92200E-005	-4.50477E-003	-5.27860E-003	2.35514E-004	3.08547E-004	-5.08137E-003	3.39697E-004
	116	116	4.99681E-002	-7.86050E-003	0.00000E+000	-3.92774E-004	-7.70627E-002	3.72747E-002	3.37291E+001	11	...........	6.22053E-002	-3.58847E-003	5.64469E-001	6.61139E-001	-2.95011E-002	-3.86565E-002	6.36688E-001	-4.27144E-002	-4.88964E-004	2.82072E-005	-4.43701E-003	-5.19688E-003	2.31893E-004	3.03859E-004	-5.00468E-003	3.35757E-004
	117	117	4.99673E-002	-7.81857E-003	0.00000E+000	-3.90672E-004	-7.66467E-002	3.72770E-002	3.35963E+001	11	...........	6.22335E-002	-3.65028E-003	5.64332E-001	6.61197E-001	-2.94799E-002	-3.86764E-002	6.36811E-001	-4.27625E-002	-4.86576E-004	2.85399E-005	-4.41227E-003	-5.16961E-003	2.30490E-004	3.02394E-004	-4.97895E-003	3.34341E-004
	118	118	4.99658E-002	-7.79259E-003	0.00000E+000	-3.89363E-004	-7.63973E-002	3.74577E-002	3.37396E+001	11	...........	6.25297E-002	-3.62083E-003	5.64237E-001	6.61426E-001	-2.94604E-002	-3.86558E-002	6.36775E-001	-4.27496E-002	-4.87269E-004	2.82157E-005	-4.39687E-003	-5.15422E-003	2.29573E-004	3.01229E-004	-4.96213E-003	3.33130E-004
	119	119	4.99665E-002	-7.68581E-003	0.00000E+000	-3.84033E-004	-7.53377E-002	3.73920E-002	3.35614E+001	11	...........	6.23726E-002	-3.57347E-003	5.64239E-001	6.61613E-001	-2.94854E-002	-3.86489E-002	6.36757E-001	-4.28675E-002	-4.79384E-004	2.74650E-005	-4.33664E-003	-5.08504E-003	2.26619E-004	2.97048E-004	-4.89400E-003	3.29472E-004
	120	120	4.99661E-002	-7.59258E-003	0.00000E+000	-3.79372E-004	-7.44093E-002	3.72763E-002	3.37329E+001	11	...........	6.22194E-002	-3.55000E-003	5.64147E-001	6.61622E-001	-2.94617E-002	-3.86365E-002	6.36704E-001	-4.28449E-002	-4.72406E-004	2.69536E-005	-4.28333E-003	-5.02341E-003	2.23690E-004	2.93351E-004	-4.83422E-003	3.25303E-004
	121	121	4.99659E-002	-7.53969E-003	0.00000E+000	-3.76727E-004	-7.38790E-002	3.74466E-002	3.37771E+001	11	...........	6.24889E-002	-3.56625E-003	5.64081E-001	6.61459E-001	-2.94447E-002	-3.86247E-002	6.36794E-001	-4.27112E-002	-4.71147E-004	2.68884E-005	-4.25299E-003	-4.98720E-003	2.22004E-004	2.91218E-004	-4.80123E-003	3.22029E-004
	122	122	4.99667E-002	-7.45264E-003	0.00000E+000	-3.72384E-004	-7.30117E-002	3.74192E-002	3.37829E+001	11	...........	6.24599E-002	-3.64069E-003	5.64064E-001	6.61472E-001	-2.94319E-002	-3.86169E-002	6.36702E-001	-4.25517E-002	-4.65491E-004	2.71328E-005	-4.20377E-003	-4.92972E-003	2.19346E-004	2.87798E-004	-4.74511E-003	3.17122E-004
	123	123	4.99670E-002	-7.34992E-003	0.00000E+000	-3.67253E-004	-7.19877E-002	3.73477E-002	3.36818E+001	11	...........	6.22942E-002	-3.66569E-003	5.63874E-001	6.61412E-001	-2.94301E-002	-3.86029E-002	6.36853E-001	-4.25408E-002	-4.57857E-004	2.69425E-005	-4.14443E-003	-4.86133E-003	2.16309E-004	2.83728E-004	-4.68082E-003	3.12672E-004
	124	124	4.99656E-002	-7.27330E-003	0.00000E+000	-3.63415E-004	-7.12230E-002	3.73494E-002	3.34169E+001	11	...........	6.23247E-002	-3.67847E-003	5.63922E-001	6.61429E-001	-2.94400E-002	-3.86068E-002	6.36854E-001	-4.25185E-002	-4.53306E-004	2.67546E-005	-4.10157E-003	-4.81077E-003	2.14126E-004	2.80799E-004	-4.63203E-003	3.09250E-004
	125	125	4.99673E-002	-7.26610E-003	0.00000E+000	-3.63067E-004	-7.11540E-002	3.74567E-002	3.40703E+001	11	...........	6.25292E-002	-3.67347E-003	5.64110E-001	6.61296E-001	-2.94601E-002	-3.86187E-002	6.36911E-001	-4.26869E-002	-4.54343E-004	2.66918E-005	-4.09888E-003	-4.80504E-003	2.14060E-004	2.80608E-004	-4.62786E-003	3.10167E-004
	126	126	4.99669E-002	-7.16606E-003	0.00000E+000	-3.58065E-004	-7.01537E-002	3.74012E-002	3.39893E+001	11	...........	6.24221E-002	-3.61903E-003	5.64094E-001	6.61120E-001	-2.94525E-002	-3.86458E-002	6.36920E-001	-4.27765E-002	-4.47320E-004	2.59342E-005	-4.04233E-003	-4.73763E-003	2.11058E-004	2.76938E-004	-4.56420E-003	3.06539E-004
	127	127	4.99657E-002	-7.08440E-003	0.00000E+000	-3.53977E-004	-6.93400E-002	3.74072E-002	3.39926E+001	11	...........	6.24317E-002	-3.66319E-003	5.64107E-001	6.61100E-001	-2.94586E-002	-3.86604E-002	6.36839E-001	-4.27878E-002	-4.42291E-004	2.59515E-005	-3.99636E-003	-4.68350E-003	2.08697E-004	2.73886E-004	-4.51162E-003	3.03126E-004
	128	128	4.99665E-002	-6.97178E-003	0.00000E+000	-3.48356E-004	-6.82250E-002	3.74509E-002	3.34403E+001	11	...........	6.24819E-002	-3.52167E-003	5.64258E-001	6.61126E-001	-2.94636E-002	-3.86532E-002	6.36934E-001	-4.25746E-002	-4.35611E-004	2.45523E-005	-3.93388E-003	-4.60923E-003	2.05414E-004	2.69482E-004	-4.44057E-003	2.96821E-004
	129	129	4.99666E-002	-6.90816E-003	0.00000E+000	-3.45177E-004	-6.75850E-002	3.73599E-002	3.38107E+001	11	...........	6.23656E-002	-3.43611E-003	5.64242E-001	6.61225E-001	-2.94374E-002	-3.86506E-002	6.36900E-001	-4.25079E-002	-4.30831E-004	2.37372E-005	-3.89787E-003	-4.56784E-003	2.03358E-004	2.67004E-004	-4.39980E-003	2.93651E-004
	130	130	4.99667E-002	-6.88940E-003	0.00000E+000	-3.44240E-004	-6.73990E-002	3.74878E-002	3.39292E+001	11	...........	6.25569E-002	-3.57264E-003	5.64197E-001	6.61134E-001	-2.94119E-002	-3.86436E-002	6.36759E-001	-4.24857E-002	-4.30980E-004	2.46133E-005	-3.88698E-003	-4.55482E-003	2.02631E-004	2.66231E-004	-4.38689E-003	2.92701E-004
	131	131	4.99676E-002	-6.81930E-003	0.00000E+000	-3.40744E-004	-6.67010E-002	3.74860E-002	3.43514E+001	11	...........	6.25529E-002	-3.68194E-003	5.64166E-001	6.61257E-001	-2.94265E-002	-3.86451E-002	6.36723E-001	-4.26464E-002	-4.26567E-004	2.51083E-005	-3.84722E-003	-4.50932E-003	2.00668E-004	2.63533E-004	-4.34201E-003	2.90819E-004
	132	132	4.99657E-002	-6.73170E-003	0.00000E+000	-3.36354E-004	-6.58200E-002	3.73777E-002	3.41083E+001	11	...........	6.23726E-002	-3.66972E-003	5.64151E-001	6.61357E-001	-2.94256E-002	-3.86389E-002	6.36741E-001	-4.27381E-002	-4.19874E-004	2.47035E-005	-3.79769E-003	-4.45205E-003	1.98084E-004	2.60105E-004	-4.28635E-003	2.87700E-004
	133	133	4.99665E-002	-6.64885E-003	0.00000E+000	-3.32219E-004	-6.49947E-002	3.75303E-002	3.38083E+001	11	...........	6.26433E-002	-3.73000E-003	5.64241E-001	6.61402E-001	-2.94340E-002	-3.86462E-002	6.36718E-001	-4.28654E-002	-4.16506E-004	2.48002E-005	-3.75155E-003	-4.39756E-003	1.95702E-004	2.56953E-004	-4.23344E-003	2.85006E-004
	134	134	4.99672E-002	-6.60265E-003	0.00000E+000	-3.29916E-004	-6.45267E-002	3.74144E-002	3.39643E+001	11	...........	6.24340E-002	-3.68653E-003	5.64246E-001	6.61410E-001	-2.94193E-002	-3.86176E-002	6.36726E-001	-4.27924E-002	-4.12230E-004	2.43408E-005	-3.72552E-003	-4.36706E-003	1.94245E-004	2.54979E-004	-4.20408E-003	2.82543E-004
	135	135	4.99672E-002	-6.56139E-003	0.00000E+000	-3.27854E-004	-6.41147E-002	3.74563E-002	3.43651E+001	11	...........	6.25090E-002	-3.76847E-003	5.64213E-001	6.61301E-001	-2.93964E-002	-3.85887E-002	6.36770E-001	-4.26969E-002	-4.10146E-004	2.47264E-005	-3.70202E-003	-4.33905E-003	1.92881E-004	2.53196E-004	-4.17809E-003	2.80151E-004
	136	136	4.99665E-002	-6.44496E-003	0.00000E+000	-3.22032E-004	-6.29827E-002	3.73909E-002	3.39008E+001	11	...........	6.23892E-002	-3.78083E-003	5.64326E-001	6.61121E-001	-2.94419E-002	-3.86035E-002	6.36783E-001	-4.26774E-002	-4.02096E-004	2.43673E-005	-3.63706E-003	-4.26090E-003	1.89752E-004	2.48798E-004	-4.10404E-003	2.75054E-004
	137	137	4.99665E-002	-6.38790E-003	0.00000E+000	-3.19181E-004	-6.24237E-002	3.74072E-002	3.37948E+001	11	...........	6.24342E-002	-3.70806E-003	5.64279E-001	6.61059E-001	-2.94310E-002	-3.85854E-002	6.36601E-001	-4.25837E-002	-3.98823E-004	2.36867E-005	-3.60456E-003	-4.22278E-003	1.88002E-004	2.46480E-004	-4.06654E-003	2.72021E-004
	138	138	4.99670E-002	-6.36260E-003	0.00000E+000	-3.17920E-004	-6.21807E-002	3.75092E-002	3.41436E+001	11	...........	6.25762E-002	-3.71653E-003	5.64282E-001	6.60966E-001	-2.94536E-002	-3.86003E-002	6.36598E-001	-4.25576E-002	-3.98148E-004	2.36468E-005	-3.59030E-003	-4.20546E-003	1.87402E-004	2.45598E-004	-4.05042E-003	2.70777E-004
	139	139	4.99662E-002	-6.23249E-003	0.00000E+000	-3.11414E-004	-6.08773E-002	3.74247E-002	3.40832E+001	11	...........	6.24744E-002	-3.70250E-003	5.64368E-001	6.60981E-001	-2.94685E-002	-3.86125E-002	6.36618E-001	-4.25003E-002	-3.89372E-004	2.30758E-005	-3.51742E-003	-4.11956E-003	1.83662E-004	2.40652E-004	-3.96772E-003	2.64883E-004
	140	140	4.99671E-002	-6.16722E-003	0.00000E+000	-3.08158E-004	-6.02290E-002	3.73402E-002	3.33061E+001	11	...........	6.23110E-002	-3.72125E-003	5.64334E-001	6.60957E-001	-2.94485E-002	-3.86190E-002	6.36706E-001	-4.25296E-002	-3.84285E-004	2.29497E-005	-3.48037E-003	-4.07627E-003	1.81615E-004	2.38172E-004	-3.92670E-003	2.62289E-004
	141	141	4.99663E-002	-6.20306E-003	0.00000E+000	-3.09944E-004	-6.05863E-002	3.76658E-002	3.43421E+001	11	...........	6.28505E-002	-3.70944E-003	5.64430E-001	6.60889E-001	-2.94317E-002	-3.86564E-002	6.36554E-001	-4.26528E-002	-3.89866E-004	2.30099E-005	-3.50119E-003	-4.09953E-003	1.82566E-004	2.39788E-004	-3.94858E-003	2.64578E-004
	142	142	4.99671E-002	-6.12534E-003	0.00000E+000	-3.06066E-004	-5.98093E-002	3.74578E-002	3.40306E+001	11	...........	6.24775E-002	-3.72417E-003	5.64403E-001	6.60694E-001	-2.94436E-002	-3.86701E-002	6.36560E-001	-4.26515E-002	-3.82696E-004	2.28118E-005	-3.45716E-003	-4.04698E-003	1.80352E-004	2.36868E-004	-3.89915E-003	2.61255E-004
	143	143	4.99668E-002	-6.06324E-003	0.00000E+000	-3.02961E-004	-5.91963E-002	3.75397E-002	3.46185E+001	11	...........	6.26736E-002	-3.74958E-003	5.64348E-001	6.60631E-001	-2.94719E-002	-3.86603E-002	6.36645E-001	-4.25599E-002	-3.80005E-004	2.27346E-005	-3.42178E-003	-4.00557E-003	1.78695E-004	2.34407E-004	-3.86013E-003	2.58051E-004
	144	144	4.99652E-002	-6.01979E-003	0.00000E+000	-3.00780E-004	-5.87580E-002	3.75193E-002	3.43290E+001	11	...........	6.26057E-002	-3.72000E-003	5.64238E-001	6.60403E-001	-2.94731E-002	-3.86729E-002	6.36637E-001	-4.24624E-002	-3.76873E-004	2.23936E-005	-3.39659E-003	-3.97548E-003	1.77421E-004	2.32803E-004	-3.83242E-003	2.55614E-004
	145	145	4.99678E-002	-5.89717E-003	0.00000E+000	-2.94668E-004	-5.75350E-002	3.74247E-002	3.34392E+001	11	...........	6.24461E-002	-3.71639E-003	5.64014E-001	6.60213E-001	-2.94304E-002	-3.86912E-002	6.36662E-001	-4.24844E-002	-3.68255E-004	2.19162E-005	-3.32608E-003	-3.89339E-003	1.73556E-004	2.28169E-004	-3.75450E-003	2.50538E-004
	146	146	4.99666E-002	-5.89697E-003	0.00000E+000	-2.94651E-004	-5.75293E-002	3.75979E-002	3.42368E+001	11	...........	6.27399E-002	-3.66583E-003	5.63959E-001	6.59997E-001	-2.94171E-002	-3.86897E-002	6.36575E-001	-4.24175E-002	-3.69975E-004	2.16173E-005	-3.32565E-003	-3.89198E-003	1.73472E-004	2.28152E-004	-3.75386E-003	2.50135E-004
	147	147	4.99678E-002	-5.85943E-003	0.00000E+000	-2.92783E-004	-5.71597E-002	3.74642E-002	3.46717E+001	11	...........	6.25200E-002	-3.60514E-003	5.64068E-001	6.60026E-001	-2.94260E-002	-3.86757E-002	6.36575E-001	-4.24379E-002	-3.66332E-004	2.11241E-005	-3.30512E-003	-3.86738E-003	1.72419E-004	2.26618E-004	-3.72997E-003	2.48662E-004
	148	148	4.99662E-002	-5.77684E-003	0.00000E+000	-2.88647E-004	-5.63417E-002	3.74382E-002	3.41311E+001	11	...........	6.24637E-002	-3.61917E-003	5.64073E-001	6.60267E-001	-2.94737E-002	-3.86703E-002	6.36640E-001	-4.24550E-002	-3.60843E-004	2.09073E-005	-3.25856E-003	-3.81426E-003	1.70265E-004	2.23392E-004	-3.67777E-003	2.45256E-004
	149	149	4.99667E-002	-5.73015E-003	0.00000E+000	-2.86317E-004	-5.58717E-002	3.75565E-002	3.41810E+001	11	...........	6.26805E-002	-3.58194E-003	5.64003E-001	6.60236E-001	-2.94146E-002	-3.86818E-002	6.36695E-001	-4.25474E-002	-3.59169E-004	2.05251E-005	-3.23182E-003	-3.78325E-003	1.68550E-004	2.21652E-004	-3.64836E-003	2.43803E-004
	150	150	4.99653E-002	-5.65918E-003	0.00000E+000	-2.82763E-004	-5.51683E-002	3.75530E-002	3.37940E+001	11	...........	6.26654E-002	-3.50944E-003	5.64049E-001	6.60505E-001	-2.94401E-002	-3.86892E-002	6.36712E-001	-4.24662E-002	-3.54635E-004	1.98606E-005	-3.19206E-003	-3.73792E-003	1.66607E-004	2.18949E-004	-3.60327E-003	2.40324E-004
	151	151	4.99687E-002	-5.58774E-003	0.00000E+000	-2.79212E-004	-5.44547E-002	3.74307E-002	3.33997E+001	11	...........	6.24675E-002	-3.43639E-003	5.64177E-001	6.60464E-001	-2.94807E-002	-3.86933E-002	6.36640E-001	-4.25912E-002	-3.49052E-004	1.92016E-005	-3.15247E-003	-3.69050E-003	1.64730E-004	2.16208E-004	-3.55738E-003	2.37989E-004
	152	152	4.99671E-002	-5.59293E-003	0.00000E+000	-2.79463E-004	-5.45000E-002	3.75624E-002	3.46582E+001	11	...........	6.26921E-002	-3.62639E-003	5.64135E-001	6.60338E-001	-2.94956E-002	-3.87021E-002	6.36614E-001	-4.26217E-002	-3.50632E-004	2.02821E-005	-3.15517E-003	-3.69322E-003	1.64966E-004	2.16458E-004	-3.56054E-003	2.38380E-004
	153	153	4.99671E-002	-5.54414E-003	0.00000E+000	-2.77025E-004	-5.40147E-002	3.74277E-002	3.40954E+001	11	...........	6.24508E-002	-3.66722E-003	5.64182E-001	6.60317E-001	-2.94381E-002	-3.86900E-002	6.36667E-001	-4.28267E-002	-3.46236E-004	2.03316E-005	-3.12790E-003	-3.66089E-003	1.63209E-004	2.14503E-004	-3.52977E-003	2.37437E-004
	154	154	4.99667E-002	-5.50826E-003	0.00000E+000	-2.75230E-004	-5.36633E-002	3.76572E-002	3.45071E+001	11	...........	6.28254E-002	-3.62792E-003	5.64121E-001	6.60328E-001	-2.94376E-002	-3.86758E-002	6.36780E-001	-4.27319E-002	-3.46059E-004	1.99835E-005	-3.10733E-003	-3.63726E-003	1.62150E-004	2.13037E-004	-3.50755E-003	2.35379E-004
	155	155	4.99655E-002	-5.42574E-003	0.00000E+000	-2.71100E-004	-5.28417E-002	3.75021E-002	3.38157E+001	11	...........	6.26032E-002	-3.65375E-003	5.64176E-001	6.60412E-001	-2.94569E-002	-3.86639E-002	6.36705E-001	-4.27826E-002	-3.39669E-004	1.98243E-005	-3.06107E-003	-3.58322E-003	1.59826E-004	2.09780E-004	-3.45460E-003	2.32127E-004
	156	156	4.99666E-002	-5.33249E-003	0.00000E+000	-2.66446E-004	-5.19113E-002	3.75109E-002	3.33646E+001	11	...........	6.26300E-002	-3.61500E-003	5.64192E-001	6.60708E-001	-2.94979E-002	-3.86712E-002	6.36659E-001	-4.26739E-002	-3.33974E-004	1.92769E-005	-3.00854E-003	-3.52322E-003	1.57297E-004	2.06214E-004	-3.39498E-003	2.27558E-004
	157	157	4.99680E-002	-5.30967E-003	0.00000E+000	-2.65314E-004	-5.16833E-002	3.75279E-002	3.32679E+001	11	...........	6.26157E-002	-3.57972E-003	5.64097E-001	6.60638E-001	-2.94753E-002	-3.86581E-002	6.36693E-001	-4.27856E-002	-3.32469E-004	1.90071E-005	-2.99517E-003	-3.50777E-003	1.56504E-004	2.05262E-004	-3.38063E-003	2.27177E-004
	158	158	4.99661E-002	-5.27283E-003	0.00000E+000	-2.63463E-004	-5.13217E-002	3.76474E-002	3.42086E+001	11	...........	6.28179E-002	-3.62333E-003	5.63965E-001	6.60664E-001	-2.94276E-002	-3.86406E-002	6.36676E-001	-4.28312E-002	-3.31228E-004	1.91052E-005	-2.97369E-003	-3.48357E-003	1.55167E-004	2.03745E-004	-3.35709E-003	2.25842E-004
	159	159	4.99675E-002	-5.23863E-003	0.00000E+000	-2.61761E-004	-5.09950E-002	3.75944E-002	3.43477E+001	11	...........	6.27196E-002	-3.63931E-003	5.63915E-001	6.60808E-001	-2.94183E-002	-3.86589E-002	6.36710E-001	-4.25975E-002	-3.28565E-004	1.90650E-005	-2.95414E-003	-3.46173E-003	1.54112E-004	2.02520E-004	-3.33549E-003	2.23153E-004
	160	160	4.99670E-002	-5.14035E-003	0.00000E+000	-2.56848E-004	-5.00217E-002	3.75374E-002	3.35821E+001	11	...........	6.26772E-002	-3.66722E-003	5.63913E-001	6.60760E-001	-2.94194E-002	-3.86758E-002	6.36769E-001	-4.26014E-002	-3.22183E-004	1.88508E-005	-2.89871E-003	-3.39654E-003	1.51226E-004	1.98807E-004	-3.27322E-003	2.18986E-004
	161	161	4.99671E-002	-5.12696E-003	0.00000E+000	-2.56179E-004	-4.98833E-002	3.75105E-002	3.35241E+001	11	...........	6.25967E-002	-3.60639E-003	5.63963E-001	6.60400E-001	-2.94253E-002	-3.86610E-002	6.36807E-001	-4.26012E-002	-3.20930E-004	1.84898E-005	-2.89141E-003	-3.38584E-003	1.50862E-004	1.98213E-004	-3.26489E-003	2.18415E-004
	162	162	4.99669E-002	-5.10707E-003	0.00000E+000	-2.55184E-004	-4.96893E-002	3.76884E-002	3.43919E+001	11	...........	6.28869E-002	-3.61583E-003	5.64127E-001	6.60639E-001	-2.94299E-002	-3.86587E-002	6.36738E-001	-4.24232E-002	-3.21168E-004	1.84663E-005	-2.88104E-003	-3.37393E-003	1.50300E-004	1.97433E-004	-3.25187E-003	2.16658E-004
	163	162.76	4.99662E-002	-5.06744E-003	0.00000E+000	-2.53201E-004	-4.92996E-002	3.75984E-002	3.37955E+001	11	...........	6.27571E-002	-3.55610E-003	5.64241E-001	6.60554E-001	-2.94437E-002	-3.86235E-002	6.36887E-001	-4.24845E-002	-3.18018E-004	1.80203E-005	-2.85926E-003	-3.34732E-003	1.49204E-004	1.95722E-004	-3.22739E-003	2.15287E-004
STARTTIMEOFFSET	QUANT	768671.1	Start Time Offset (s)
