EXPLAIN
TAG	PWR800_DISCHARGE
TITLE	LABEL	PWR Discharge	Test Identifier
DATE	LABEL	10/13/2022	Date
TIME	LABEL	4:21:00	Time
NOTES	NOTES	1	Notes...
	
PSTAT	PSTAT	REF3000-21114	Potentiostat
CAPACITY	QUANT	5.30000E-002	Capacity (A-hr)
CELLTYPE	SELECTOR	1	Cell Type
WORKINGCONNECTION	SELECTOR	0	Working Connection
MAXDISCHARGETIME	VARIABLEANDUNITS	7.20000E+003	s	2.00000E+000	hour(s)	Max Discharge Time
DISCHARGEMODE	MULTIPARAM	0	1.00000E-001	Discharge Mode	Constant Current	Amp(s)
VOLTAGEFINISH	TWOPARAM	T	5.00000E-003	7.20000E+003	Voltage Finish	I (A) <	Max Time(s)
SAMPLETIME	QUANT	1.00000E+000	Sample Period (s)
DISCHARGESTOPAT1	MULTIPARAM	1	5.00000E-002	Stop At 1	|Voltage| < Limit	V
DISCHARGESTOPAT2	MULTIPARAM	0	0.00000E+000	Stop At 2	None	N/A
AESELECTOR	AESELECTOR	0x1	T	Set Limits	AE Channels
AESBHCSELECTOR	TOGGLE	F	Save Both Half Cells
IRCOMP	TOGGLE	F	IR Measure
EOC	QUANT	0.5441657	Open Circuit (V)
SEQUENCER	TOGGLE	TRUE	Run as Sequence
PSTATMODEL	IQUANT	5	Pstat Model
PSTATSECTION	LABEL	REF3000-21114	Pstat Section
PSTATSERIALNO	LABEL	21114	Pstat Serial Number
CTRLMODE	IQUANT	0	Control Mode
ELECTROMETER	IQUANT	0	RE=0 or CS=1
IESTAB	IQUANT	0	I/E Stability
CASPEED	IQUANT	4	Control Amp Speed
CONVENTION	IQUANT	1	Current Convention
ICHRANGE	IQUANT	2	Ich Range
ICHRANGEMODE	TOGGLE	T	Ich Auto Range
ICHOFFSETENABLE	TOGGLE	F	Ich Offset Enable
ICHOFFSET	QUANT	0	Ich Offset (V)
ICHFILTER	IQUANT	1	Ich Filter
VCHRANGE	IQUANT	3	Vch Range
VCHRANGEMODE	TOGGLE	T	Vch Auto Range
VCHOFFSETENABLE	TOGGLE	F	Vch Offset Enable
VCHOFFSET	QUANT	0	Vch Offset (V)
VCHFILTER	IQUANT	1	Vch Filter
ACHRANGE	IQUANT	2	Ach Range
ACHOFFSETENABLE	TOGGLE	F	Ach Offset Enable
ACHOFFSET	QUANT	0	Ach Offset (V)
ACHFILTER	IQUANT	1	Ach Filter
IERANGELOWERLIMIT	IQUANT	9	I/E Range Lower Limit
IERANGEMODE	TOGGLE	F	I/E AutoRange
IERANGE	IQUANT	9	I/E Range
POSFEEDENABLE	TOGGLE	F	Positive Feedback IR Comp
POSFEEDRESISTANCE	QUANT	0	Positive Feedback Resistance (ohm)
ACHSELECT	IQUANT	1	Ach Select
SENSECABLEID	IQUANT	13	Sense Cable ID
PWRCABLEID	IQUANT	13	Power Cable ID
DCCALDATE	LABEL		DC Calibration Date
ACCALDATE	LABEL		AC Calibration Date
THERMOSELECT	IQUANT	1	Thermo Select
FRAMEWORKVERSION	LABEL	7.8.6	Framework Version
INSTRUMENTVERSION	LABEL	4.50	Instrument Version
COMPLIANCEVOLTAGE	IQUANT	0	Compliance Voltage
CURVE	TABLE	177
	Pt	T	Vf	Im	Vu	Pwr	Sig	Ach	Temp	IERange	Over	Vf1	Vf2	Vf3	Vf4	Vf5	Vf6	Vf7	Vf8	Pwr1	Pwr2	Pwr3	Pwr4	Pwr5	Pwr6	Pwr7	Pwr8
	#	s	V	A	V	W	V	V	deg C	#	bits	V	V	V	V	V	V	V	V	W	W	W	W	W	W	W	W
	0	1	3.21407E-001	-1.00103E-001	0.00000E+000	-3.21737E-002	-9.94000E-001	3.83934E-002	3.04233E+001	11	...........	6.38628E-002	-5.09625E-003	5.90862E-001	5.64343E-001	-2.81489E-002	-3.90519E-002	6.87350E-001	-4.38103E-002	-6.39284E-003	5.10148E-004	-5.91469E-002	-5.64923E-002	2.81778E-003	3.90921E-003	-6.88056E-002	4.38553E-003
	1	2	2.34102E-001	-1.00104E-001	0.00000E+000	-2.34345E-002	-9.94000E-001	3.84435E-002	2.96989E+001	11	...........	6.38858E-002	-5.00069E-003	5.90890E-001	5.64234E-001	-2.81497E-002	-3.90574E-002	6.87259E-001	-4.39708E-002	-6.39521E-003	5.00588E-004	-5.91504E-002	-5.64820E-002	2.81789E-003	3.90979E-003	-6.87973E-002	4.40165E-003
	2	3	1.62049E-001	-1.00104E-001	0.00000E+000	-1.62218E-002	-9.94000E-001	3.83692E-002	2.90072E+001	11	...........	6.37883E-002	-4.98583E-003	5.91045E-001	5.64083E-001	-2.81306E-002	-3.90582E-002	6.87264E-001	-4.39817E-002	-6.38548E-003	4.99103E-004	-5.91661E-002	-5.64671E-002	2.81599E-003	3.90989E-003	-6.87980E-002	4.40275E-003
	3	4	1.00949E-001	-1.00104E-001	0.00000E+000	-1.01054E-002	-9.94000E-001	3.83392E-002	2.84543E+001	11	...........	6.37810E-002	-5.02389E-003	5.90931E-001	5.64008E-001	-2.81753E-002	-3.90497E-002	6.87203E-001	-4.40497E-002	-6.38475E-003	5.02913E-004	-5.91548E-002	-5.64596E-002	2.82047E-003	3.90905E-003	-6.87920E-002	4.40957E-003
	4	4.48	6.15979E-002	-1.00104E-001	0.00000E+000	-6.16620E-003	-9.94000E-001	3.82726E-002	2.81976E+001	11	...........	6.37008E-002	-5.03212E-003	5.91012E-001	5.64003E-001	-2.81487E-002	-3.90278E-002	6.87262E-001	-4.41505E-002	-6.37671E-003	5.03735E-004	-5.91626E-002	-5.64590E-002	2.81780E-003	3.90684E-003	-6.87977E-002	4.41964E-003
	5	5	4.95835E-002	-9.03708E-002	0.00000E+000	-4.48090E-003	-8.97215E-001	3.84240E-002	2.84914E+001	11	...........	6.38950E-002	-5.11512E-003	5.91015E-001	5.64060E-001	-2.81880E-002	-3.90302E-002	6.87317E-001	-4.41157E-002	-5.77424E-003	4.62257E-004	-5.34105E-002	-5.09745E-002	2.54737E-003	3.52719E-003	-6.21134E-002	3.98677E-003
	6	6	4.97862E-002	-7.29881E-002	0.00000E+000	-3.63380E-003	-7.24403E-001	3.85151E-002	2.92643E+001	11	...........	6.40190E-002	-5.12611E-003	5.91032E-001	5.64033E-001	-2.81179E-002	-3.90324E-002	6.87359E-001	-4.40661E-002	-4.67263E-003	3.74145E-004	-4.31383E-002	-4.11677E-002	2.05227E-003	2.84890E-003	-5.01690E-002	3.21630E-003
	7	7	4.98843E-002	-6.06562E-002	0.00000E+000	-3.02579E-003	-6.01797E-001	3.85947E-002	2.99271E+001	11	...........	6.41800E-002	-5.04806E-003	5.91015E-001	5.63968E-001	-2.81586E-002	-3.90604E-002	6.87456E-001	-4.41678E-002	-3.89292E-003	3.06196E-004	-3.58487E-002	-3.42082E-002	1.70799E-003	2.36926E-003	-4.16985E-002	2.67905E-003
	8	8	4.99264E-002	-5.36012E-002	0.00000E+000	-2.67611E-003	-5.31651E-001	3.86676E-002	3.03398E+001	11	...........	6.43311E-002	-5.15472E-003	5.90946E-001	5.63993E-001	-2.81936E-002	-3.90697E-002	6.87441E-001	-4.42531E-002	-3.44822E-003	2.76299E-004	-3.16754E-002	-3.02307E-002	1.51121E-003	2.09418E-003	-3.68476E-002	2.37202E-003
	9	9	4.99504E-002	-4.91838E-002	0.00000E+000	-2.45675E-003	-4.87749E-001	3.87458E-002	3.06354E+001	11	...........	6.44086E-002	-5.18972E-003	5.90692E-001	5.64082E-001	-2.81628E-002	-3.90568E-002	6.87402E-001	-4.41525E-002	-3.16786E-003	2.55250E-004	-2.90525E-002	-2.77437E-002	1.38515E-003	1.92096E-003	-3.38091E-002	2.17159E-003
	10	10	4.99609E-002	-4.60746E-002	0.00000E+000	-2.30193E-003	-4.56831E-001	3.88032E-002	3.08719E+001	11	...........	6.45076E-002	-5.27764E-003	5.90759E-001	5.64006E-001	-2.81842E-002	-3.90718E-002	6.87330E-001	-4.40439E-002	-2.97217E-003	2.43165E-004	-2.72190E-002	-2.59864E-002	1.29857E-003	1.80022E-003	-3.16685E-002	2.02931E-003
	11	11	4.99720E-002	-4.38942E-002	0.00000E+000	-2.19348E-003	-4.35153E-001	3.88648E-002	3.10642E+001	11	...........	6.46049E-002	-5.28958E-003	5.90874E-001	5.64009E-001	-2.81299E-002	-3.90760E-002	6.87320E-001	-4.38337E-002	-2.83578E-003	2.32182E-004	-2.59359E-002	-2.47567E-002	1.23474E-003	1.71521E-003	-3.01693E-002	1.92405E-003
	12	12	4.99754E-002	-4.21341E-002	0.00000E+000	-2.10567E-003	-4.17649E-001	3.89364E-002	3.11977E+001	11	...........	6.47081E-002	-5.16083E-003	5.90970E-001	5.63952E-001	-2.81768E-002	-3.91069E-002	6.87533E-001	-4.39385E-002	-2.72642E-003	2.17447E-004	-2.49000E-002	-2.37616E-002	1.18720E-003	1.64774E-003	-2.89686E-002	1.85131E-003
	13	13	4.99787E-002	-4.07370E-002	0.00000E+000	-2.03598E-003	-4.03780E-001	3.89792E-002	3.13303E+001	11	...........	6.47874E-002	-5.18514E-003	5.90968E-001	5.64120E-001	-2.81757E-002	-3.91361E-002	6.87377E-001	-4.39517E-002	-2.63924E-003	2.11227E-004	-2.40743E-002	-2.29805E-002	1.14779E-003	1.59429E-003	-2.80017E-002	1.79046E-003
	14	14	4.99820E-002	-3.95998E-002	0.00000E+000	-1.97928E-003	-3.92471E-001	3.90456E-002	3.14204E+001	11	...........	6.48972E-002	-5.16333E-003	5.90884E-001	5.64245E-001	-2.81801E-002	-3.91449E-002	6.87329E-001	-4.40526E-002	-2.56992E-003	2.04467E-004	-2.33989E-002	-2.23440E-002	1.11593E-003	1.55013E-003	-2.72181E-002	1.74448E-003
	15	15	4.99823E-002	-3.85789E-002	0.00000E+000	-1.92826E-003	-3.82321E-001	3.90613E-002	3.15048E+001	11	...........	6.49840E-002	-5.12583E-003	5.90986E-001	5.64240E-001	-2.82118E-002	-3.91161E-002	6.87262E-001	-4.41567E-002	-2.50701E-003	1.97749E-004	-2.27996E-002	-2.17677E-002	1.08838E-003	1.50906E-003	-2.65138E-002	1.70351E-003
	16	16	4.99845E-002	-3.76907E-002	0.00000E+000	-1.88395E-003	-3.73483E-001	3.91144E-002	3.15883E+001	11	...........	6.50440E-002	-5.13306E-003	5.91055E-001	5.64315E-001	-2.81828E-002	-3.91336E-002	6.87358E-001	-4.41393E-002	-2.45155E-003	1.93468E-004	-2.22773E-002	-2.12694E-002	1.06223E-003	1.47497E-003	-2.59070E-002	1.66364E-003
	17	17	4.99866E-002	-3.69725E-002	0.00000E+000	-1.84813E-003	-3.66347E-001	3.91763E-002	3.16723E+001	11	...........	6.51469E-002	-5.24014E-003	5.91049E-001	5.64209E-001	-2.82178E-002	-3.91662E-002	6.87304E-001	-4.41251E-002	-2.40864E-003	1.93741E-004	-2.18525E-002	-2.08602E-002	1.04328E-003	1.44807E-003	-2.54113E-002	1.63141E-003
	18	18	4.99855E-002	-3.62966E-002	0.00000E+000	-1.81430E-003	-3.59622E-001	3.92282E-002	3.17517E+001	11	...........	6.51893E-002	-5.21097E-003	5.91097E-001	5.64083E-001	-2.82044E-002	-3.91454E-002	6.87337E-001	-4.41731E-002	-2.36615E-003	1.89140E-004	-2.14548E-002	-2.04743E-002	1.02373E-003	1.42084E-003	-2.49480E-002	1.60333E-003
	19	19	4.99860E-002	-3.56381E-002	0.00000E+000	-1.78141E-003	-3.53073E-001	3.92632E-002	3.18192E+001	11	...........	6.53118E-002	-5.14611E-003	5.91242E-001	5.64125E-001	-2.81560E-002	-3.91392E-002	6.87501E-001	-4.41115E-002	-2.32759E-003	1.83398E-004	-2.10707E-002	-2.01043E-002	1.00343E-003	1.39485E-003	-2.45012E-002	1.57205E-003
	20	20	4.99880E-002	-3.50221E-002	0.00000E+000	-1.75068E-003	-3.46932E-001	3.92115E-002	3.18821E+001	11	...........	6.53905E-002	-5.08611E-003	5.91277E-001	5.64157E-001	-2.82044E-002	-3.91439E-002	6.87524E-001	-4.40894E-002	-2.29011E-003	1.78126E-004	-2.07078E-002	-1.97579E-002	9.87778E-004	1.37090E-003	-2.40785E-002	1.54410E-003
	21	21	4.99875E-002	-3.44540E-002	0.00000E+000	-1.72227E-003	-3.41297E-001	3.92138E-002	3.19561E+001	11	...........	6.54290E-002	-5.15042E-003	5.91265E-001	5.64031E-001	-2.82235E-002	-3.90989E-002	6.87582E-001	-4.40183E-002	-2.25429E-003	1.77453E-004	-2.03715E-002	-1.94331E-002	9.72412E-004	1.34711E-003	-2.36900E-002	1.51661E-003
	22	22	4.99874E-002	-3.39072E-002	0.00000E+000	-1.69493E-003	-3.35849E-001	3.92482E-002	3.20367E+001	11	...........	6.54987E-002	-5.13528E-003	5.91185E-001	5.63905E-001	-2.82243E-002	-3.91137E-002	6.87431E-001	-4.40751E-002	-2.22088E-003	1.74123E-004	-2.00454E-002	-1.91204E-002	9.57008E-004	1.32624E-003	-2.33089E-002	1.49447E-003
	23	23	4.99882E-002	-3.33441E-002	0.00000E+000	-1.66681E-003	-3.30263E-001	3.92748E-002	3.20803E+001	11	...........	6.55612E-002	-5.03375E-003	5.91165E-001	5.63921E-001	-2.82078E-002	-3.91350E-002	6.87511E-001	-4.41362E-002	-2.18608E-003	1.67846E-004	-1.97119E-002	-1.88034E-002	9.40563E-004	1.30492E-003	-2.29244E-002	1.47168E-003
	24	24	4.99887E-002	-3.28635E-002	0.00000E+000	-1.64281E-003	-3.25473E-001	3.93141E-002	3.21388E+001	11	...........	6.56382E-002	-4.96208E-003	5.91251E-001	5.64001E-001	-2.82043E-002	-3.91540E-002	6.87503E-001	-4.40289E-002	-2.15710E-003	1.63072E-004	-1.94306E-002	-1.85351E-002	9.26893E-004	1.28674E-003	-2.25938E-002	1.44695E-003
	25	25	4.99881E-002	-3.24053E-002	0.00000E+000	-1.61988E-003	-3.20909E-001	3.93598E-002	3.22002E+001	11	...........	6.57187E-002	-5.01333E-003	5.91317E-001	5.64070E-001	-2.82242E-002	-3.90901E-002	6.87520E-001	-4.40119E-002	-2.12964E-003	1.62459E-004	-1.91618E-002	-1.82789E-002	9.14614E-004	1.26673E-003	-2.22793E-002	1.42622E-003
	26	26	4.99888E-002	-3.19573E-002	0.00000E+000	-1.59751E-003	-3.16462E-001	3.93810E-002	3.22557E+001	11	...........	6.57639E-002	-5.18431E-003	5.91337E-001	5.64204E-001	-2.81944E-002	-3.91154E-002	6.87464E-001	-4.40687E-002	-2.10163E-003	1.65676E-004	-1.88975E-002	-1.80304E-002	9.01018E-004	1.25002E-003	-2.19695E-002	1.40832E-003
	27	27	4.99883E-002	-3.14327E-002	0.00000E+000	-1.57127E-003	-3.11244E-001	3.94541E-002	3.22777E+001	11	...........	6.58143E-002	-5.16667E-003	5.91237E-001	5.64371E-001	-2.81694E-002	-3.90993E-002	6.87586E-001	-4.40815E-002	-2.06872E-003	1.62402E-004	-1.85842E-002	-1.77397E-002	8.85440E-004	1.22899E-003	-2.16127E-002	1.38560E-003
	28	28	4.99892E-002	-3.10138E-002	0.00000E+000	-1.55035E-003	-3.07099E-001	3.94813E-002	3.23107E+001	11	...........	6.58761E-002	-5.03764E-003	5.91241E-001	5.64237E-001	-2.81932E-002	-3.90914E-002	6.87416E-001	-4.41306E-002	-2.04307E-003	1.56236E-004	-1.83366E-002	-1.74991E-002	8.74377E-004	1.21237E-003	-2.13193E-002	1.36865E-003
	29	29	4.99901E-002	-3.05948E-002	0.00000E+000	-1.52944E-003	-3.02941E-001	3.95020E-002	3.23483E+001	11	...........	6.59449E-002	-5.14153E-003	5.91361E-001	5.63970E-001	-2.82115E-002	-3.91404E-002	6.87258E-001	-4.39649E-002	-2.01757E-003	1.57304E-004	-1.80926E-002	-1.72546E-002	8.63127E-004	1.19749E-003	-2.10265E-002	1.34510E-003
	30	30	4.99888E-002	-3.01953E-002	0.00000E+000	-1.50943E-003	-2.98963E-001	3.95432E-002	3.24118E+001	11	...........	6.59593E-002	-5.20764E-003	5.91272E-001	5.63786E-001	-2.82014E-002	-3.91103E-002	6.87211E-001	-4.40179E-002	-1.99166E-003	1.57246E-004	-1.78537E-002	-1.70237E-002	8.51550E-004	1.18095E-003	-2.07506E-002	1.32914E-003
	31	31	4.99898E-002	-2.97697E-002	0.00000E+000	-1.48818E-003	-2.94727E-001	3.96484E-002	3.24055E+001	11	...........	6.61342E-002	-5.12278E-003	5.91189E-001	5.63721E-001	-2.82404E-002	-3.91336E-002	6.87312E-001	-4.40397E-002	-1.96880E-003	1.52504E-004	-1.75995E-002	-1.67818E-002	8.40709E-004	1.16500E-003	-2.04611E-002	1.31105E-003
	32	32	4.99887E-002	-2.93584E-002	0.00000E+000	-1.46759E-003	-2.90647E-001	3.97229E-002	3.23872E+001	11	...........	6.63343E-002	-5.08625E-003	5.91144E-001	5.63949E-001	-2.82521E-002	-3.91165E-002	6.87272E-001	-4.41082E-002	-1.94747E-003	1.49324E-004	-1.73551E-002	-1.65566E-002	8.29436E-004	1.14840E-003	-2.01772E-002	1.29495E-003
	33	33	4.99893E-002	-2.89296E-002	0.00000E+000	-1.44617E-003	-2.86379E-001	3.95729E-002	3.24524E+001	11	...........	6.60415E-002	-4.99778E-003	5.91141E-001	5.63981E-001	-2.82610E-002	-3.91144E-002	6.87335E-001	-4.41339E-002	-1.91056E-003	1.44584E-004	-1.71015E-002	-1.63157E-002	8.17579E-004	1.13157E-003	-1.98843E-002	1.27678E-003
	34	34	4.99939E-002	-2.86419E-002	0.00000E+000	-1.43192E-003	-2.83512E-001	3.96542E-002	3.24617E+001	11	...........	6.61861E-002	-5.11556E-003	5.91148E-001	5.63893E-001	-2.82757E-002	-3.91581E-002	6.87290E-001	-4.42492E-002	-1.89570E-003	1.46519E-004	-1.69316E-002	-1.61510E-002	8.09870E-004	1.12156E-003	-1.96853E-002	1.26738E-003
	35	35	4.99928E-002	-2.86493E-002	0.00000E+000	-1.43226E-003	-2.83587E-001	3.97308E-002	3.25414E+001	11	...........	6.62608E-002	-5.02542E-003	5.91068E-001	5.64118E-001	-2.82981E-002	-3.91667E-002	6.87277E-001	-4.41237E-002	-1.89833E-003	1.43975E-004	-1.69337E-002	-1.61616E-002	8.10720E-004	1.12210E-003	-1.96900E-002	1.26412E-003
	36	36	4.99899E-002	-2.83887E-002	0.00000E+000	-1.41915E-003	-2.81008E-001	3.97470E-002	3.26281E+001	11	...........	6.63196E-002	-4.84097E-003	5.90979E-001	5.64180E-001	-2.82782E-002	-3.91544E-002	6.87372E-001	-4.40244E-002	-1.88273E-003	1.37429E-004	-1.67771E-002	-1.60163E-002	8.02781E-004	1.11154E-003	-1.95136E-002	1.24980E-003
	37	37	4.99878E-002	-2.79410E-002	0.00000E+000	-1.39671E-003	-2.76548E-001	3.97697E-002	3.26690E+001	11	...........	6.63643E-002	-5.01194E-003	5.90887E-001	5.64016E-001	-2.82737E-002	-3.91289E-002	6.87368E-001	-4.40681E-002	-1.85429E-003	1.40039E-004	-1.65100E-002	-1.57592E-002	7.89997E-004	1.09330E-003	-1.92058E-002	1.23131E-003
	38	38	4.99889E-002	-2.74331E-002	0.00000E+000	-1.37135E-003	-2.71489E-001	3.97997E-002	3.27036E+001	11	...........	6.64199E-002	-5.01431E-003	5.90919E-001	5.63981E-001	-2.82744E-002	-3.91590E-002	6.87399E-001	-4.40371E-002	-1.82210E-003	1.37558E-004	-1.62107E-002	-1.54717E-002	7.75655E-004	1.07425E-003	-1.88575E-002	1.20807E-003
	39	39	4.99892E-002	-2.69696E-002	0.00000E+000	-1.34819E-003	-2.66889E-001	3.98298E-002	3.27266E+001	11	...........	6.64699E-002	-5.13125E-003	5.91030E-001	5.63791E-001	-2.82601E-002	-3.90983E-002	6.87469E-001	-4.40653E-002	-1.79266E-003	1.38388E-004	-1.59398E-002	-1.52052E-002	7.62163E-004	1.05446E-003	-1.85407E-002	1.18842E-003
	40	40	4.99887E-002	-2.65526E-002	0.00000E+000	-1.32733E-003	-2.62743E-001	3.98464E-002	3.27597E+001	11	...........	6.65167E-002	-5.10208E-003	5.91027E-001	5.63460E-001	-2.82603E-002	-3.91197E-002	6.87460E-001	-4.39931E-002	-1.76619E-003	1.35474E-004	-1.56933E-002	-1.49613E-002	7.50385E-004	1.03873E-003	-1.82539E-002	1.16813E-003
	41	41	4.99900E-002	-2.61991E-002	0.00000E+000	-1.30969E-003	-2.59227E-001	3.98983E-002	3.27683E+001	11	...........	6.65829E-002	-5.07931E-003	5.91069E-001	5.63295E-001	-2.82226E-002	-3.90889E-002	6.87427E-001	-4.40499E-002	-1.74441E-003	1.33073E-004	-1.54855E-002	-1.47578E-002	7.39408E-004	1.02409E-003	-1.80100E-002	1.15407E-003
	42	42	4.99907E-002	-2.57907E-002	0.00000E+000	-1.28930E-003	-2.55173E-001	3.99087E-002	3.28081E+001	11	...........	6.66510E-002	-5.05569E-003	5.91175E-001	5.63412E-001	-2.82085E-002	-3.91162E-002	6.87349E-001	-4.40093E-002	-1.71898E-003	1.30390E-004	-1.52468E-002	-1.45308E-002	7.27516E-004	1.00884E-003	-1.77272E-002	1.13503E-003
	43	43	4.99888E-002	-2.54586E-002	0.00000E+000	-1.27265E-003	-2.51864E-001	3.99428E-002	3.28261E+001	11	...........	6.66868E-002	-5.08653E-003	5.91287E-001	5.63309E-001	-2.82601E-002	-3.91372E-002	6.87356E-001	-4.38931E-002	-1.69776E-003	1.29496E-004	-1.50534E-002	-1.43411E-002	7.19465E-004	9.96380E-004	-1.74991E-002	1.11746E-003
	44	44	4.99915E-002	-2.51016E-002	0.00000E+000	-1.25487E-003	-2.48307E-001	4.00131E-002	3.27595E+001	11	...........	6.67990E-002	-5.08806E-003	5.91255E-001	5.63118E-001	-2.82951E-002	-3.91462E-002	6.87455E-001	-4.40247E-002	-1.67676E-003	1.27718E-004	-1.48415E-002	-1.41352E-002	7.10254E-004	9.82634E-004	-1.72562E-002	1.10509E-003
	45	45	4.99884E-002	-2.47525E-002	0.00000E+000	-1.23733E-003	-2.44825E-001	3.99809E-002	3.28916E+001	11	...........	6.67303E-002	-5.14958E-003	5.91108E-001	5.62901E-001	-2.82540E-002	-3.91560E-002	6.87501E-001	-4.41093E-002	-1.65174E-003	1.27465E-004	-1.46314E-002	-1.39332E-002	6.99357E-004	9.69207E-004	-1.70173E-002	1.09181E-003
	46	46	4.99931E-002	-2.44672E-002	0.00000E+000	-1.22319E-003	-2.42001E-001	3.99477E-002	3.28614E+001	11	...........	6.67621E-002	-5.06056E-003	5.91142E-001	5.62818E-001	-2.82501E-002	-3.91821E-002	6.87465E-001	-4.38918E-002	-1.63348E-003	1.23818E-004	-1.44636E-002	-1.37706E-002	6.91203E-004	9.58678E-004	-1.68204E-002	1.07391E-003
	47	47	4.99904E-002	-2.42060E-002	0.00000E+000	-1.21007E-003	-2.39402E-001	4.00474E-002	3.28919E+001	11	...........	6.68254E-002	-5.04653E-003	5.91131E-001	5.62757E-001	-2.83110E-002	-3.91593E-002	6.87456E-001	-4.39694E-002	-1.61757E-003	1.22156E-004	-1.43089E-002	-1.36221E-002	6.85294E-004	9.47889E-004	-1.66405E-002	1.06432E-003
	48	48	4.99905E-002	-2.39134E-002	0.00000E+000	-1.19544E-003	-2.36493E-001	4.00681E-002	3.29545E+001	11	...........	6.68797E-002	-5.07861E-003	5.91165E-001	5.62699E-001	-2.82782E-002	-3.91589E-002	6.87446E-001	-4.39819E-002	-1.59932E-003	1.21447E-004	-1.41368E-002	-1.34560E-002	6.76228E-004	9.36423E-004	-1.64392E-002	1.05176E-003
	49	49	4.99887E-002	-2.36077E-002	0.00000E+000	-1.18012E-003	-2.33449E-001	4.01189E-002	3.30301E+001	11	...........	6.69493E-002	-5.17347E-003	5.91086E-001	5.62704E-001	-2.82524E-002	-3.91710E-002	6.87271E-001	-4.40558E-002	-1.58052E-003	1.22134E-004	-1.39542E-002	-1.32842E-002	6.66974E-004	9.24738E-004	-1.62249E-002	1.04006E-003
	50	50	4.99897E-002	-2.31135E-002	0.00000E+000	-1.15544E-003	-2.28549E-001	4.01360E-002	3.30779E+001	11	...........	6.69964E-002	-5.24875E-003	5.91109E-001	5.62787E-001	-2.82397E-002	-3.91717E-002	6.87362E-001	-4.40317E-002	-1.54852E-003	1.21317E-004	-1.36626E-002	-1.30080E-002	6.52718E-004	9.05393E-004	-1.58873E-002	1.01772E-003
	51	51	4.99896E-002	-2.27108E-002	0.00000E+000	-1.13531E-003	-2.24534E-001	4.01587E-002	3.30943E+001	11	...........	6.70381E-002	-5.17375E-003	5.91297E-001	5.62717E-001	-2.82075E-002	-3.91524E-002	6.87511E-001	-4.40264E-002	-1.52249E-003	1.17500E-004	-1.34288E-002	-1.27798E-002	6.40616E-004	8.89183E-004	-1.56139E-002	9.99876E-004
	52	52	4.99903E-002	-2.23638E-002	0.00000E+000	-1.11797E-003	-2.21075E-001	4.01873E-002	3.31199E+001	11	...........	6.70857E-002	-5.06694E-003	5.91177E-001	5.62711E-001	-2.82050E-002	-3.91494E-002	6.87473E-001	-4.41864E-002	-1.50029E-003	1.13316E-004	-1.32210E-002	-1.25844E-002	6.30772E-004	8.75531E-004	-1.53745E-002	9.88177E-004
	53	53	4.99904E-002	-2.20226E-002	0.00000E+000	-1.10092E-003	-2.17685E-001	4.02230E-002	3.31698E+001	11	...........	6.71367E-002	-5.09514E-003	5.91347E-001	5.62885E-001	-2.81985E-002	-3.91106E-002	6.87424E-001	-4.42082E-002	-1.47852E-003	1.12208E-004	-1.30230E-002	-1.23962E-002	6.21003E-004	8.61316E-004	-1.51389E-002	9.73579E-004
	54	54	4.99916E-002	-2.17300E-002	0.00000E+000	-1.08631E-003	-2.14787E-001	4.02492E-002	3.32117E+001	11	...........	6.71682E-002	-5.11181E-003	5.91460E-001	5.62763E-001	-2.82212E-002	-3.91172E-002	6.87497E-001	-4.41954E-002	-1.45956E-003	1.11079E-004	-1.28524E-002	-1.22288E-002	6.13246E-004	8.50015E-004	-1.49393E-002	9.60364E-004
	55	55	4.99898E-002	-2.14565E-002	0.00000E+000	-1.07261E-003	-2.12057E-001	4.02642E-002	3.32390E+001	11	...........	6.71765E-002	-5.11431E-003	5.91482E-001	5.62829E-001	-2.81711E-002	-3.91281E-002	6.87385E-001	-4.41875E-002	-1.44137E-003	1.09735E-004	-1.26911E-002	-1.20763E-002	6.04452E-004	8.39550E-004	-1.47488E-002	9.48108E-004
	56	56	4.99907E-002	-2.11746E-002	0.00000E+000	-1.05853E-003	-2.09253E-001	4.03087E-002	3.32220E+001	11	...........	6.72789E-002	-5.13833E-003	5.91494E-001	5.62936E-001	-2.81839E-002	-3.91260E-002	6.87420E-001	-4.42735E-002	-1.42460E-003	1.08802E-004	-1.25246E-002	-1.19199E-002	5.96782E-004	8.28476E-004	-1.45558E-002	9.37472E-004
	57	57	4.99914E-002	-2.08553E-002	0.00000E+000	-1.04259E-003	-2.06079E-001	4.03231E-002	3.32966E+001	11	...........	6.72867E-002	-5.07917E-003	5.91455E-001	5.63096E-001	-2.81511E-002	-3.90812E-002	6.87427E-001	-4.41465E-002	-1.40328E-003	1.05928E-004	-1.23350E-002	-1.17435E-002	5.87100E-004	8.15051E-004	-1.43365E-002	9.20689E-004
	58	58	4.99911E-002	-2.06102E-002	0.00000E+000	-1.03032E-003	-2.03657E-001	4.03644E-002	3.32758E+001	11	...........	6.73736E-002	-5.06056E-003	5.91525E-001	5.63245E-001	-2.81999E-002	-3.91049E-002	6.87392E-001	-4.40549E-002	-1.38858E-003	1.04299E-004	-1.21914E-002	-1.16086E-002	5.81203E-004	8.05957E-004	-1.41672E-002	9.07977E-004
	59	59	4.99911E-002	-2.03089E-002	0.00000E+000	-1.01526E-003	-2.00665E-001	4.04191E-002	3.33129E+001	11	...........	6.74543E-002	-5.10611E-003	5.91434E-001	5.63324E-001	-2.81810E-002	-3.91006E-002	6.87490E-001	-4.39965E-002	-1.36992E-003	1.03699E-004	-1.20114E-002	-1.14405E-002	5.72324E-004	7.94088E-004	-1.39621E-002	8.93520E-004
	60	60	4.99905E-002	-2.00376E-002	0.00000E+000	-1.00169E-003	-1.97961E-001	4.03302E-002	3.33523E+001	11	...........	6.72711E-002	-5.06014E-003	5.91342E-001	5.63328E-001	-2.82089E-002	-3.90960E-002	6.87726E-001	-4.39429E-002	-1.34795E-003	1.01393E-004	-1.18491E-002	-1.12877E-002	5.65238E-004	7.83389E-004	-1.37804E-002	8.80510E-004
	61	61	4.99917E-002	-1.97568E-002	0.00000E+000	-9.87676E-004	-1.95163E-001	4.03871E-002	3.33851E+001	11	...........	6.73893E-002	-5.08431E-003	5.91285E-001	5.63220E-001	-2.82146E-002	-3.90722E-002	6.87753E-001	-4.40225E-002	-1.33140E-003	1.00450E-004	-1.16819E-002	-1.11274E-002	5.57430E-004	7.71942E-004	-1.35878E-002	8.69743E-004
	62	62	4.99923E-002	-1.95683E-002	0.00000E+000	-9.78265E-004	-1.93281E-001	4.04263E-002	3.34422E+001	11	...........	6.74350E-002	-5.14458E-003	5.91581E-001	5.63271E-001	-2.82536E-002	-3.91079E-002	6.87732E-001	-4.40010E-002	-1.31959E-003	1.00671E-004	-1.15762E-002	-1.10223E-002	5.52876E-004	7.65276E-004	-1.34578E-002	8.61025E-004
	63	63	4.99904E-002	-1.93313E-002	0.00000E+000	-9.66379E-004	-1.90933E-001	4.04345E-002	3.34805E+001	11	...........	6.74897E-002	-5.21389E-003	5.91700E-001	5.63220E-001	-2.82660E-002	-3.90992E-002	6.87711E-001	-4.38453E-002	-1.30466E-003	1.00791E-004	-1.14383E-002	-1.08878E-002	5.46418E-004	7.55837E-004	-1.32943E-002	8.47585E-004
	64	64	4.99891E-002	-1.89091E-002	0.00000E+000	-9.45251E-004	-1.86737E-001	4.04552E-002	3.29930E+001	11	...........	6.75410E-002	-5.22861E-003	5.91679E-001	5.63247E-001	-2.82606E-002	-3.91254E-002	6.87663E-001	-4.38856E-002	-1.27714E-003	9.88685E-005	-1.11881E-002	-1.06505E-002	5.34383E-004	7.39828E-004	-1.30031E-002	8.29838E-004
	65	65	4.99923E-002	-1.83751E-002	0.00000E+000	-9.18615E-004	-1.81429E-001	4.02872E-002	3.26342E+001	11	...........	6.72789E-002	-5.13389E-003	5.91548E-001	5.63242E-001	-2.83017E-002	-3.90590E-002	6.87565E-001	-4.39856E-002	-1.23626E-003	9.43359E-005	-1.08698E-002	-1.03496E-002	5.20047E-004	7.17715E-004	-1.26341E-002	8.08240E-004
	66	66	4.99959E-002	-1.87004E-002	0.00000E+000	-9.34943E-004	-1.84659E-001	4.05563E-002	3.34266E+001	11	...........	6.76856E-002	-5.11028E-003	5.91700E-001	5.63448E-001	-2.83001E-002	-3.90967E-002	6.87505E-001	-4.39997E-002	-1.26575E-003	9.55642E-005	-1.10650E-002	-1.05367E-002	5.29224E-004	7.31123E-004	-1.28566E-002	8.22812E-004
	67	67	4.99913E-002	-1.85438E-002	0.00000E+000	-9.27029E-004	-1.83102E-001	4.04349E-002	3.35677E+001	11	...........	6.75099E-002	-5.13778E-003	5.91714E-001	5.63417E-001	-2.82811E-002	-3.90949E-002	6.87545E-001	-4.38586E-002	-1.25189E-003	9.52739E-005	-1.09726E-002	-1.04479E-002	5.24439E-004	7.24967E-004	-1.27497E-002	8.13305E-004
	68	68	4.99928E-002	-1.83522E-002	0.00000E+000	-9.17477E-004	-1.81193E-001	4.04658E-002	3.36021E+001	11	...........	6.75247E-002	-5.03194E-003	5.91594E-001	5.63441E-001	-2.82536E-002	-3.90810E-002	6.87633E-001	-4.39035E-002	-1.23923E-003	9.23473E-005	-1.08571E-002	-1.03404E-002	5.18516E-004	7.17222E-004	-1.26196E-002	8.05725E-004
	69	69	4.99910E-002	-1.81566E-002	0.00000E+000	-9.07669E-004	-1.79259E-001	4.04915E-002	3.36539E+001	11	...........	6.75824E-002	-5.02417E-003	5.91525E-001	5.63308E-001	-2.82626E-002	-3.90786E-002	6.87632E-001	-4.39600E-002	-1.22707E-003	9.12220E-005	-1.07401E-002	-1.02278E-002	5.13154E-004	7.09536E-004	-1.24851E-002	7.98166E-004
	70	70	4.99909E-002	-1.78951E-002	0.00000E+000	-8.94594E-004	-1.76659E-001	4.05085E-002	3.36615E+001	11	...........	6.75835E-002	-5.07000E-003	5.91502E-001	5.63293E-001	-2.82585E-002	-3.90364E-002	6.87565E-001	-4.39510E-002	-1.20942E-003	9.07283E-005	-1.05850E-002	-1.00802E-002	5.05689E-004	6.98561E-004	-1.23041E-002	7.86508E-004
	71	71	4.99918E-002	-1.76652E-002	0.00000E+000	-8.83115E-004	-1.74368E-001	4.05400E-002	3.36661E+001	11	...........	6.76671E-002	-5.09750E-003	5.91627E-001	5.63385E-001	-2.82887E-002	-3.90579E-002	6.87547E-001	-4.40664E-002	-1.19535E-003	9.00483E-005	-1.04512E-002	-9.95231E-003	4.99726E-004	6.89966E-004	-1.21456E-002	7.78441E-004
	72	72	4.99908E-002	-1.74115E-002	0.00000E+000	-8.70416E-004	-1.71843E-001	4.05671E-002	3.37057E+001	11	...........	6.77074E-002	-5.01389E-003	5.91623E-001	5.63443E-001	-2.82821E-002	-3.90519E-002	6.87547E-001	-4.41314E-002	-1.17889E-003	8.72994E-005	-1.03011E-002	-9.81039E-003	4.92434E-004	6.79953E-004	-1.19712E-002	7.68394E-004
	73	73	4.99915E-002	-1.71500E-002	0.00000E+000	-8.57354E-004	-1.69235E-001	4.05957E-002	3.37265E+001	11	...........	6.77497E-002	-4.95250E-003	5.91551E-001	5.63373E-001	-2.82932E-002	-3.90557E-002	6.87566E-001	-4.40325E-002	-1.16191E-003	8.49354E-005	-1.01451E-002	-9.66185E-003	4.85228E-004	6.69805E-004	-1.17918E-002	7.55157E-004
	74	74	4.99918E-002	-1.69167E-002	0.00000E+000	-8.45695E-004	-1.66910E-001	4.06084E-002	3.37597E+001	11	...........	6.77924E-002	-5.00694E-003	5.91574E-001	5.63530E-001	-2.82697E-002	-3.90486E-002	6.87527E-001	-4.40658E-002	-1.14682E-003	8.47008E-005	-1.00074E-002	-9.53304E-003	4.78229E-004	6.60572E-004	-1.16307E-002	7.45447E-004
	75	75	4.99912E-002	-1.66700E-002	0.00000E+000	-8.33352E-004	-1.64472E-001	4.06422E-002	3.37932E+001	11	...........	6.78367E-002	-5.06583E-003	5.91516E-001	5.63448E-001	-2.82790E-002	-3.90458E-002	6.87488E-001	-4.40956E-002	-1.13083E-003	8.44472E-005	-9.86054E-003	-9.39265E-003	4.71410E-004	6.50892E-004	-1.14604E-002	7.35071E-004
	76	76	4.99917E-002	-1.64376E-002	0.00000E+000	-8.21743E-004	-1.62161E-001	4.06642E-002	3.38251E+001	11	...........	6.78599E-002	-5.08597E-003	5.91506E-001	5.63330E-001	-2.82743E-002	-3.89842E-002	6.87453E-001	-4.40154E-002	-1.11545E-003	8.36011E-005	-9.72294E-003	-9.25978E-003	4.64761E-004	6.40805E-004	-1.13001E-002	7.23507E-004
	77	77	4.99917E-002	-1.62300E-002	0.00000E+000	-8.11366E-004	-1.60092E-001	4.06909E-002	3.38398E+001	11	...........	6.79000E-002	-5.05750E-003	5.91429E-001	5.63244E-001	-2.82840E-002	-3.90051E-002	6.87497E-001	-4.38250E-002	-1.10202E-003	8.20833E-005	-9.59890E-003	-9.14146E-003	4.59050E-004	6.33054E-004	-1.11581E-002	7.11280E-004
	78	78	4.99915E-002	-1.59876E-002	0.00000E+000	-7.99247E-004	-1.57683E-001	4.06833E-002	3.38340E+001	11	...........	6.79485E-002	-5.09097E-003	5.91510E-001	5.63299E-001	-2.82708E-002	-3.90246E-002	6.87567E-001	-4.39304E-002	-1.08634E-003	8.13926E-005	-9.45685E-003	-9.00582E-003	4.51984E-004	6.23911E-004	-1.09926E-002	7.02344E-004
	79	79	4.99916E-002	-1.57788E-002	0.00000E+000	-7.88810E-004	-1.55597E-001	4.07197E-002	3.38402E+001	11	...........	6.79578E-002	-5.16944E-003	5.91514E-001	5.63369E-001	-2.82951E-002	-3.90389E-002	6.87529E-001	-4.40692E-002	-1.07229E-003	8.15678E-005	-9.33341E-003	-8.88931E-003	4.46464E-004	6.15988E-004	-1.08484E-002	6.95360E-004
	80	80	4.99916E-002	-1.55726E-002	0.00000E+000	-7.78502E-004	-1.53558E-001	4.07449E-002	3.38594E+001	11	...........	6.79864E-002	-5.05875E-003	5.91546E-001	5.63486E-001	-2.82872E-002	-3.90436E-002	6.87549E-001	-4.40182E-002	-1.05873E-003	7.87781E-005	-9.21192E-003	-8.77497E-003	4.40507E-004	6.08012E-004	-1.07070E-002	6.85479E-004
	81	81	4.99918E-002	-1.53512E-002	0.00000E+000	-7.67436E-004	-1.51359E-001	4.07450E-002	3.38779E+001	11	...........	6.79933E-002	-5.03389E-003	5.91632E-001	5.63775E-001	-2.82725E-002	-3.90710E-002	6.87374E-001	-4.39650E-002	-1.04378E-003	7.72764E-005	-9.08228E-003	-8.65463E-003	4.34018E-004	5.99787E-004	-1.05520E-002	6.74917E-004
	82	82	4.99923E-002	-1.51502E-002	0.00000E+000	-7.57393E-004	-1.49355E-001	4.07722E-002	3.39095E+001	11	...........	6.80364E-002	-5.02097E-003	5.91557E-001	5.63714E-001	-2.82960E-002	-3.90551E-002	6.87385E-001	-4.40228E-002	-1.03076E-003	7.60687E-005	-8.96220E-003	-8.54037E-003	4.28689E-004	5.91693E-004	-1.04140E-002	6.66954E-004
	83	83	4.99917E-002	-1.49422E-002	0.00000E+000	-7.46986E-004	-1.47280E-001	4.07775E-002	3.39355E+001	11	...........	6.80456E-002	-5.01278E-003	5.91523E-001	5.63661E-001	-2.83011E-002	-3.90871E-002	6.87314E-001	-4.41053E-002	-1.01675E-003	7.49019E-005	-8.83865E-003	-8.42233E-003	4.22881E-004	5.84047E-004	-1.02700E-002	6.59030E-004
	84	84	4.99921E-002	-1.47682E-002	0.00000E+000	-7.38295E-004	-1.45548E-001	4.08072E-002	3.39614E+001	11	...........	6.80812E-002	-5.06819E-003	5.91472E-001	5.63750E-001	-2.82854E-002	-3.90419E-002	6.87305E-001	-4.40074E-002	-1.00544E-003	7.48483E-005	-8.73500E-003	-8.32559E-003	4.17726E-004	5.76581E-004	-1.01503E-002	6.49911E-004
	85	85	4.99912E-002	-1.45387E-002	0.00000E+000	-7.26807E-004	-1.43261E-001	4.08055E-002	3.39624E+001	11	...........	6.81253E-002	-5.15736E-003	5.91366E-001	5.63712E-001	-2.83147E-002	-3.90474E-002	6.87346E-001	-4.40426E-002	-9.90453E-004	7.49813E-005	-8.59769E-003	-8.19563E-003	4.11659E-004	5.67698E-004	-9.99311E-003	6.40322E-004
	86	86	4.99921E-002	-1.43244E-002	0.00000E+000	-7.16108E-004	-1.41125E-001	4.08267E-002	3.39635E+001	11	...........	6.81712E-002	-5.14139E-003	5.91204E-001	5.63882E-001	-2.82586E-002	-3.90779E-002	6.87412E-001	-4.40511E-002	-9.76514E-004	7.36475E-005	-8.46866E-003	-8.07730E-003	4.04789E-004	5.59769E-004	-9.84679E-003	6.31007E-004
	87	87	4.99927E-002	-1.41476E-002	0.00000E+000	-7.07279E-004	-1.39387E-001	4.08509E-002	3.39651E+001	11	...........	6.81739E-002	-5.07500E-003	5.91201E-001	5.64108E-001	-2.82321E-002	-3.90964E-002	6.87401E-001	-4.40835E-002	-9.64500E-004	7.17993E-005	-8.36411E-003	-7.98079E-003	3.99418E-004	5.53122E-004	-9.72511E-003	6.23677E-004
	88	88	4.99918E-002	-1.39810E-002	0.00000E+000	-6.98938E-004	-1.37731E-001	4.08408E-002	3.39697E+001	11	...........	6.81890E-002	-5.08250E-003	5.91226E-001	5.64112E-001	-2.81837E-002	-3.90896E-002	6.87253E-001	-4.40310E-002	-9.53354E-004	7.10586E-005	-8.26595E-003	-7.88687E-003	3.94038E-004	5.46513E-004	-9.60851E-003	6.15599E-004
	89	89	4.99925E-002	-1.37803E-002	0.00000E+000	-6.88910E-004	-1.35733E-001	4.08808E-002	3.39874E+001	11	...........	6.82189E-002	-5.11125E-003	5.91269E-001	5.64120E-001	-2.81715E-002	-3.90650E-002	6.87156E-001	-4.40501E-002	-9.40075E-004	7.04344E-005	-8.14785E-003	-7.77373E-003	3.88211E-004	5.38326E-004	-9.46919E-003	6.07023E-004
	90	90	4.99924E-002	-1.36236E-002	0.00000E+000	-6.81079E-004	-1.34171E-001	4.08905E-002	3.39746E+001	11	...........	6.82275E-002	-5.10639E-003	5.91057E-001	5.63973E-001	-2.81679E-002	-3.90760E-002	6.87071E-001	-4.40568E-002	-9.29507E-004	6.95676E-005	-8.05235E-003	-7.68336E-003	3.83750E-004	5.32357E-004	-9.36041E-003	6.00214E-004
	91	91	4.99921E-002	-1.34534E-002	0.00000E+000	-6.72566E-004	-1.32480E-001	4.09045E-002	3.39953E+001	11	...........	6.82504E-002	-5.08889E-003	5.91018E-001	5.63912E-001	-2.81804E-002	-3.90679E-002	6.87214E-001	-4.40024E-002	-9.18203E-004	6.84631E-005	-7.95123E-003	-7.58655E-003	3.79124E-004	5.25598E-004	-9.24539E-003	5.91983E-004
	92	92	4.99920E-002	-1.32820E-002	0.00000E+000	-6.63993E-004	-1.30767E-001	4.09000E-002	3.40139E+001	11	...........	6.82883E-002	-5.05264E-003	5.90978E-001	5.63891E-001	-2.81996E-002	-3.90862E-002	6.87258E-001	-4.40475E-002	-9.07005E-004	6.71091E-005	-7.84937E-003	-7.48960E-003	3.74547E-004	5.19143E-004	-9.12816E-003	5.85039E-004
	93	93	4.99923E-002	-1.31026E-002	0.00000E+000	-6.55027E-004	-1.28983E-001	4.09197E-002	3.40113E+001	11	...........	6.82975E-002	-5.03903E-003	5.90913E-001	5.63920E-001	-2.82197E-002	-3.90746E-002	6.87229E-001	-4.40821E-002	-8.94872E-004	6.60241E-005	-7.74247E-003	-7.38880E-003	3.69750E-004	5.11977E-004	-9.00446E-003	5.77588E-004
	94	94	4.99922E-002	-1.29291E-002	0.00000E+000	-6.46355E-004	-1.27284E-001	4.09316E-002	3.40283E+001	11	...........	6.83447E-002	-5.13542E-003	5.90956E-001	5.63871E-001	-2.82379E-002	-3.90533E-002	6.87351E-001	-4.41822E-002	-8.83637E-004	6.63964E-005	-7.64054E-003	-7.29035E-003	3.65091E-004	5.04925E-004	-8.88684E-003	5.71237E-004
	95	95	4.99921E-002	-1.27656E-002	0.00000E+000	-6.38180E-004	-1.25646E-001	4.09437E-002	3.40589E+001	11	...........	6.83331E-002	-5.09528E-003	5.90943E-001	5.63891E-001	-2.82610E-002	-3.90808E-002	6.87369E-001	-4.41857E-002	-8.72314E-004	6.50444E-005	-7.54375E-003	-7.19841E-003	3.60769E-004	4.98891E-004	-8.77469E-003	5.64058E-004
	96	96	4.99926E-002	-1.25965E-002	0.00000E+000	-6.29731E-004	-1.23956E-001	4.09607E-002	3.40641E+001	11	...........	6.83743E-002	-4.98958E-003	5.90960E-001	5.63835E-001	-2.82612E-002	-3.90701E-002	6.87375E-001	-4.41432E-002	-8.61276E-004	6.28512E-005	-7.44401E-003	-7.10234E-003	3.55992E-004	4.92146E-004	-8.65850E-003	5.56049E-004
	97	97	4.99922E-002	-1.24193E-002	0.00000E+000	-6.20869E-004	-1.22197E-001	4.09753E-002	3.40572E+001	11	...........	6.84201E-002	-5.01069E-003	5.90972E-001	5.63775E-001	-2.82436E-002	-3.90644E-002	6.87542E-001	-4.39569E-002	-8.49731E-004	6.22294E-005	-7.33947E-003	-7.00170E-003	3.50766E-004	4.85154E-004	-8.53881E-003	5.45915E-004
	98	98	4.99931E-002	-1.22624E-002	0.00000E+000	-6.13035E-004	-1.20632E-001	4.09942E-002	3.40541E+001	11	...........	6.84106E-002	-5.03972E-003	5.91017E-001	5.63596E-001	-2.82901E-002	-3.90787E-002	6.87500E-001	-4.39693E-002	-8.38877E-004	6.17990E-005	-7.24728E-003	-6.91103E-003	3.46905E-004	4.79199E-004	-8.43039E-003	5.39169E-004
	99	99	4.99922E-002	-1.21253E-002	0.00000E+000	-6.06170E-004	-1.19266E-001	4.09901E-002	3.40701E+001	11	...........	6.84212E-002	-5.01514E-003	5.91050E-001	5.63525E-001	-2.82876E-002	-3.90397E-002	6.87550E-001	-4.39940E-002	-8.29627E-004	6.08100E-005	-7.16665E-003	-6.83290E-003	3.42996E-004	4.73368E-004	-8.33674E-003	5.33440E-004
	100	100	4.99923E-002	-1.19498E-002	0.00000E+000	-5.97397E-004	-1.17517E-001	4.10170E-002	3.40803E+001	11	...........	6.84600E-002	-4.93764E-003	5.91046E-001	5.63621E-001	-2.82931E-002	-3.90812E-002	6.87619E-001	-4.40271E-002	-8.18082E-004	5.90037E-005	-7.06287E-003	-6.73514E-003	3.38096E-004	4.67012E-004	-8.21689E-003	5.26114E-004
	101	101	4.99925E-002	-1.18034E-002	0.00000E+000	-5.90081E-004	-1.16062E-001	4.10578E-002	3.40567E+001	11	...........	6.85451E-002	-5.01514E-003	5.90992E-001	5.63707E-001	-2.82647E-002	-3.90807E-002	6.87640E-001	-4.41522E-002	-8.09065E-004	5.91957E-005	-6.97571E-003	-6.65365E-003	3.33620E-004	4.61285E-004	-8.11649E-003	5.21146E-004
	102	102	4.99925E-002	-1.16438E-002	0.00000E+000	-5.82101E-004	-1.14479E-001	4.10462E-002	3.41191E+001	11	...........	6.84592E-002	-5.08056E-003	5.90968E-001	5.63844E-001	-2.82522E-002	-3.90671E-002	6.87489E-001	-4.41789E-002	-7.97123E-004	5.91568E-005	-6.88109E-003	-6.56527E-003	3.28962E-004	4.54888E-004	-8.00497E-003	5.14409E-004
	103	103	4.99925E-002	-1.15009E-002	0.00000E+000	-5.74958E-004	-1.13073E-001	4.10315E-002	3.41501E+001	11	...........	6.84760E-002	-5.13153E-003	5.91046E-001	5.63901E-001	-2.82772E-002	-3.90753E-002	6.87444E-001	-4.41310E-002	-7.87535E-004	5.90172E-005	-6.79756E-003	-6.48537E-003	3.25213E-004	4.49401E-004	-7.90623E-003	5.07546E-004
	104	104	4.99929E-002	-1.13682E-002	0.00000E+000	-5.68327E-004	-1.11745E-001	4.10549E-002	3.42073E+001	11	...........	6.85240E-002	-5.15722E-003	5.90909E-001	5.63708E-001	-2.82619E-002	-3.90551E-002	6.87392E-001	-4.39579E-002	-7.78993E-004	5.86282E-005	-6.71755E-003	-6.40833E-003	3.21286E-004	4.43985E-004	-7.81439E-003	4.99721E-004
	105	105	4.99925E-002	-1.12175E-002	0.00000E+000	-5.60792E-004	-1.10250E-001	4.10639E-002	3.42249E+001	11	...........	6.85558E-002	-5.08625E-003	5.90709E-001	5.63619E-001	-2.82736E-002	-3.90497E-002	6.87354E-001	-4.39446E-002	-7.69027E-004	5.70551E-005	-6.62630E-003	-6.32241E-003	3.17160E-004	4.38041E-004	-7.71041E-003	4.92950E-004
	106	106	4.99927E-002	-1.10796E-002	0.00000E+000	-5.53898E-004	-1.08867E-001	4.10722E-002	3.42360E+001	11	...........	6.85650E-002	-5.07236E-003	5.90483E-001	5.63716E-001	-2.82929E-002	-3.90528E-002	6.87330E-001	-4.40558E-002	-7.59670E-004	5.61996E-005	-6.54229E-003	-6.24573E-003	3.13473E-004	4.32688E-004	-7.61532E-003	4.88119E-004
	107	107	4.99927E-002	-1.09411E-002	0.00000E+000	-5.46973E-004	-1.07491E-001	4.10860E-002	3.42648E+001	11	...........	6.85815E-002	-5.02986E-003	5.90605E-001	5.63787E-001	-2.82431E-002	-3.90503E-002	6.87392E-001	-4.39818E-002	-7.50355E-004	5.50321E-005	-6.46186E-003	-6.16844E-003	3.09009E-004	4.27252E-004	-7.52081E-003	4.81208E-004
	108	108	4.99929E-002	-1.08045E-002	0.00000E+000	-5.40148E-004	-1.06131E-001	4.11042E-002	3.42882E+001	11	...........	6.86260E-002	-5.06542E-003	5.90599E-001	5.63814E-001	-2.82478E-002	-3.90493E-002	6.87454E-001	-4.40882E-002	-7.41469E-004	5.47293E-005	-6.38113E-003	-6.09173E-003	3.05203E-004	4.21908E-004	-7.42760E-003	4.76351E-004
	109	109	4.99924E-002	-1.06723E-002	0.00000E+000	-5.33532E-004	-1.04814E-001	4.11282E-002	3.43075E+001	11	...........	6.86382E-002	-5.01903E-003	5.90508E-001	5.63576E-001	-2.82203E-002	-3.90337E-002	6.87301E-001	-4.41647E-002	-7.32525E-004	5.35644E-005	-6.30206E-003	-6.01463E-003	3.01174E-004	4.16578E-004	-7.33506E-003	4.71337E-004
	110	110	4.99928E-002	-1.05230E-002	0.00000E+000	-5.26076E-004	-1.03334E-001	4.11408E-002	3.43093E+001	11	...........	6.86461E-002	-5.11181E-003	5.90405E-001	5.63541E-001	-2.82386E-002	-3.90342E-002	6.87366E-001	-4.41960E-002	-7.22366E-004	5.37917E-005	-6.21286E-003	-5.93016E-003	2.97156E-004	4.10758E-004	-7.23317E-003	4.65076E-004
	111	111	4.99929E-002	-1.03886E-002	0.00000E+000	-5.19355E-004	-1.02035E-001	4.11330E-002	3.43107E+001	11	...........	6.86736E-002	-5.05583E-003	5.90346E-001	5.63621E-001	-2.82190E-002	-3.90935E-002	6.87515E-001	-4.40958E-002	-7.13421E-004	5.25229E-005	-6.13285E-003	-5.85522E-003	2.93155E-004	4.06125E-004	-7.14230E-003	4.58093E-004
	112	112	4.99928E-002	-1.02768E-002	0.00000E+000	-5.13764E-004	-1.00931E-001	4.11498E-002	3.43327E+001	11	...........	6.86885E-002	-5.03486E-003	5.90393E-001	5.63654E-001	-2.82737E-002	-3.90326E-002	6.87591E-001	-4.40710E-002	-7.05895E-004	5.17421E-005	-6.06733E-003	-5.79254E-003	2.90563E-004	4.01129E-004	-7.06621E-003	4.52907E-004
	113	113	4.99930E-002	-1.01496E-002	0.00000E+000	-5.07409E-004	-9.96593E-002	4.11420E-002	3.43477E+001	11	...........	6.86951E-002	-5.03208E-003	5.90478E-001	5.63563E-001	-2.82417E-002	-3.90646E-002	6.87518E-001	-4.40503E-002	-6.97229E-004	5.10737E-005	-5.99312E-003	-5.71995E-003	2.86642E-004	3.96490E-004	-6.97803E-003	4.47093E-004
	114	114	4.99932E-002	-1.00284E-002	0.00000E+000	-5.01351E-004	-9.84513E-002	4.11742E-002	3.43764E+001	11	...........	6.87058E-002	-5.02292E-003	5.90358E-001	5.63664E-001	-2.82490E-002	-3.90512E-002	6.87493E-001	-4.40417E-002	-6.89009E-004	5.03718E-005	-5.92034E-003	-5.65264E-003	2.83292E-004	3.91621E-004	-6.89445E-003	4.41667E-004
	115	115	4.99920E-002	-9.88770E-003	0.00000E+000	-4.94306E-004	-9.70520E-002	4.11625E-002	3.43897E+001	11	...........	6.87104E-002	-5.12556E-003	5.90445E-001	5.63607E-001	-2.82725E-002	-3.90618E-002	6.87470E-001	-4.41554E-002	-6.79388E-004	5.06800E-005	-5.83815E-003	-5.57278E-003	2.79550E-004	3.86232E-004	-6.79750E-003	4.36596E-004
	116	116	4.99931E-002	-9.75005E-003	0.00000E+000	-4.87436E-004	-9.56760E-002	4.11854E-002	3.44098E+001	11	...........	6.87500E-002	-5.19514E-003	5.90660E-001	5.63737E-001	-2.82856E-002	-3.90562E-002	6.87502E-001	-4.41586E-002	-6.70316E-004	5.06529E-005	-5.75897E-003	-5.49647E-003	2.75786E-004	3.80801E-004	-6.70318E-003	4.30549E-004
	117	117	4.99929E-002	-9.64103E-003	0.00000E+000	-4.81983E-004	-9.45947E-002	4.11853E-002	3.44309E+001	11	...........	6.87649E-002	-5.19597E-003	5.90689E-001	5.63684E-001	-2.82728E-002	-3.90417E-002	6.87470E-001	-4.42714E-002	-6.62964E-004	5.00945E-005	-5.69485E-003	-5.43449E-003	2.72579E-004	3.76402E-004	-6.62792E-003	4.26822E-004
	118	118	4.99928E-002	-9.52210E-003	0.00000E+000	-4.76036E-004	-9.34087E-002	4.11934E-002	3.44544E+001	11	...........	6.87604E-002	-5.04597E-003	5.90666E-001	5.63676E-001	-2.82710E-002	-3.90631E-002	6.87544E-001	-4.42372E-002	-6.54743E-004	4.80482E-005	-5.62438E-003	-5.36738E-003	2.69199E-004	3.71962E-004	-6.54686E-003	4.21231E-004
	119	119	4.99929E-002	-9.40100E-003	0.00000E+000	-4.69983E-004	-9.22007E-002	4.12199E-002	3.44707E+001	11	...........	6.87843E-002	-5.03375E-003	5.90824E-001	5.63676E-001	-2.83042E-002	-3.90681E-002	6.87528E-001	-4.42781E-002	-6.46641E-004	4.73223E-005	-5.55434E-003	-5.29911E-003	2.66087E-004	3.67279E-004	-6.46345E-003	4.16258E-004
	120	120	4.99936E-002	-9.29961E-003	0.00000E+000	-4.64921E-004	-9.11900E-002	4.12148E-002	3.44850E+001	11	...........	6.88053E-002	-4.98583E-003	5.90799E-001	5.63595E-001	-2.82981E-002	-3.90542E-002	6.87384E-001	-4.41786E-002	-6.39862E-004	4.63663E-005	-5.49420E-003	-5.24121E-003	2.63161E-004	3.63189E-004	-6.39241E-003	4.10844E-004
	121	121	4.99929E-002	-9.19726E-003	0.00000E+000	-4.59798E-004	-9.01647E-002	4.12208E-002	3.44962E+001	11	...........	6.87669E-002	-5.06931E-003	5.90811E-001	5.63502E-001	-2.82704E-002	-3.91024E-002	6.87334E-001	-4.41271E-002	-6.32468E-004	4.66237E-005	-5.43385E-003	-5.18268E-003	2.60010E-004	3.59635E-004	-6.32159E-003	4.05848E-004
	122	122	4.99927E-002	-9.07666E-003	0.00000E+000	-4.53767E-004	-8.89727E-002	4.12826E-002	3.44599E+001	11	...........	6.89067E-002	-5.16458E-003	5.90867E-001	5.63433E-001	-2.82307E-002	-3.90781E-002	6.87416E-001	-4.40418E-002	-6.25442E-004	4.68772E-005	-5.36310E-003	-5.11409E-003	2.56240E-004	3.54698E-004	-6.23944E-003	3.99752E-004
	123	123	4.99931E-002	-8.95407E-003	0.00000E+000	-4.47642E-004	-8.77733E-002	4.12361E-002	3.45124E+001	11	...........	6.88268E-002	-5.02806E-003	5.90805E-001	5.63455E-001	-2.82394E-002	-3.91247E-002	6.87552E-001	-4.39465E-002	-6.16280E-004	4.50216E-005	-5.29012E-003	-5.04521E-003	2.52858E-004	3.50326E-004	-6.15639E-003	3.93500E-004
	124	124	4.99930E-002	-8.85134E-003	0.00000E+000	-4.42505E-004	-8.67480E-002	4.12505E-002	3.44971E+001	11	...........	6.88662E-002	-5.08000E-003	5.90884E-001	5.63378E-001	-2.82651E-002	-3.91304E-002	6.87643E-001	-4.40737E-002	-6.09559E-004	4.49648E-005	-5.23012E-003	-4.98666E-003	2.50184E-004	3.46357E-004	-6.08656E-003	3.90112E-004
	125	125	4.99933E-002	-8.74855E-003	0.00000E+000	-4.37369E-004	-8.57233E-002	4.13520E-002	3.43853E+001	11	...........	6.89853E-002	-5.01597E-003	5.90899E-001	5.63219E-001	-2.82704E-002	-3.91467E-002	6.87640E-001	-4.40400E-002	-6.03521E-004	4.38825E-005	-5.16951E-003	-4.92735E-003	2.47325E-004	3.42477E-004	-6.01586E-003	3.85286E-004
	126	126	4.99931E-002	-8.64795E-003	0.00000E+000	-4.32338E-004	-8.47253E-002	4.12443E-002	3.44668E+001	11	...........	6.88404E-002	-5.07333E-003	5.90897E-001	5.63338E-001	-2.82642E-002	-3.91382E-002	6.87570E-001	-4.40608E-002	-5.95329E-004	4.38739E-005	-5.11005E-003	-4.87172E-003	2.44427E-004	3.38465E-004	-5.94607E-003	3.81036E-004
	127	127	4.99941E-002	-8.56544E-003	0.00000E+000	-4.28221E-004	-8.38987E-002	4.12699E-002	3.44936E+001	11	...........	6.88996E-002	-5.22833E-003	5.90895E-001	5.63290E-001	-2.83128E-002	-3.91572E-002	6.87489E-001	-4.39486E-002	-5.90155E-004	4.47830E-005	-5.06128E-003	-4.82483E-003	2.42511E-004	3.35399E-004	-5.88864E-003	3.76439E-004
	128	128	4.99933E-002	-8.52441E-003	0.00000E+000	-4.26164E-004	-8.34913E-002	4.12820E-002	3.45543E+001	11	...........	6.89149E-002	-5.19972E-003	5.90887E-001	5.63261E-001	-2.83661E-002	-3.91451E-002	6.87644E-001	-4.40821E-002	-5.87459E-004	4.43246E-005	-5.03696E-003	-4.80147E-003	2.41804E-004	3.33689E-004	-5.86176E-003	3.75774E-004
	129	129	4.99930E-002	-8.44373E-003	0.00000E+000	-4.22127E-004	-8.26860E-002	4.11610E-002	3.46067E+001	11	...........	6.89278E-002	-5.24472E-003	5.90895E-001	5.63196E-001	-2.83779E-002	-3.91421E-002	6.87530E-001	-4.41075E-002	-5.82008E-004	4.42850E-005	-4.98936E-003	-4.75548E-003	2.39615E-004	3.30505E-004	-5.80532E-003	3.72432E-004
	130	130	4.99930E-002	-8.33234E-003	0.00000E+000	-4.16559E-004	-8.15793E-002	4.13253E-002	3.46092E+001	11	...........	6.89811E-002	-5.13875E-003	5.90845E-001	5.63091E-001	-2.83354E-002	-3.91551E-002	6.87593E-001	-4.41244E-002	-5.74774E-004	4.28178E-005	-4.92312E-003	-4.69187E-003	2.36100E-004	3.26254E-004	-5.72926E-003	3.67660E-004
	131	131	4.99933E-002	-8.23484E-003	0.00000E+000	-4.11687E-004	-8.06073E-002	4.13466E-002	3.45037E+001	11	...........	6.90129E-002	-5.07028E-003	5.90820E-001	5.62961E-001	-2.83237E-002	-3.91704E-002	6.87679E-001	-4.42007E-002	-5.68310E-004	4.17529E-005	-4.86531E-003	-4.63589E-003	2.33241E-004	3.22562E-004	-5.66292E-003	3.63986E-004
	132	132	4.99929E-002	-8.11364E-003	0.00000E+000	-4.05624E-004	-7.94020E-002	4.12807E-002	3.46123E+001	11	...........	6.89251E-002	-5.14958E-003	5.90731E-001	5.62957E-001	-2.82811E-002	-3.91396E-002	6.87637E-001	-4.40839E-002	-5.59234E-004	4.17819E-005	-4.79298E-003	-4.56763E-003	2.29463E-004	3.17564E-004	-5.57924E-003	3.57681E-004
	133	133	4.99935E-002	-8.02819E-003	0.00000E+000	-4.01357E-004	-7.85507E-002	4.13135E-002	3.42105E+001	11	...........	6.89671E-002	-5.18167E-003	5.90830E-001	5.62990E-001	-2.82576E-002	-3.91679E-002	6.87602E-001	-4.39699E-002	-5.53681E-004	4.15994E-005	-4.74329E-003	-4.51979E-003	2.26858E-004	3.14448E-004	-5.52020E-003	3.52999E-004
	134	134	4.99934E-002	-7.96861E-003	0.00000E+000	-3.98378E-004	-7.79647E-002	4.13835E-002	3.43226E+001	11	...........	6.90460E-002	-5.12111E-003	5.91053E-001	5.63012E-001	-2.82071E-002	-3.91897E-002	6.87567E-001	-4.40967E-002	-5.50200E-004	4.08081E-005	-4.70987E-003	-4.48643E-003	2.24771E-004	3.12288E-004	-5.47895E-003	3.51389E-004
	135	135	4.99930E-002	-7.84079E-003	0.00000E+000	-3.91985E-004	-7.67040E-002	4.13501E-002	3.43835E+001	11	...........	6.90008E-002	-5.16833E-003	5.91088E-001	5.63086E-001	-2.82396E-002	-3.91643E-002	6.87673E-001	-4.42175E-002	-5.41021E-004	4.05238E-005	-4.63460E-003	-4.41504E-003	2.21421E-004	3.07079E-004	-5.39190E-003	3.46700E-004
	136	136	4.99925E-002	-7.69157E-003	0.00000E+000	-3.84521E-004	-7.52260E-002	4.13438E-002	3.37681E+001	11	...........	6.89890E-002	-5.14722E-003	5.91132E-001	5.63089E-001	-2.81978E-002	-3.91554E-002	6.87741E-001	-4.41575E-002	-5.30634E-004	3.95902E-005	-4.54674E-003	-4.33104E-003	2.16885E-004	3.01167E-004	-5.28981E-003	3.39641E-004
	137	137	4.99945E-002	-7.67628E-003	0.00000E+000	-3.83772E-004	-7.50673E-002	4.13262E-002	3.44006E+001	11	...........	6.89933E-002	-5.13542E-003	5.91165E-001	5.63066E-001	-2.82376E-002	-3.91353E-002	6.87770E-001	-4.40064E-002	-5.29612E-004	3.94209E-005	-4.53795E-003	-4.32226E-003	2.16760E-004	3.00413E-004	-5.27952E-003	3.37805E-004
	138	138	4.99934E-002	-7.61798E-003	0.00000E+000	-3.80849E-004	-7.44867E-002	4.13028E-002	3.45253E+001	11	...........	6.89568E-002	-5.21597E-003	5.91139E-001	5.63017E-001	-2.82547E-002	-3.91417E-002	6.87685E-001	-4.40211E-002	-5.25311E-004	3.97352E-005	-4.50328E-003	-4.28905E-003	2.15244E-004	2.98180E-004	-5.23876E-003	3.35352E-004
	139	139	4.99936E-002	-7.55191E-003	0.00000E+000	-3.77547E-004	-7.38233E-002	4.12976E-002	3.44754E+001	11	...........	6.88989E-002	-5.25444E-003	5.90984E-001	5.62952E-001	-2.82586E-002	-3.91447E-002	6.87759E-001	-4.41303E-002	-5.20318E-004	3.96811E-005	-4.46306E-003	-4.25137E-003	2.13407E-004	2.95618E-004	-5.19390E-003	3.33268E-004
	140	140	4.99931E-002	-7.47079E-003	0.00000E+000	-3.73488E-004	-7.30160E-002	4.13145E-002	3.45301E+001	11	...........	6.89793E-002	-5.21806E-003	5.91036E-001	5.62786E-001	-2.82757E-002	-3.91108E-002	6.87772E-001	-4.40829E-002	-5.15330E-004	3.89830E-005	-4.41551E-003	-4.20446E-003	2.11242E-004	2.92189E-004	-5.13820E-003	3.29334E-004
	141	141	4.99934E-002	-7.36294E-003	0.00000E+000	-3.68098E-004	-7.19447E-002	4.12994E-002	3.45558E+001	11	...........	6.89568E-002	-5.14611E-003	5.91125E-001	5.62653E-001	-2.82537E-002	-3.90924E-002	6.87774E-001	-4.41246E-002	-5.07725E-004	3.78905E-005	-4.35242E-003	-4.14278E-003	2.08031E-004	2.87835E-004	-5.06404E-003	3.24887E-004
	142	142	4.99931E-002	-7.26942E-003	0.00000E+000	-3.63421E-004	-7.10133E-002	4.13313E-002	3.45580E+001	11	...........	6.89937E-002	-5.18486E-003	5.91238E-001	5.62695E-001	-2.82868E-002	-3.91178E-002	6.87711E-001	-4.41393E-002	-5.01545E-004	3.76909E-005	-4.29796E-003	-4.09047E-003	2.05629E-004	2.84364E-004	-4.99926E-003	3.20867E-004
	143	143	4.99932E-002	-7.17201E-003	0.00000E+000	-3.58552E-004	-7.00393E-002	4.13375E-002	3.45664E+001	11	...........	6.90081E-002	-5.14569E-003	5.91153E-001	5.62717E-001	-2.82975E-002	-3.91354E-002	6.87666E-001	-4.40899E-002	-4.94926E-004	3.69050E-005	-4.23975E-003	-4.03581E-003	2.02950E-004	2.80679E-004	-4.93195E-003	3.16213E-004
	144	144	4.99933E-002	-7.07729E-003	0.00000E+000	-3.53817E-004	-6.91000E-002	4.13462E-002	3.45889E+001	11	...........	6.90287E-002	-5.03347E-003	5.91043E-001	5.62587E-001	-2.82846E-002	-3.91581E-002	6.87612E-001	-4.40667E-002	-4.88536E-004	3.56233E-005	-4.18298E-003	-3.98159E-003	2.00178E-004	2.77133E-004	-4.86643E-003	3.11873E-004
	145	145	4.99936E-002	-7.00811E-003	0.00000E+000	-3.50361E-004	-6.84160E-002	4.13683E-002	3.46173E+001	11	...........	6.90568E-002	-5.02653E-003	5.90997E-001	5.62414E-001	-2.83044E-002	-3.91728E-002	6.87648E-001	-4.40921E-002	-4.83958E-004	3.52265E-005	-4.14178E-003	-3.94146E-003	1.98361E-004	2.74527E-004	-4.81912E-003	3.09002E-004
	146	146	4.99932E-002	-6.92330E-003	0.00000E+000	-3.46118E-004	-6.75693E-002	4.13693E-002	3.46540E+001	11	...........	6.90372E-002	-5.03069E-003	5.91064E-001	5.62301E-001	-2.82914E-002	-3.91815E-002	6.87668E-001	-4.41519E-002	-4.77965E-004	3.48290E-005	-4.09211E-003	-3.89298E-003	1.95870E-004	2.71265E-004	-4.76093E-003	3.05677E-004
	147	147	4.99932E-002	-6.83469E-003	0.00000E+000	-3.41688E-004	-6.66807E-002	4.13653E-002	3.46747E+001	11	...........	6.90612E-002	-5.14972E-003	5.91023E-001	5.62228E-001	-2.82724E-002	-3.91487E-002	6.87780E-001	-4.40796E-002	-4.72012E-004	3.51968E-005	-4.03946E-003	-3.84266E-003	1.93233E-004	2.67570E-004	-4.70076E-003	3.01270E-004
	148	148	4.99935E-002	-6.74561E-003	0.00000E+000	-3.37237E-004	-6.57887E-002	4.13676E-002	3.46797E+001	11	...........	6.90557E-002	-5.18778E-003	5.91002E-001	5.62158E-001	-2.82885E-002	-3.91464E-002	6.87659E-001	-4.40542E-002	-4.65822E-004	3.49947E-005	-3.98666E-003	-3.79209E-003	1.90823E-004	2.64066E-004	-4.63867E-003	2.97172E-004
	149	149	4.99934E-002	-6.67319E-003	0.00000E+000	-3.33616E-004	-6.50673E-002	4.14210E-002	3.46677E+001	11	...........	6.91496E-002	-5.08986E-003	5.90840E-001	5.62196E-001	-2.82790E-002	-3.91460E-002	6.87624E-001	-4.40931E-002	-4.61449E-004	3.39656E-005	-3.94279E-003	-3.75165E-003	1.88711E-004	2.61229E-004	-4.58865E-003	2.94241E-004
	150	150	4.99934E-002	-6.60057E-003	0.00000E+000	-3.29985E-004	-6.43413E-002	4.13570E-002	3.46666E+001	11	...........	6.90437E-002	-5.05056E-003	5.90836E-001	5.62359E-001	-2.82372E-002	-3.91508E-002	6.87697E-001	-4.40792E-002	-4.55728E-004	3.33365E-005	-3.89985E-003	-3.71189E-003	1.86382E-004	2.58418E-004	-4.53919E-003	2.90948E-004
	151	151	4.99933E-002	-6.51402E-003	0.00000E+000	-3.25657E-004	-6.34833E-002	4.13902E-002	3.46784E+001	11	...........	6.90868E-002	-5.05708E-003	5.90692E-001	5.62458E-001	-2.82304E-002	-3.90971E-002	6.87626E-001	-4.40318E-002	-4.50033E-004	3.29419E-005	-3.84778E-003	-3.66386E-003	1.83893E-004	2.54679E-004	-4.47921E-003	2.86824E-004
	152	152	4.99931E-002	-6.42550E-003	0.00000E+000	-3.21231E-004	-6.26180E-002	4.14847E-002	3.46101E+001	11	...........	6.92535E-002	-5.08708E-003	5.90635E-001	5.62577E-001	-2.82436E-002	-3.90967E-002	6.87560E-001	-4.40619E-002	-4.44988E-004	3.26871E-005	-3.79513E-003	-3.61484E-003	1.81479E-004	2.51216E-004	-4.41792E-003	2.83120E-004
	153	153	4.99930E-002	-6.34057E-003	0.00000E+000	-3.16984E-004	-6.17813E-002	4.13543E-002	3.33666E+001	11	...........	6.90010E-002	-5.10500E-003	5.90559E-001	5.62663E-001	-2.82279E-002	-3.90694E-002	6.87521E-001	-4.40643E-002	-4.37505E-004	3.23686E-005	-3.74448E-003	-3.56761E-003	1.78981E-004	2.47723E-004	-4.35927E-003	2.79393E-004
	154	154	4.99954E-002	-6.28167E-003	0.00000E+000	-3.14055E-004	-6.11927E-002	4.14037E-002	3.40545E+001	11	...........	6.90706E-002	-5.10333E-003	5.90401E-001	5.62654E-001	-2.82119E-002	-3.90649E-002	6.87480E-001	-4.42047E-002	-4.33879E-004	3.20575E-005	-3.70871E-003	-3.53441E-003	1.77218E-004	2.45393E-004	-4.31853E-003	2.77680E-004
	155	155	4.99940E-002	-6.31471E-003	0.00000E+000	-3.15698E-004	-6.15227E-002	4.14299E-002	3.44878E+001	11	...........	6.91683E-002	-5.15375E-003	5.90428E-001	5.62465E-001	-2.82271E-002	-3.90718E-002	6.87416E-001	-4.39994E-002	-4.36778E-004	3.25444E-005	-3.72838E-003	-3.55181E-003	1.78246E-004	2.46727E-004	-4.34083E-003	2.77844E-004
	156	156	4.99938E-002	-6.29121E-003	0.00000E+000	-3.14522E-004	-6.12913E-002	4.14292E-002	3.44825E+001	11	...........	6.91644E-002	-5.15028E-003	5.90484E-001	5.62526E-001	-2.81790E-002	-3.90692E-002	6.87527E-001	-4.38601E-002	-4.35128E-004	3.24015E-005	-3.71486E-003	-3.53897E-003	1.77280E-004	2.45792E-004	-4.32537E-003	2.75933E-004
	157	157	4.99936E-002	-6.23412E-003	0.00000E+000	-3.11666E-004	-6.07153E-002	4.13957E-002	3.46155E+001	11	...........	6.91171E-002	-5.08417E-003	5.90409E-001	5.62522E-001	-2.82535E-002	-3.90485E-002	6.87435E-001	-4.39736E-002	-4.30884E-004	3.16953E-005	-3.68068E-003	-3.50683E-003	1.76135E-004	2.43433E-004	-4.28555E-003	2.74137E-004
	158	158	4.99939E-002	-6.19258E-003	0.00000E+000	-3.09591E-004	-6.03013E-002	4.14032E-002	3.46492E+001	11	...........	6.91289E-002	-5.03875E-003	5.90205E-001	5.62595E-001	-2.82492E-002	-3.90753E-002	6.87413E-001	-4.40040E-002	-4.28086E-004	3.12029E-005	-3.65489E-003	-3.48392E-003	1.74935E-004	2.41977E-004	-4.25686E-003	2.72498E-004
	159	159	4.99934E-002	-6.11547E-003	0.00000E+000	-3.05733E-004	-5.95320E-002	4.14233E-002	3.47040E+001	11	...........	6.91340E-002	-5.02625E-003	5.90205E-001	5.62628E-001	-2.82433E-002	-3.91033E-002	6.87476E-001	-4.40299E-002	-4.22787E-004	3.07379E-005	-3.60938E-003	-3.44074E-003	1.72721E-004	2.39135E-004	-4.20424E-003	2.69263E-004
	160	160	4.99931E-002	-6.02692E-003	0.00000E+000	-3.01305E-004	-5.86500E-002	4.14082E-002	3.47110E+001	11	...........	6.91233E-002	-4.98583E-003	5.90201E-001	5.62727E-001	-2.82107E-002	-3.91140E-002	6.87534E-001	-4.41169E-002	-4.16601E-004	3.00492E-005	-3.55710E-003	-3.39151E-003	1.70024E-004	2.35737E-004	-4.14371E-003	2.65889E-004
	161	161	4.99935E-002	-5.94028E-003	0.00000E+000	-2.96975E-004	-5.77847E-002	4.14321E-002	3.46827E+001	11	...........	6.91443E-002	-4.99458E-003	5.90123E-001	5.62723E-001	-2.82078E-002	-3.90585E-002	6.87554E-001	-4.40437E-002	-4.10736E-004	2.96692E-005	-3.50550E-003	-3.34273E-003	1.67562E-004	2.32018E-004	-4.08426E-003	2.61632E-004
	162	162	4.99936E-002	-5.87812E-003	0.00000E+000	-2.93868E-004	-5.71613E-002	4.14493E-002	3.47083E+001	11	...........	6.91615E-002	-5.04181E-003	5.90088E-001	5.62776E-001	-2.82074E-002	-3.90650E-002	6.87567E-001	-4.41033E-002	-4.06540E-004	2.96363E-005	-3.46861E-003	-3.30806E-003	1.65806E-004	2.29629E-004	-4.04160E-003	2.59245E-004
	163	163	4.99935E-002	-5.80842E-003	0.00000E+000	-2.90383E-004	-5.64720E-002	4.14526E-002	3.47263E+001	11	...........	6.91594E-002	-5.03847E-003	5.90106E-001	5.62773E-001	-2.82146E-002	-3.90369E-002	6.87521E-001	-4.40657E-002	-4.01707E-004	2.92655E-005	-3.42758E-003	-3.26882E-003	1.63882E-004	2.26743E-004	-3.99341E-003	2.55952E-004
	164	164	4.99935E-002	-5.74796E-003	0.00000E+000	-2.87361E-004	-5.58760E-002	4.14543E-002	3.47237E+001	11	...........	6.91837E-002	-5.00264E-003	5.90316E-001	5.62683E-001	-2.82350E-002	-3.90449E-002	6.87538E-001	-4.40092E-002	-3.97665E-004	2.87550E-005	-3.39311E-003	-3.23428E-003	1.62294E-004	2.24428E-004	-3.95194E-003	2.52963E-004
	165	165	4.99937E-002	-5.67954E-003	0.00000E+000	-2.83941E-004	-5.51880E-002	4.14475E-002	3.47246E+001	11	...........	6.91926E-002	-5.04458E-003	5.90359E-001	5.62620E-001	-2.82717E-002	-3.90607E-002	6.87647E-001	-4.39586E-002	-3.92983E-004	2.86509E-005	-3.35297E-003	-3.19542E-003	1.60570E-004	2.21847E-004	-3.90552E-003	2.49665E-004
	166	166	4.99937E-002	-5.61848E-003	0.00000E+000	-2.80888E-004	-5.45813E-002	4.14474E-002	3.47236E+001	11	...........	6.91939E-002	-5.02250E-003	5.90427E-001	5.62680E-001	-2.82347E-002	-3.90081E-002	6.87747E-001	-4.41022E-002	-3.88764E-004	2.82188E-005	-3.31730E-003	-3.16140E-003	1.58636E-004	2.19166E-004	-3.86409E-003	2.47787E-004
	167	167	4.99934E-002	-5.54594E-003	0.00000E+000	-2.77260E-004	-5.38627E-002	4.14668E-002	3.47454E+001	11	...........	6.92078E-002	-4.90194E-003	5.90408E-001	5.62700E-001	-2.82217E-002	-3.90428E-002	6.87527E-001	-4.40344E-002	-3.83822E-004	2.71859E-005	-3.27437E-003	-3.12070E-003	1.56516E-004	2.16529E-004	-3.81298E-003	2.44212E-004
	168	168	4.99937E-002	-5.48504E-003	0.00000E+000	-2.74218E-004	-5.32547E-002	4.14693E-002	3.47720E+001	11	...........	6.92394E-002	-5.02014E-003	5.90510E-001	5.62699E-001	-2.82262E-002	-3.90387E-002	6.87438E-001	-4.41008E-002	-3.79781E-004	2.75357E-005	-3.23897E-003	-3.08643E-003	1.54822E-004	2.14129E-004	-3.77063E-003	2.41895E-004
	169	169	4.99933E-002	-5.41907E-003	0.00000E+000	-2.70917E-004	-5.26033E-002	4.14668E-002	3.47744E+001	11	...........	6.92175E-002	-4.97944E-003	5.90642E-001	5.62740E-001	-2.83043E-002	-3.90431E-002	6.87546E-001	-4.39869E-002	-3.75094E-004	2.69839E-005	-3.20073E-003	-3.04952E-003	1.53383E-004	2.11577E-004	-3.72586E-003	2.38368E-004
	170	170	4.99936E-002	-5.35870E-003	0.00000E+000	-2.67901E-004	-5.20007E-002	4.14867E-002	3.47710E+001	11	...........	6.92414E-002	-5.05444E-003	5.90544E-001	5.62847E-001	-2.83028E-002	-3.90387E-002	6.87651E-001	-4.39221E-002	-3.71044E-004	2.70853E-005	-3.16455E-003	-3.01613E-003	1.51666E-004	2.09197E-004	-3.68492E-003	2.35365E-004
	171	171	4.99939E-002	-5.29188E-003	0.00000E+000	-2.64562E-004	-5.13367E-002	4.14788E-002	3.47529E+001	11	...........	6.92700E-002	-4.99792E-003	5.90523E-001	5.62831E-001	-2.83042E-002	-3.90143E-002	6.87641E-001	-4.40957E-002	-3.66569E-004	2.64484E-005	-3.12498E-003	-2.97844E-003	1.49782E-004	2.06459E-004	-3.63891E-003	2.33349E-004
	172	172	4.99933E-002	-5.23761E-003	0.00000E+000	-2.61846E-004	-5.08100E-002	4.14865E-002	3.47592E+001	11	...........	6.92525E-002	-5.06194E-003	5.90483E-001	5.62712E-001	-2.83310E-002	-3.90225E-002	6.87786E-001	-4.41211E-002	-3.62718E-004	2.65125E-005	-3.09272E-003	-2.94727E-003	1.48387E-004	2.04385E-004	-3.60236E-003	2.31089E-004
	173	173	4.99940E-002	-5.17606E-003	0.00000E+000	-2.58772E-004	-5.02007E-002	4.15094E-002	3.47645E+001	11	...........	6.92871E-002	-5.14653E-003	5.90560E-001	5.62738E-001	-2.83089E-002	-3.90308E-002	6.87738E-001	-4.40911E-002	-3.58634E-004	2.66388E-005	-3.05677E-003	-2.91277E-003	1.46529E-004	2.02026E-004	-3.55978E-003	2.28218E-004
	174	174	4.99937E-002	-5.12376E-003	0.00000E+000	-2.56155E-004	-4.96807E-002	4.15079E-002	3.47523E+001	11	...........	6.92610E-002	-5.11208E-003	5.90701E-001	5.62872E-001	-2.82900E-002	-3.89857E-002	6.87791E-001	-4.40783E-002	-3.54876E-004	2.61931E-005	-3.02661E-003	-2.88402E-003	1.44951E-004	1.99753E-004	-3.52408E-003	2.25847E-004
	175	175	4.99935E-002	-5.06528E-003	0.00000E+000	-2.53231E-004	-4.90993E-002	4.14971E-002	3.47715E+001	11	...........	6.92667E-002	-5.05111E-003	5.90539E-001	5.62861E-001	-2.83258E-002	-3.89824E-002	6.87809E-001	-4.41643E-002	-3.50855E-004	2.55853E-005	-2.99125E-003	-2.85105E-003	1.43478E-004	1.97457E-004	-3.48395E-003	2.23705E-004
	176	175.058	4.99922E-002	-5.02806E-003	0.00000E+000	-2.51364E-004	-4.87314E-002	4.14814E-002	3.47970E+001	11	...........	6.92524E-002	-5.07857E-003	5.90483E-001	5.62817E-001	-2.79143E-002	-3.90738E-002	6.87710E-001	-4.41190E-002	-3.48205E-004	2.55353E-005	-2.96898E-003	-2.82987E-003	1.40355E-004	1.96465E-004	-3.45784E-003	2.21833E-004
STARTTIMEOFFSET	QUANT	547862.2	Start Time Offset (s)
