EXPLAIN
TAG	PWR800_DISCHARGE
TITLE	LABEL	PWR Discharge	Test Identifier
DATE	LABEL	10/13/2022	Date
TIME	LABEL	15:26:03	Time
NOTES	NOTES	1	Notes...
	
PSTAT	PSTAT	REF3000-21114	Potentiostat
CAPACITY	QUANT	5.30000E-002	Capacity (A-hr)
CELLTYPE	SELECTOR	1	Cell Type
WORKINGCONNECTION	SELECTOR	0	Working Connection
MAXDISCHARGETIME	VARIABLEANDUNITS	7.20000E+003	s	2.00000E+000	hour(s)	Max Discharge Time
DISCHARGEMODE	MULTIPARAM	0	1.00000E-001	Discharge Mode	Constant Current	Amp(s)
VOLTAGEFINISH	TWOPARAM	T	5.00000E-003	7.20000E+003	Voltage Finish	I (A) <	Max Time(s)
SAMPLETIME	QUANT	1.00000E+000	Sample Period (s)
DISCHARGESTOPAT1	MULTIPARAM	1	5.00000E-002	Stop At 1	|Voltage| < Limit	V
DISCHARGESTOPAT2	MULTIPARAM	0	0.00000E+000	Stop At 2	None	N/A
AESELECTOR	AESELECTOR	0x1	T	Set Limits	AE Channels
AESBHCSELECTOR	TOGGLE	F	Save Both Half Cells
IRCOMP	TOGGLE	F	IR Measure
EOC	QUANT	0.5683163	Open Circuit (V)
SEQUENCER	TOGGLE	TRUE	Run as Sequence
PSTATMODEL	IQUANT	5	Pstat Model
PSTATSECTION	LABEL	REF3000-21114	Pstat Section
PSTATSERIALNO	LABEL	21114	Pstat Serial Number
CTRLMODE	IQUANT	0	Control Mode
ELECTROMETER	IQUANT	0	RE=0 or CS=1
IESTAB	IQUANT	0	I/E Stability
CASPEED	IQUANT	4	Control Amp Speed
CONVENTION	IQUANT	1	Current Convention
ICHRANGE	IQUANT	2	Ich Range
ICHRANGEMODE	TOGGLE	T	Ich Auto Range
ICHOFFSETENABLE	TOGGLE	F	Ich Offset Enable
ICHOFFSET	QUANT	0	Ich Offset (V)
ICHFILTER	IQUANT	1	Ich Filter
VCHRANGE	IQUANT	3	Vch Range
VCHRANGEMODE	TOGGLE	T	Vch Auto Range
VCHOFFSETENABLE	TOGGLE	F	Vch Offset Enable
VCHOFFSET	QUANT	0	Vch Offset (V)
VCHFILTER	IQUANT	1	Vch Filter
ACHRANGE	IQUANT	2	Ach Range
ACHOFFSETENABLE	TOGGLE	F	Ach Offset Enable
ACHOFFSET	QUANT	0	Ach Offset (V)
ACHFILTER	IQUANT	1	Ach Filter
IERANGELOWERLIMIT	IQUANT	9	I/E Range Lower Limit
IERANGEMODE	TOGGLE	F	I/E AutoRange
IERANGE	IQUANT	9	I/E Range
POSFEEDENABLE	TOGGLE	F	Positive Feedback IR Comp
POSFEEDRESISTANCE	QUANT	0	Positive Feedback Resistance (ohm)
ACHSELECT	IQUANT	1	Ach Select
SENSECABLEID	IQUANT	13	Sense Cable ID
PWRCABLEID	IQUANT	13	Power Cable ID
DCCALDATE	LABEL		DC Calibration Date
ACCALDATE	LABEL		AC Calibration Date
THERMOSELECT	IQUANT	1	Thermo Select
FRAMEWORKVERSION	LABEL	7.8.6	Framework Version
INSTRUMENTVERSION	LABEL	4.50	Instrument Version
COMPLIANCEVOLTAGE	IQUANT	0	Compliance Voltage
CURVE	TABLE	234
	Pt	T	Vf	Im	Vu	Pwr	Sig	Ach	Temp	IERange	Over	Vf1	Vf2	Vf3	Vf4	Vf5	Vf6	Vf7	Vf8	Pwr1	Pwr2	Pwr3	Pwr4	Pwr5	Pwr6	Pwr7	Pwr8
	#	s	V	A	V	W	V	V	deg C	#	bits	V	V	V	V	V	V	V	V	W	W	W	W	W	W	W	W
	0	1	3.49508E-001	-1.00081E-001	0.00000E+000	-3.49792E-002	-9.94000E-001	3.77523E-002	3.21393E+001	11	...........	6.22764E-002	-5.17222E-003	6.00709E-001	5.48370E-001	-2.77735E-002	-3.87604E-002	6.93717E-001	-4.39668E-002	-6.23270E-003	5.17643E-004	-6.01197E-002	-5.48816E-002	2.77960E-003	3.87919E-003	-6.94281E-002	4.40025E-003
	1	2	2.64950E-001	-1.00082E-001	0.00000E+000	-2.65167E-002	-9.94000E-001	3.78027E-002	3.13350E+001	11	...........	6.23364E-002	-5.21250E-003	6.00619E-001	5.48292E-001	-2.77651E-002	-3.87325E-002	6.93618E-001	-4.39686E-002	-6.23875E-003	5.21677E-004	-6.01111E-002	-5.48741E-002	2.77879E-003	3.87642E-003	-6.94186E-002	4.40046E-003
	2	3	2.00972E-001	-1.00082E-001	0.00000E+000	-2.01137E-002	-9.94000E-001	3.77503E-002	3.06080E+001	11	...........	6.22603E-002	-5.25972E-003	6.00602E-001	5.48212E-001	-2.77600E-002	-3.87351E-002	6.93760E-001	-4.39810E-002	-6.23115E-003	5.26405E-004	-6.01096E-002	-5.48663E-002	2.77828E-003	3.87670E-003	-6.94331E-002	4.40172E-003
	3	4	1.49150E-001	-1.00082E-001	0.00000E+000	-1.49273E-002	-9.94000E-001	3.76938E-002	2.97824E+001	11	...........	6.21717E-002	-5.25722E-003	6.00488E-001	5.48157E-001	-2.77464E-002	-3.87379E-002	6.93696E-001	-4.40274E-002	-6.22228E-003	5.26155E-004	-6.00982E-002	-5.48608E-002	2.77692E-003	3.87698E-003	-6.94267E-002	4.40636E-003
	4	5	1.07047E-001	-1.00082E-001	0.00000E+000	-1.07135E-002	-9.94000E-001	3.76920E-002	2.94602E+001	11	...........	6.21708E-002	-5.25667E-003	6.00327E-001	5.48183E-001	-2.77621E-002	-3.87131E-002	6.93692E-001	-4.39839E-002	-6.22221E-003	5.26100E-004	-6.00822E-002	-5.48635E-002	2.77850E-003	3.87450E-003	-6.94264E-002	4.40202E-003
	5	6	7.47097E-002	-1.00082E-001	0.00000E+000	-7.47712E-003	-9.94000E-001	3.77628E-002	2.92636E+001	11	...........	6.23114E-002	-5.18306E-003	6.00381E-001	5.48247E-001	-2.77747E-002	-3.87094E-002	6.93705E-001	-4.38989E-002	-6.23627E-003	5.18732E-004	-6.00875E-002	-5.48698E-002	2.77976E-003	3.87413E-003	-6.94276E-002	4.39350E-003
	6	6.47833	5.53982E-002	-1.00082E-001	0.00000E+000	-5.54436E-003	-9.94000E-001	3.78293E-002	2.91342E+001	11	...........	6.24170E-002	-5.14402E-003	6.00314E-001	5.48149E-001	-2.77430E-002	-3.87332E-002	6.93717E-001	-4.39239E-002	-6.24681E-003	5.14823E-004	-6.00806E-002	-5.48598E-002	2.77658E-003	3.87649E-003	-6.94285E-002	4.39599E-003
	7	7	4.97706E-002	-9.51501E-002	0.00000E+000	-4.73568E-003	-9.44951E-001	3.78799E-002	2.93106E+001	11	...........	6.25170E-002	-5.15495E-003	6.00411E-001	5.48030E-001	-2.77934E-002	-3.86952E-002	6.93747E-001	-4.39388E-002	-5.94850E-003	4.90494E-004	-5.71291E-002	-5.21451E-002	2.64455E-003	3.68185E-003	-6.60101E-002	4.18078E-003
	8	8	4.98552E-002	-8.61769E-002	0.00000E+000	-4.29636E-003	-8.55741E-001	3.80097E-002	2.97256E+001	11	...........	6.26799E-002	-5.22569E-003	6.00603E-001	5.47984E-001	-2.78339E-002	-3.87056E-002	6.93778E-001	-4.37986E-002	-5.40156E-003	4.50334E-004	-5.17581E-002	-4.72236E-002	2.39864E-003	3.33552E-003	-5.97876E-002	3.77443E-003
	9	9	4.99058E-002	-7.95567E-002	0.00000E+000	-3.97035E-003	-7.89920E-001	3.80991E-002	3.01086E+001	11	...........	6.28374E-002	-5.25806E-003	6.00626E-001	5.48100E-001	-2.78257E-002	-3.87115E-002	6.93848E-001	-4.38375E-002	-4.99914E-003	4.18314E-004	-4.77839E-002	-4.36051E-002	2.21372E-003	3.07976E-003	-5.52003E-002	3.48757E-003
	10	10	4.99225E-002	-7.49748E-002	0.00000E+000	-3.74293E-003	-7.44350E-001	3.82106E-002	3.03920E+001	11	...........	6.30183E-002	-5.20250E-003	6.00605E-001	5.48070E-001	-2.78149E-002	-3.87392E-002	6.93774E-001	-4.38647E-002	-4.72479E-003	3.90056E-004	-4.50302E-002	-4.10915E-002	2.08541E-003	2.90446E-003	-5.20156E-002	3.28875E-003
	11	11	4.99343E-002	-7.20451E-002	0.00000E+000	-3.59752E-003	-7.15234E-001	3.83225E-002	3.05987E+001	11	...........	6.32275E-002	-5.26917E-003	6.00758E-001	5.48033E-001	-2.78193E-002	-3.87778E-002	6.93696E-001	-4.38946E-002	-4.55523E-003	3.79617E-004	-4.32816E-002	-3.94830E-002	2.00424E-003	2.79375E-003	-4.99774E-002	3.16239E-003
	12	12	4.99423E-002	-6.96908E-002	0.00000E+000	-3.48052E-003	-6.91842E-001	3.84075E-002	3.07713E+001	11	...........	6.33479E-002	-5.27319E-003	6.01017E-001	5.48085E-001	-2.78119E-002	-3.87901E-002	6.93681E-001	-4.39440E-002	-4.41477E-003	3.67493E-004	-4.18853E-002	-3.81965E-002	1.93824E-003	2.70332E-003	-4.83432E-002	3.06249E-003
	13	13	4.99294E-002	-6.76979E-002	0.00000E+000	-3.38011E-003	-6.72026E-001	3.84893E-002	3.02920E+001	11	...........	6.34575E-002	-5.24264E-003	6.00944E-001	5.48021E-001	-2.78076E-002	-3.87650E-002	6.93742E-001	-4.39499E-002	-4.29594E-003	3.54915E-004	-4.06827E-002	-3.70998E-002	1.88252E-003	2.62431E-003	-4.69649E-002	2.97531E-003
	14	14	4.99734E-002	-6.61041E-002	0.00000E+000	-3.30345E-003	-6.56160E-001	3.84827E-002	3.08665E+001	11	...........	6.35553E-002	-5.26431E-003	6.00755E-001	5.48147E-001	-2.78006E-002	-3.87753E-002	6.93839E-001	-4.39774E-002	-4.20127E-003	3.47992E-004	-3.97124E-002	-3.62348E-002	1.83773E-003	2.56321E-003	-4.58656E-002	2.90709E-003
	15	15	4.99540E-002	-6.56511E-002	0.00000E+000	-3.27953E-003	-6.51657E-001	3.86491E-002	3.10716E+001	11	...........	6.37092E-002	-5.30181E-003	6.00604E-001	5.48229E-001	-2.78151E-002	-3.87614E-002	6.93795E-001	-4.38925E-002	-4.18258E-003	3.48069E-004	-3.94303E-002	-3.59919E-002	1.82609E-003	2.54473E-003	-4.55484E-002	2.88159E-003
	16	16	4.99519E-002	-6.45101E-002	0.00000E+000	-3.22240E-003	-6.40320E-001	3.87071E-002	3.11596E+001	11	...........	6.38096E-002	-5.24278E-003	6.00541E-001	5.48350E-001	-2.78456E-002	-3.87674E-002	6.94001E-001	-4.38976E-002	-4.11636E-003	3.38212E-004	-3.87409E-002	-3.53741E-002	1.79632E-003	2.50088E-003	-4.47700E-002	2.83184E-003
	17	17	4.99540E-002	-6.33721E-002	0.00000E+000	-3.16569E-003	-6.28994E-001	3.88147E-002	3.12442E+001	11	...........	6.39899E-002	-5.24403E-003	6.00449E-001	5.48412E-001	-2.78232E-002	-3.87615E-002	6.93890E-001	-4.39129E-002	-4.05517E-003	3.32325E-004	-3.80517E-002	-3.47540E-002	1.76321E-003	2.45640E-003	-4.39732E-002	2.78285E-003
	18	18	4.99581E-002	-6.24284E-002	0.00000E+000	-3.11880E-003	-6.19619E-001	3.89110E-002	3.13522E+001	11	...........	6.41599E-002	-5.32194E-003	6.00406E-001	5.48554E-001	-2.77864E-002	-3.87231E-002	6.93856E-001	-4.39018E-002	-4.00540E-003	3.32241E-004	-3.74824E-002	-3.42453E-002	1.73466E-003	2.41742E-003	-4.33164E-002	2.74072E-003
	19	19	4.99550E-002	-6.14732E-002	0.00000E+000	-3.07089E-003	-6.10128E-001	3.89737E-002	3.14474E+001	11	...........	6.42637E-002	-5.19833E-003	6.00401E-001	5.48497E-001	-2.77758E-002	-3.87381E-002	6.93857E-001	-4.39464E-002	-3.95050E-003	3.19558E-004	-3.69086E-002	-3.37179E-002	1.70747E-003	2.38135E-003	-4.26536E-002	2.70153E-003
	20	20	4.99566E-002	-6.06819E-002	0.00000E+000	-3.03146E-003	-6.02252E-001	3.88857E-002	3.15332E+001	11	...........	6.44299E-002	-5.25569E-003	6.00398E-001	5.48422E-001	-2.77592E-002	-3.87303E-002	6.93936E-001	-4.39651E-002	-3.90973E-003	3.18926E-004	-3.64333E-002	-3.32793E-002	1.68448E-003	2.35023E-003	-4.21094E-002	2.66789E-003
	21	21	4.99575E-002	-5.98849E-002	0.00000E+000	-2.99170E-003	-5.94337E-001	3.88322E-002	3.16166E+001	11	...........	6.45346E-002	-5.38722E-003	6.00461E-001	5.48446E-001	-2.77583E-002	-3.87106E-002	6.93912E-001	-4.39736E-002	-3.86465E-003	3.22613E-004	-3.59585E-002	-3.28436E-002	1.66230E-003	2.31818E-003	-4.15548E-002	2.63336E-003
	22	22	4.99626E-002	-5.93458E-002	0.00000E+000	-2.96507E-003	-5.88969E-001	3.89014E-002	3.16555E+001	11	...........	6.46436E-002	-5.35167E-003	6.00391E-001	5.48284E-001	-2.77506E-002	-3.87275E-002	6.93912E-001	-4.39368E-002	-3.83633E-003	3.17599E-004	-3.56307E-002	-3.25384E-002	1.64688E-003	2.29832E-003	-4.11808E-002	2.60747E-003
	23	23	4.99564E-002	-5.86860E-002	0.00000E+000	-2.93174E-003	-5.82406E-001	3.89765E-002	3.17150E+001	11	...........	6.47569E-002	-5.33486E-003	6.00254E-001	5.48295E-001	-2.77358E-002	-3.87315E-002	6.93903E-001	-4.40771E-002	-3.80033E-003	3.13082E-004	-3.52265E-002	-3.21773E-002	1.62771E-003	2.27300E-003	-4.07224E-002	2.58671E-003
	24	24	4.99582E-002	-5.79252E-002	0.00000E+000	-2.89384E-003	-5.74834E-001	3.90283E-002	3.17719E+001	11	...........	6.48603E-002	-5.35778E-003	6.00237E-001	5.48426E-001	-2.77653E-002	-3.87333E-002	6.93926E-001	-4.40361E-002	-3.75704E-003	3.10350E-004	-3.47688E-002	-3.17677E-002	1.60831E-003	2.24363E-003	-4.01958E-002	2.55080E-003
	25	25	4.99558E-002	-5.69121E-002	0.00000E+000	-2.84309E-003	-5.64759E-001	3.91001E-002	3.18455E+001	11	...........	6.49739E-002	-5.33111E-003	6.00330E-001	5.48435E-001	-2.78050E-002	-3.87426E-002	6.93851E-001	-4.39618E-002	-3.69780E-003	3.03405E-004	-3.41661E-002	-3.12126E-002	1.58244E-003	2.20493E-003	-3.94885E-002	2.50196E-003
	26	26	4.99580E-002	-5.61878E-002	0.00000E+000	-2.80703E-003	-5.57555E-001	3.91653E-002	3.18780E+001	11	...........	6.50926E-002	-5.35125E-003	6.00227E-001	5.48351E-001	-2.78381E-002	-3.87115E-002	6.93799E-001	-4.39294E-002	-3.65741E-003	3.00675E-004	-3.37254E-002	-3.08107E-002	1.56416E-003	2.17512E-003	-3.89830E-002	2.46830E-003
	27	27	4.99595E-002	-5.55450E-002	0.00000E+000	-2.77500E-003	-5.51151E-001	3.92245E-002	3.19469E+001	11	...........	6.51811E-002	-5.30944E-003	6.00221E-001	5.48458E-001	-2.78119E-002	-3.87015E-002	6.93769E-001	-4.38779E-002	-3.62049E-003	2.94913E-004	-3.33393E-002	-3.04641E-002	1.54482E-003	2.14968E-003	-3.85354E-002	2.43720E-003
	28	28	4.99590E-002	-5.46415E-002	0.00000E+000	-2.72984E-003	-5.42184E-001	3.92911E-002	3.13615E+001	11	...........	6.53022E-002	-5.33028E-003	6.00358E-001	5.48410E-001	-2.78200E-002	-3.87126E-002	6.93836E-001	-4.38883E-002	-3.56821E-003	2.91254E-004	-3.28045E-002	-2.99660E-002	1.52013E-003	2.11532E-003	-3.79123E-002	2.39812E-003
	29	29	4.99593E-002	-5.34637E-002	0.00000E+000	-2.67101E-003	-5.30465E-001	3.92493E-002	3.15948E+001	11	...........	6.52207E-002	-5.30708E-003	6.00177E-001	5.48546E-001	-2.78153E-002	-3.87112E-002	6.93881E-001	-4.38901E-002	-3.48694E-003	2.83736E-004	-3.20876E-002	-2.93273E-002	1.48711E-003	2.06965E-003	-3.70974E-002	2.34653E-003
	30	30	4.99653E-002	-5.40751E-002	0.00000E+000	-2.70188E-003	-5.36559E-001	3.94142E-002	3.19933E+001	11	...........	6.54764E-002	-5.26500E-003	6.00353E-001	5.48635E-001	-2.78147E-002	-3.87199E-002	6.93776E-001	-4.39160E-002	-3.54064E-003	2.84705E-004	-3.24641E-002	-2.96675E-002	1.50408E-003	2.09378E-003	-3.75160E-002	2.37476E-003
	31	31	4.99573E-002	-5.34564E-002	0.00000E+000	-2.67054E-003	-5.30392E-001	3.94112E-002	3.20787E+001	11	...........	6.54885E-002	-5.21139E-003	6.00475E-001	5.48530E-001	-2.78324E-002	-3.87225E-002	6.93755E-001	-4.39786E-002	-3.50078E-003	2.78582E-004	-3.20992E-002	-2.93225E-002	1.48782E-003	2.06997E-003	-3.70856E-002	2.35094E-003
	32	32	4.99564E-002	-5.28736E-002	0.00000E+000	-2.64138E-003	-5.24589E-001	3.94940E-002	3.21341E+001	11	...........	6.56254E-002	-5.35556E-003	6.00595E-001	5.48569E-001	-2.78186E-002	-3.87064E-002	6.93871E-001	-4.39911E-002	-3.46985E-003	2.83167E-004	-3.17556E-002	-2.90048E-002	1.47087E-003	2.04655E-003	-3.66875E-002	2.32597E-003
	33	33	4.99665E-002	-5.23053E-002	0.00000E+000	-2.61351E-003	-5.18951E-001	3.95467E-002	3.21505E+001	11	...........	6.57147E-002	-5.38903E-003	6.00751E-001	5.48517E-001	-2.78124E-002	-3.87079E-002	6.93962E-001	-4.39847E-002	-3.43723E-003	2.81875E-004	-3.14225E-002	-2.86903E-002	1.45473E-003	2.02463E-003	-3.62979E-002	2.30063E-003
	34	34	4.99580E-002	-5.17482E-002	0.00000E+000	-2.58524E-003	-5.13428E-001	3.96204E-002	3.22239E+001	11	...........	6.58293E-002	-5.36875E-003	6.00919E-001	5.48382E-001	-2.78085E-002	-3.87342E-002	6.93959E-001	-4.39910E-002	-3.40655E-003	2.77823E-004	-3.10965E-002	-2.83778E-002	1.43904E-003	2.00442E-003	-3.59111E-002	2.27645E-003
	35	35	4.99622E-002	-5.12689E-002	0.00000E+000	-2.56150E-003	-5.08680E-001	3.96542E-002	3.22750E+001	11	...........	6.59035E-002	-5.32528E-003	6.00783E-001	5.48299E-001	-2.77818E-002	-3.87367E-002	6.93876E-001	-4.39644E-002	-3.37880E-003	2.73021E-004	-3.08015E-002	-2.81107E-002	1.42434E-003	1.98598E-003	-3.55742E-002	2.25401E-003
	36	36	4.99576E-002	-5.07514E-002	0.00000E+000	-2.53542E-003	-5.03523E-001	3.97132E-002	3.23133E+001	11	...........	6.59986E-002	-5.24250E-003	6.00769E-001	5.48165E-001	-2.78054E-002	-3.87244E-002	6.93918E-001	-4.41389E-002	-3.34952E-003	2.66064E-004	-3.04899E-002	-2.78202E-002	1.41116E-003	1.96532E-003	-3.52173E-002	2.24011E-003
	37	37	4.99588E-002	-4.99836E-002	0.00000E+000	-2.49712E-003	-4.95900E-001	3.97535E-002	3.23560E+001	11	...........	6.60597E-002	-5.30208E-003	6.00773E-001	5.48158E-001	-2.78021E-002	-3.87210E-002	6.94077E-001	-4.40097E-002	-3.30191E-003	2.65017E-004	-3.00288E-002	-2.73989E-002	1.38965E-003	1.93541E-003	-3.46925E-002	2.19977E-003
	38	38	4.99592E-002	-4.94006E-002	0.00000E+000	-2.46802E-003	-4.90094E-001	3.97942E-002	3.23815E+001	11	...........	6.61278E-002	-5.31056E-003	6.00818E-001	5.48264E-001	-2.78178E-002	-3.87267E-002	6.94011E-001	-4.39789E-002	-3.26675E-003	2.62345E-004	-2.96808E-002	-2.70846E-002	1.37422E-003	1.91312E-003	-3.42846E-002	2.17258E-003
	39	39	4.99605E-002	-4.87701E-002	0.00000E+000	-2.43658E-003	-4.83831E-001	3.98558E-002	3.24167E+001	11	...........	6.62171E-002	-5.27431E-003	6.00785E-001	5.48274E-001	-2.78296E-002	-3.87271E-002	6.94088E-001	-4.39139E-002	-3.22941E-003	2.57228E-004	-2.93004E-002	-2.67394E-002	1.35725E-003	1.88872E-003	-3.38507E-002	2.14168E-003
	40	40	4.99575E-002	-4.81315E-002	0.00000E+000	-2.40453E-003	-4.77465E-001	3.99077E-002	3.24631E+001	11	...........	6.62765E-002	-5.31556E-003	6.00745E-001	5.48348E-001	-2.78337E-002	-3.87486E-002	6.94083E-001	-4.39360E-002	-3.18999E-003	2.55846E-004	-2.89148E-002	-2.63928E-002	1.33968E-003	1.86503E-003	-3.34073E-002	2.11471E-003
	41	41	4.99658E-002	-4.76349E-002	0.00000E+000	-2.38012E-003	-4.72534E-001	3.99456E-002	3.24845E+001	11	...........	6.63585E-002	-5.26486E-003	6.00864E-001	5.48341E-001	-2.78507E-002	-3.87442E-002	6.94028E-001	-4.39022E-002	-3.16098E-003	2.50791E-004	-2.86221E-002	-2.61202E-002	1.32667E-003	1.84558E-003	-3.30600E-002	2.09128E-003
	42	42	4.99615E-002	-4.74244E-002	0.00000E+000	-2.36940E-003	-4.70449E-001	3.99907E-002	3.25476E+001	11	...........	6.64439E-002	-5.34069E-003	6.00818E-001	5.48191E-001	-2.78651E-002	-3.87667E-002	6.93975E-001	-4.38943E-002	-3.15106E-003	2.53279E-004	-2.84934E-002	-2.59976E-002	1.32149E-003	1.83849E-003	-3.29114E-002	2.08166E-003
	43	43	4.99588E-002	-4.68369E-002	0.00000E+000	-2.33992E-003	-4.64597E-001	4.00298E-002	3.26131E+001	11	...........	6.65094E-002	-5.33264E-003	6.00835E-001	5.47982E-001	-2.78533E-002	-3.88135E-002	6.93971E-001	-4.38822E-002	-3.11509E-003	2.49764E-004	-2.81412E-002	-2.56657E-002	1.30456E-003	1.81790E-003	-3.25034E-002	2.05531E-003
	44	44	4.99602E-002	-4.62061E-002	0.00000E+000	-2.30847E-003	-4.58330E-001	4.00658E-002	3.26377E+001	11	...........	6.66010E-002	-5.31806E-003	6.00792E-001	5.47930E-001	-2.78300E-002	-3.88257E-002	6.93975E-001	-4.39206E-002	-3.07737E-003	2.45727E-004	-2.77603E-002	-2.53177E-002	1.28592E-003	1.79399E-003	-3.20659E-002	2.02940E-003
	45	45	4.99631E-002	-4.58662E-002	0.00000E+000	-2.29162E-003	-4.54942E-001	4.01087E-002	3.26845E+001	11	...........	6.66482E-002	-5.41611E-003	6.00879E-001	5.47789E-001	-2.78129E-002	-3.88276E-002	6.94044E-001	-4.39121E-002	-3.05690E-003	2.48416E-004	-2.75600E-002	-2.51250E-002	1.27567E-003	1.78088E-003	-3.18331E-002	2.01408E-003
	46	46	4.99605E-002	-4.54175E-002	0.00000E+000	-2.26908E-003	-4.50466E-001	4.01585E-002	3.27443E+001	11	...........	6.67239E-002	-5.34694E-003	6.00870E-001	5.47708E-001	-2.77974E-002	-3.88326E-002	6.94006E-001	-4.39472E-002	-3.03043E-003	2.42845E-004	-2.72900E-002	-2.48755E-002	1.26249E-003	1.76368E-003	-3.15200E-002	1.99597E-003
	47	47	4.99592E-002	-4.48339E-002	0.00000E+000	-2.23987E-003	-4.44685E-001	4.01898E-002	3.28138E+001	11	...........	6.67868E-002	-5.20722E-003	6.00919E-001	5.47641E-001	-2.77732E-002	-3.88012E-002	6.94066E-001	-4.39374E-002	-2.99432E-003	2.33460E-004	-2.69416E-002	-2.45529E-002	1.24518E-003	1.73961E-003	-3.11177E-002	1.96988E-003
	48	48	4.99591E-002	-4.41780E-002	0.00000E+000	-2.20709E-003	-4.38158E-001	4.02373E-002	3.28790E+001	11	...........	6.68690E-002	-5.14014E-003	6.01008E-001	5.47534E-001	-2.77744E-002	-3.87937E-002	6.93921E-001	-4.40012E-002	-2.95414E-003	2.27081E-004	-2.65513E-002	-2.41890E-002	1.22702E-003	1.71383E-003	-3.06560E-002	1.94389E-003
	49	49	4.99636E-002	-4.37004E-002	0.00000E+000	-2.18343E-003	-4.33420E-001	4.02957E-002	3.27401E+001	11	...........	6.69461E-002	-5.20153E-003	6.00935E-001	5.47588E-001	-2.77594E-002	-3.87724E-002	6.93907E-001	-4.39207E-002	-2.92557E-003	2.27309E-004	-2.62611E-002	-2.39298E-002	1.21310E-003	1.69437E-003	-3.03240E-002	1.91935E-003
	50	50	4.99550E-002	-4.29701E-002	0.00000E+000	-2.14657E-003	-4.26140E-001	4.03040E-002	3.24766E+001	11	...........	6.69650E-002	-5.16153E-003	6.01039E-001	5.47595E-001	-2.77550E-002	-3.87318E-002	6.93951E-001	-4.39978E-002	-2.87749E-003	2.21791E-004	-2.58267E-002	-2.35302E-002	1.19263E-003	1.66431E-003	-2.98191E-002	1.89059E-003
	51	51	4.99586E-002	-4.20454E-002	0.00000E+000	-2.10053E-003	-4.16943E-001	4.03071E-002	3.26028E+001	11	...........	6.69669E-002	-5.13556E-003	6.01057E-001	5.47515E-001	-2.77651E-002	-3.87343E-002	6.94003E-001	-4.39340E-002	-2.81565E-003	2.15926E-004	-2.52717E-002	-2.30205E-002	1.16740E-003	1.62860E-003	-2.91796E-002	1.84722E-003
	52	52	4.99681E-002	-4.21319E-002	0.00000E+000	-2.10525E-003	-4.17814E-001	4.03993E-002	3.30053E+001	11	...........	6.71393E-002	-5.17333E-003	6.01051E-001	5.47636E-001	-2.77571E-002	-3.87475E-002	6.93978E-001	-4.39917E-002	-2.82871E-003	2.17962E-004	-2.53234E-002	-2.30730E-002	1.16946E-003	1.63251E-003	-2.92386E-002	1.85345E-003
	53	53	4.99611E-002	-4.18090E-002	0.00000E+000	-2.08882E-003	-4.14597E-001	4.03400E-002	3.31271E+001	11	...........	6.70262E-002	-5.30194E-003	6.01027E-001	5.47894E-001	-2.77543E-002	-3.87072E-002	6.93993E-001	-4.40119E-002	-2.80230E-003	2.21669E-004	-2.51284E-002	-2.29069E-002	1.16038E-003	1.61831E-003	-2.90151E-002	1.84010E-003
	54	54	4.99624E-002	-4.13903E-002	0.00000E+000	-2.06796E-003	-4.10438E-001	4.03616E-002	3.31518E+001	11	...........	6.70824E-002	-5.28625E-003	6.00990E-001	5.47977E-001	-2.77396E-002	-3.87165E-002	6.94010E-001	-4.40340E-002	-2.77656E-003	2.18800E-004	-2.48752E-002	-2.26809E-002	1.14815E-003	1.60249E-003	-2.87253E-002	1.82258E-003
	55	55	4.99642E-002	-4.10899E-002	0.00000E+000	-2.05303E-003	-4.07477E-001	4.04484E-002	3.31594E+001	11	...........	6.72008E-002	-5.27819E-003	6.00927E-001	5.47856E-001	-2.77603E-002	-3.87026E-002	6.93979E-001	-4.40321E-002	-2.76128E-003	2.16881E-004	-2.46921E-002	-2.25114E-002	1.14067E-003	1.59029E-003	-2.85155E-002	1.80928E-003
	56	56	4.99570E-002	-4.06982E-002	0.00000E+000	-2.03316E-003	-4.03578E-001	4.04877E-002	3.31958E+001	11	...........	6.72858E-002	-5.26847E-003	6.00786E-001	5.47716E-001	-2.77233E-002	-3.87133E-002	6.93825E-001	-4.39661E-002	-2.73842E-003	2.14418E-004	-2.44509E-002	-2.22911E-002	1.12829E-003	1.57556E-003	-2.82374E-002	1.78934E-003
	57	57	4.99652E-002	-4.01635E-002	0.00000E+000	-2.00678E-003	-3.98242E-001	4.05361E-002	3.32407E+001	11	...........	6.73640E-002	-5.18736E-003	6.00948E-001	5.47670E-001	-2.77158E-002	-3.87015E-002	6.93821E-001	-4.39718E-002	-2.70557E-003	2.08343E-004	-2.41362E-002	-2.19963E-002	1.11316E-003	1.55439E-003	-2.78663E-002	1.76606E-003
	58	58	4.99589E-002	-3.96254E-002	0.00000E+000	-1.97964E-003	-3.92913E-001	4.05711E-002	3.32811E+001	11	...........	6.74210E-002	-5.30569E-003	6.01071E-001	5.47553E-001	-2.77033E-002	-3.86871E-002	6.93928E-001	-4.39712E-002	-2.67159E-003	2.10240E-004	-2.38177E-002	-2.16970E-002	1.09776E-003	1.53299E-003	-2.74972E-002	1.74238E-003
	59	59	4.99619E-002	-3.90722E-002	0.00000E+000	-1.95212E-003	-3.87407E-001	4.05952E-002	3.33008E+001	11	...........	6.74622E-002	-5.33528E-003	6.01140E-001	5.47599E-001	-2.77519E-002	-3.86811E-002	6.93916E-001	-4.39657E-002	-2.63590E-003	2.08461E-004	-2.34879E-002	-2.13959E-002	1.08433E-003	1.51136E-003	-2.71128E-002	1.71784E-003
	60	60	4.99618E-002	-3.87872E-002	0.00000E+000	-1.93788E-003	-3.84573E-001	4.06479E-002	3.33133E+001	11	...........	6.75347E-002	-5.34639E-003	6.01075E-001	5.47572E-001	-2.78283E-002	-3.86931E-002	6.93896E-001	-4.39321E-002	-2.61948E-003	2.07372E-004	-2.33140E-002	-2.12388E-002	1.07938E-003	1.50080E-003	-2.69143E-002	1.70400E-003
	61	61	4.99605E-002	-3.82455E-002	0.00000E+000	-1.91076E-003	-3.79188E-001	4.06760E-002	3.33337E+001	11	...........	6.75843E-002	-5.31806E-003	6.01061E-001	5.47746E-001	-2.78433E-002	-3.86982E-002	6.93911E-001	-4.39354E-002	-2.58480E-003	2.03392E-004	-2.29879E-002	-2.09488E-002	1.06488E-003	1.48003E-003	-2.65390E-002	1.68033E-003
	62	62	4.99596E-002	-3.77025E-002	0.00000E+000	-1.88360E-003	-3.73770E-001	4.07224E-002	3.33629E+001	11	...........	6.76464E-002	-5.29361E-003	6.01194E-001	5.47923E-001	-2.78407E-002	-3.87185E-002	6.93946E-001	-4.39864E-002	-2.55044E-003	1.99582E-004	-2.26665E-002	-2.06581E-002	1.04966E-003	1.45978E-003	-2.61635E-002	1.65840E-003
	63	63	4.99632E-002	-3.73413E-002	0.00000E+000	-1.86569E-003	-3.70184E-001	4.07644E-002	3.33851E+001	11	...........	6.77215E-002	-5.20431E-003	6.01298E-001	5.48017E-001	-2.78412E-002	-3.87156E-002	6.93943E-001	-4.38978E-002	-2.52881E-003	1.94335E-004	-2.24532E-002	-2.04637E-002	1.03963E-003	1.44569E-003	-2.59127E-002	1.63920E-003
	64	64	4.99628E-002	-3.68894E-002	0.00000E+000	-1.84310E-003	-3.65706E-001	4.07886E-002	3.34570E+001	11	...........	6.77747E-002	-5.20306E-003	6.01351E-001	5.47915E-001	-2.77908E-002	-3.87083E-002	6.93925E-001	-4.39156E-002	-2.50017E-003	1.91937E-004	-2.21834E-002	-2.02122E-002	1.02519E-003	1.42793E-003	-2.55985E-002	1.62002E-003
	65	65	4.99624E-002	-3.66006E-002	0.00000E+000	-1.82865E-003	-3.62825E-001	4.07971E-002	3.34886E+001	11	...........	6.78057E-002	-5.25486E-003	6.01248E-001	5.47890E-001	-2.77867E-002	-3.86947E-002	6.93870E-001	-4.38007E-002	-2.48173E-003	1.92331E-004	-2.20060E-002	-2.00531E-002	1.01701E-003	1.41625E-003	-2.53960E-002	1.60313E-003
	66	66	4.99618E-002	-3.61665E-002	0.00000E+000	-1.80694E-003	-3.58508E-001	4.08309E-002	3.35390E+001	11	...........	6.78622E-002	-5.30972E-003	6.01091E-001	5.47666E-001	-2.78089E-002	-3.87319E-002	6.93949E-001	-4.38810E-002	-2.45434E-003	1.92034E-004	-2.17394E-002	-1.98071E-002	1.00575E-003	1.40080E-003	-2.50977E-002	1.58702E-003
	67	67	4.99615E-002	-3.57200E-002	0.00000E+000	-1.78462E-003	-3.54064E-001	4.08707E-002	3.35803E+001	11	...........	6.79100E-002	-5.36389E-003	6.01033E-001	5.47552E-001	-2.78037E-002	-3.87487E-002	6.94009E-001	-4.38836E-002	-2.42574E-003	1.91598E-004	-2.14689E-002	-1.95586E-002	9.93150E-004	1.38410E-003	-2.47900E-002	1.56752E-003
	68	68	4.99603E-002	-3.52478E-002	0.00000E+000	-1.76099E-003	-3.49361E-001	4.08900E-002	3.36076E+001	11	...........	6.79493E-002	-5.33847E-003	6.01148E-001	5.47315E-001	-2.77814E-002	-3.87332E-002	6.93853E-001	-4.39329E-002	-2.39507E-003	1.88170E-004	-2.11892E-002	-1.92917E-002	9.79234E-004	1.36526E-003	-2.44568E-002	1.54854E-003
	69	69	4.99617E-002	-3.47785E-002	0.00000E+000	-1.73759E-003	-3.44695E-001	4.09270E-002	3.36406E+001	11	...........	6.80046E-002	-5.43250E-003	6.01230E-001	5.47308E-001	-2.77790E-002	-3.87244E-002	6.93851E-001	-4.39612E-002	-2.36510E-003	1.88934E-004	-2.09099E-002	-1.90345E-002	9.66113E-004	1.34678E-003	-2.41311E-002	1.52891E-003
	70	70	4.99636E-002	-3.42362E-002	0.00000E+000	-1.71056E-003	-3.39315E-001	4.09468E-002	3.36945E+001	11	...........	6.80225E-002	-5.46417E-003	6.01195E-001	5.47335E-001	-2.77922E-002	-3.87053E-002	6.93932E-001	-4.39665E-002	-2.32883E-003	1.87072E-004	-2.05826E-002	-1.87387E-002	9.51500E-004	1.32512E-003	-2.37576E-002	1.50525E-003
	71	71	4.99597E-002	-3.40113E-002	0.00000E+000	-1.69919E-003	-3.37073E-001	4.10005E-002	3.37363E+001	11	...........	6.81244E-002	-5.38208E-003	6.01072E-001	5.47441E-001	-2.78025E-002	-3.87082E-002	6.93882E-001	-4.39865E-002	-2.31700E-003	1.83051E-004	-2.04432E-002	-1.86192E-002	9.45598E-004	1.31651E-003	-2.35998E-002	1.49604E-003
	72	72	4.99512E-002	-3.33312E-002	0.00000E+000	-1.66493E-003	-3.30308E-001	4.09755E-002	3.28265E+001	11	...........	6.80742E-002	-5.42569E-003	6.01119E-001	5.47539E-001	-2.77922E-002	-3.87374E-002	6.93902E-001	-4.41139E-002	-2.26899E-003	1.80845E-004	-2.00360E-002	-1.82501E-002	9.26347E-004	1.29116E-003	-2.31286E-002	1.47037E-003
	73	73	4.99744E-002	-3.29678E-002	0.00000E+000	-1.64755E-003	-3.26698E-001	4.10075E-002	3.33998E+001	11	...........	6.81318E-002	-5.31319E-003	6.01275E-001	5.47512E-001	-2.77656E-002	-3.87061E-002	6.93884E-001	-4.39538E-002	-2.24616E-003	1.75164E-004	-1.98227E-002	-1.80503E-002	9.15369E-004	1.27605E-003	-2.28758E-002	1.44906E-003
	74	74	4.99636E-002	-3.29440E-002	0.00000E+000	-1.64600E-003	-3.26459E-001	4.10459E-002	3.37881E+001	11	...........	6.82000E-002	-5.25931E-003	6.01292E-001	5.47459E-001	-2.77365E-002	-3.87035E-002	6.93830E-001	-4.40431E-002	-2.24678E-003	1.73262E-004	-1.98090E-002	-1.80355E-002	9.13752E-004	1.27505E-003	-2.28575E-002	1.45095E-003
	75	75	4.99610E-002	-3.24549E-002	0.00000E+000	-1.62148E-003	-3.21574E-001	4.10750E-002	3.38794E+001	11	...........	6.82632E-002	-5.23806E-003	6.01264E-001	5.47465E-001	-2.77272E-002	-3.87336E-002	6.93856E-001	-4.41129E-002	-2.21547E-003	1.70000E-004	-1.95139E-002	-1.77679E-002	8.99883E-004	1.25709E-003	-2.25190E-002	1.43168E-003
	76	76	4.99622E-002	-3.20900E-002	0.00000E+000	-1.60329E-003	-3.17967E-001	4.11198E-002	3.39310E+001	11	...........	6.83371E-002	-5.31847E-003	6.01125E-001	5.47416E-001	-2.77486E-002	-3.87249E-002	6.93818E-001	-4.40751E-002	-2.19294E-003	1.70670E-004	-1.92901E-002	-1.75666E-002	8.90453E-004	1.24268E-003	-2.22646E-002	1.41437E-003
	77	77	4.99616E-002	-3.16586E-002	0.00000E+000	-1.58172E-003	-3.13674E-001	4.11155E-002	3.39560E+001	11	...........	6.83222E-002	-5.39167E-003	6.01133E-001	5.47482E-001	-2.77471E-002	-3.87132E-002	6.93849E-001	-4.40800E-002	-2.16299E-003	1.70693E-004	-1.90311E-002	-1.73325E-002	8.78435E-004	1.22561E-003	-2.19663E-002	1.39551E-003
	78	78	4.99617E-002	-3.12363E-002	0.00000E+000	-1.56062E-003	-3.09470E-001	4.11691E-002	3.39971E+001	11	...........	6.84124E-002	-5.32458E-003	6.01146E-001	5.47561E-001	-2.77707E-002	-3.87389E-002	6.93769E-001	-4.39451E-002	-2.13695E-003	1.66320E-004	-1.87775E-002	-1.71037E-002	8.67452E-004	1.21006E-003	-2.16708E-002	1.37268E-003
	79	79	4.99640E-002	-3.08957E-002	0.00000E+000	-1.54367E-003	-3.06129E-001	4.11970E-002	3.39812E+001	11	...........	6.84537E-002	-5.26750E-003	6.01126E-001	5.47746E-001	-2.77904E-002	-3.87271E-002	6.93908E-001	-4.38657E-002	-2.11492E-003	1.62743E-004	-1.85722E-002	-1.69230E-002	8.58604E-004	1.19650E-003	-2.14388E-002	1.35526E-003
	80	80	4.99638E-002	-3.06444E-002	0.00000E+000	-1.53111E-003	-3.03627E-001	4.12353E-002	3.40084E+001	11	...........	6.85243E-002	-5.35625E-003	6.01190E-001	5.47615E-001	-2.78421E-002	-3.87119E-002	6.94001E-001	-4.39222E-002	-2.09988E-003	1.64139E-004	-1.84231E-002	-1.67813E-002	8.53203E-004	1.18630E-003	-2.12672E-002	1.34597E-003
	81	81	4.99593E-002	-3.02032E-002	0.00000E+000	-1.50893E-003	-2.99228E-001	4.12541E-002	3.40818E+001	11	...........	6.85565E-002	-5.31056E-003	6.01182E-001	5.47566E-001	-2.78501E-002	-3.87379E-002	6.93868E-001	-4.39964E-002	-2.07063E-003	1.60396E-004	-1.81576E-002	-1.65383E-002	8.41163E-004	1.17001E-003	-2.09570E-002	1.32883E-003
	82	82	4.99646E-002	-2.98092E-002	0.00000E+000	-1.48941E-003	-2.95293E-001	4.12566E-002	3.41022E+001	11	...........	6.85715E-002	-5.26931E-003	6.01204E-001	5.47632E-001	-2.78464E-002	-3.87428E-002	6.93786E-001	-4.40274E-002	-2.04406E-003	1.57074E-004	-1.79214E-002	-1.63245E-002	8.30078E-004	1.15489E-003	-2.06812E-002	1.31242E-003
	83	83	4.99616E-002	-2.94975E-002	0.00000E+000	-1.47374E-003	-2.92217E-001	4.12988E-002	3.41478E+001	11	...........	6.86342E-002	-5.32153E-003	6.01186E-001	5.47504E-001	-2.78444E-002	-3.87574E-002	6.93803E-001	-4.39525E-002	-2.02454E-003	1.56972E-004	-1.77335E-002	-1.61500E-002	8.21342E-004	1.14325E-003	-2.04655E-002	1.29649E-003
	84	84	4.99619E-002	-2.90355E-002	0.00000E+000	-1.45067E-003	-2.87625E-001	4.13053E-002	3.41973E+001	11	...........	6.86526E-002	-5.27931E-003	6.01099E-001	5.47518E-001	-2.78485E-002	-3.87461E-002	6.93897E-001	-4.39710E-002	-1.99336E-003	1.53287E-004	-1.74532E-002	-1.58974E-002	8.08593E-004	1.12501E-003	-2.01476E-002	1.27672E-003
	85	85	4.99598E-002	-2.87023E-002	0.00000E+000	-1.43396E-003	-2.84307E-001	4.13535E-002	3.35240E+001	11	...........	6.87071E-002	-5.25903E-003	6.00999E-001	5.47578E-001	-2.78368E-002	-3.87275E-002	6.94046E-001	-4.39724E-002	-1.97205E-003	1.50946E-004	-1.72500E-002	-1.57168E-002	7.98980E-004	1.11157E-003	-1.99207E-002	1.26211E-003
	86	86	4.99666E-002	-2.80934E-002	0.00000E+000	-1.40373E-003	-2.78253E-001	4.13183E-002	3.40567E+001	11	...........	6.86657E-002	-5.26056E-003	6.00830E-001	5.47674E-001	-2.78268E-002	-3.87446E-002	6.93967E-001	-4.39958E-002	-1.92905E-003	1.47787E-004	-1.68794E-002	-1.53860E-002	7.81750E-004	1.08847E-003	-1.94959E-002	1.23599E-003
	87	87	4.99657E-002	-2.82598E-002	0.00000E+000	-1.41202E-003	-2.79915E-001	4.13664E-002	3.41956E+001	11	...........	6.87879E-002	-5.31958E-003	6.00778E-001	5.47683E-001	-2.77868E-002	-3.87561E-002	6.93979E-001	-4.40165E-002	-1.94393E-003	1.50330E-004	-1.69778E-002	-1.54774E-002	7.85248E-004	1.09524E-003	-1.96117E-002	1.24390E-003
	88	88	4.99632E-002	-2.79865E-002	0.00000E+000	-1.39830E-003	-2.77188E-001	4.13877E-002	3.42493E+001	11	...........	6.87794E-002	-5.36403E-003	6.00791E-001	5.47853E-001	-2.77267E-002	-3.87469E-002	6.93932E-001	-4.40067E-002	-1.92490E-003	1.50120E-004	-1.68140E-002	-1.53325E-002	7.75973E-004	1.08439E-003	-1.94207E-002	1.23159E-003
	89	89	4.99623E-002	-2.76170E-002	0.00000E+000	-1.37981E-003	-2.73503E-001	4.14035E-002	3.42783E+001	11	...........	6.88024E-002	-5.39431E-003	6.00715E-001	5.47687E-001	-2.77532E-002	-3.87535E-002	6.93858E-001	-4.39021E-002	-1.90011E-003	1.48974E-004	-1.65899E-002	-1.51255E-002	7.66460E-004	1.07025E-003	-1.91623E-002	1.21244E-003
	90	90	4.99631E-002	-2.73160E-002	0.00000E+000	-1.36479E-003	-2.70499E-001	4.14646E-002	3.43260E+001	11	...........	6.88868E-002	-5.42319E-003	6.00708E-001	5.47486E-001	-2.77608E-002	-3.87481E-002	6.93901E-001	-4.38526E-002	-1.88171E-003	1.48140E-004	-1.64089E-002	-1.49551E-002	7.58314E-004	1.05844E-003	-1.89546E-002	1.19788E-003
	91	91	4.99612E-002	-2.68463E-002	0.00000E+000	-1.34127E-003	-2.65853E-001	4.14557E-002	3.43677E+001	11	...........	6.88872E-002	-5.40764E-003	6.00707E-001	5.47324E-001	-2.77829E-002	-3.87118E-002	6.94040E-001	-4.39179E-002	-1.84936E-003	1.45175E-004	-1.61268E-002	-1.46936E-002	7.45868E-004	1.03927E-003	-1.86324E-002	1.17903E-003
	92	92	4.99629E-002	-2.65328E-002	0.00000E+000	-1.32565E-003	-2.62737E-001	4.14925E-002	3.44038E+001	11	...........	6.89304E-002	-5.33361E-003	6.00777E-001	5.47312E-001	-2.78214E-002	-3.87147E-002	6.93953E-001	-4.39256E-002	-1.82891E-003	1.41515E-004	-1.59403E-002	-1.45217E-002	7.38178E-004	1.02721E-003	-1.84125E-002	1.16547E-003
	93	93	4.99628E-002	-2.62035E-002	0.00000E+000	-1.30920E-003	-2.59451E-001	4.15152E-002	3.44238E+001	11	...........	6.89676E-002	-5.36750E-003	6.00937E-001	5.47276E-001	-2.83771E-002	-3.87011E-002	6.94051E-001	-4.40743E-002	-1.80719E-003	1.40647E-004	-1.57466E-002	-1.43405E-002	7.43578E-004	1.01410E-003	-1.81865E-002	1.15490E-003
	94	94	4.99626E-002	-2.58809E-002	0.00000E+000	-1.29308E-003	-2.56245E-001	4.15207E-002	3.41818E+001	11	...........	6.89965E-002	-5.38222E-003	6.00762E-001	5.47417E-001	-2.84829E-002	-3.87939E-002	6.94032E-001	-4.40047E-002	-1.78570E-003	1.39297E-004	-1.55483E-002	-1.41677E-002	7.37165E-004	1.00402E-003	-1.79622E-002	1.13888E-003
	95	95	4.99615E-002	-2.52718E-002	0.00000E+000	-1.26262E-003	-2.50180E-001	4.15162E-002	3.44778E+001	11	...........	6.89822E-002	-5.32889E-003	6.00718E-001	5.47598E-001	-2.76453E-002	-3.87975E-002	6.93960E-001	-4.40131E-002	-1.74331E-003	1.34671E-004	-1.51812E-002	-1.38388E-002	6.98646E-004	9.80483E-004	-1.75376E-002	1.11229E-003
	96	96	4.99628E-002	-2.50641E-002	0.00000E+000	-1.25227E-003	-2.48113E-001	4.15573E-002	3.46215E+001	11	...........	6.90518E-002	-5.36542E-003	6.00893E-001	5.47560E-001	-2.75365E-002	-3.87324E-002	6.93759E-001	-4.39596E-002	-1.73072E-003	1.34479E-004	-1.50608E-002	-1.37241E-002	6.90178E-004	9.70792E-004	-1.73885E-002	1.10181E-003
	97	97	4.99636E-002	-2.47219E-002	0.00000E+000	-1.23519E-003	-2.44700E-001	4.15387E-002	3.46547E+001	11	...........	6.90225E-002	-5.32014E-003	6.01070E-001	5.47408E-001	-2.75817E-002	-3.87058E-002	6.93695E-001	-4.39765E-002	-1.70637E-003	1.31524E-004	-1.48596E-002	-1.35330E-002	6.81871E-004	9.56881E-004	-1.71495E-002	1.08718E-003
	98	98	4.99622E-002	-2.44292E-002	0.00000E+000	-1.22054E-003	-2.41806E-001	4.15932E-002	3.46722E+001	11	...........	6.91050E-002	-5.29097E-003	6.01034E-001	5.47444E-001	-2.76518E-002	-3.87125E-002	6.93747E-001	-4.39533E-002	-1.68818E-003	1.29254E-004	-1.46828E-002	-1.33736E-002	6.75513E-004	9.45717E-004	-1.69477E-002	1.07375E-003
	99	99	4.99629E-002	-2.40866E-002	0.00000E+000	-1.20344E-003	-2.38410E-001	4.15988E-002	3.47069E+001	11	...........	6.91094E-002	-5.30806E-003	6.01082E-001	5.47418E-001	-2.77158E-002	-3.87226E-002	6.93840E-001	-4.39101E-002	-1.66461E-003	1.27853E-004	-1.44780E-002	-1.31855E-002	6.67581E-004	9.32698E-004	-1.67123E-002	1.05765E-003
	100	100	4.99657E-002	-2.37985E-002	0.00000E+000	-1.18911E-003	-2.35539E-001	4.16077E-002	3.47013E+001	11	...........	6.91254E-002	-5.30403E-003	6.01052E-001	5.47343E-001	-2.77665E-002	-3.87337E-002	6.93767E-001	-4.38968E-002	-1.64508E-003	1.26228E-004	-1.43041E-002	-1.30259E-002	6.60801E-004	9.21804E-004	-1.65106E-002	1.04468E-003
	101	101	4.99631E-002	-2.36656E-002	0.00000E+000	-1.18241E-003	-2.34215E-001	4.16552E-002	3.47671E+001	11	...........	6.92211E-002	-5.27569E-003	6.01153E-001	5.47411E-001	-2.77765E-002	-3.87050E-002	6.93703E-001	-4.40049E-002	-1.63816E-003	1.24852E-004	-1.42266E-002	-1.29548E-002	6.57348E-004	9.15977E-004	-1.64169E-002	1.04140E-003
	102	102	4.99631E-002	-2.33646E-002	0.00000E+000	-1.16737E-003	-2.31221E-001	4.16426E-002	3.48027E+001	11	...........	6.91828E-002	-5.32250E-003	6.01323E-001	5.47441E-001	-2.77858E-002	-3.87025E-002	6.93634E-001	-4.40939E-002	-1.61643E-003	1.24358E-004	-1.40497E-002	-1.27907E-002	6.49204E-004	9.04267E-004	-1.62064E-002	1.03023E-003
	103	103	4.99651E-002	-2.30459E-002	0.00000E+000	-1.15149E-003	-2.28063E-001	4.16829E-002	3.46645E+001	11	...........	6.92561E-002	-5.36403E-003	6.01398E-001	5.47437E-001	-2.78021E-002	-3.87114E-002	6.93829E-001	-4.41136E-002	-1.59607E-003	1.23619E-004	-1.38598E-002	-1.26162E-002	6.40725E-004	8.92140E-004	-1.59899E-002	1.01664E-003
	104	104	4.99618E-002	-2.27865E-002	0.00000E+000	-1.13845E-003	-2.25476E-001	4.16564E-002	3.46076E+001	11	...........	6.92165E-002	-5.29458E-003	6.01275E-001	5.47306E-001	-2.78074E-002	-3.87072E-002	6.93809E-001	-4.41649E-002	-1.57720E-003	1.20645E-004	-1.37010E-002	-1.24712E-002	6.33633E-004	8.82003E-004	-1.58095E-002	1.00636E-003
	105	105	4.99666E-002	-2.26332E-002	0.00000E+000	-1.13090E-003	-2.23947E-001	4.17100E-002	3.47032E+001	11	...........	6.93121E-002	-5.33486E-003	6.01191E-001	5.47155E-001	-2.77894E-002	-3.86846E-002	6.93882E-001	-4.40703E-002	-1.56875E-003	1.20745E-004	-1.36069E-002	-1.23839E-002	6.28964E-004	8.75556E-004	-1.57048E-002	9.97452E-004
	106	106	4.99580E-002	-2.23068E-002	0.00000E+000	-1.11440E-003	-2.20698E-001	4.17378E-002	3.42421E+001	11	...........	6.93660E-002	-5.39319E-003	6.01293E-001	5.47211E-001	-2.77619E-002	-3.86871E-002	6.93924E-001	-4.40415E-002	-1.54733E-003	1.20305E-004	-1.34129E-002	-1.22065E-002	6.19280E-004	8.62985E-004	-1.54792E-002	9.82425E-004
	107	107	4.99675E-002	-2.17858E-002	0.00000E+000	-1.08858E-003	-2.15529E-001	4.17362E-002	3.47616E+001	11	...........	6.93458E-002	-5.42722E-003	6.01426E-001	5.47265E-001	-2.77497E-002	-3.86771E-002	6.93961E-001	-4.40853E-002	-1.51075E-003	1.18236E-004	-1.31025E-002	-1.19226E-002	6.04550E-004	8.42611E-004	-1.51185E-002	9.60433E-004
	108	108	4.99647E-002	-2.18761E-002	0.00000E+000	-1.09303E-003	-2.16424E-001	4.17889E-002	3.49447E+001	11	...........	6.94340E-002	-5.39500E-003	6.01318E-001	5.47261E-001	-2.77610E-002	-3.86764E-002	6.93957E-001	-4.41826E-002	-1.51895E-003	1.18022E-004	-1.31545E-002	-1.19719E-002	6.07302E-004	8.46089E-004	-1.51811E-002	9.66544E-004
	109	109	4.99629E-002	-2.15768E-002	0.00000E+000	-1.07804E-003	-2.13453E-001	4.17567E-002	3.49782E+001	11	...........	6.93767E-002	-5.22569E-003	6.01358E-001	5.47258E-001	-2.77683E-002	-3.86537E-002	6.94017E-001	-4.41118E-002	-1.49693E-003	1.12754E-004	-1.29754E-002	-1.18081E-002	5.99152E-004	8.34024E-004	-1.49747E-002	9.51791E-004
	110	110	4.99644E-002	-2.12834E-002	0.00000E+000	-1.06341E-003	-2.10530E-001	4.17781E-002	3.49671E+001	11	...........	6.93996E-002	-5.20361E-003	6.01389E-001	5.47180E-001	-2.77633E-002	-3.86737E-002	6.94054E-001	-4.40701E-002	-1.47706E-003	1.10750E-004	-1.27996E-002	-1.16458E-002	5.90897E-004	8.23108E-004	-1.47718E-002	9.37961E-004
	111	111	4.99634E-002	-2.10634E-002	0.00000E+000	-1.05240E-003	-2.08339E-001	4.18096E-002	3.50080E+001	11	...........	6.94601E-002	-5.23653E-003	6.01559E-001	5.47240E-001	-2.77750E-002	-3.86911E-002	6.93843E-001	-4.39753E-002	-1.46307E-003	1.10299E-004	-1.26709E-002	-1.15267E-002	5.85037E-004	8.14968E-004	-1.46147E-002	9.26271E-004
	112	112	4.99647E-002	-2.08399E-002	0.00000E+000	-1.04126E-003	-2.06112E-001	4.18116E-002	3.50393E+001	11	...........	6.94764E-002	-5.21972E-003	6.01531E-001	5.47248E-001	-2.77994E-002	-3.87087E-002	6.93787E-001	-4.40603E-002	-1.44788E-003	1.08779E-004	-1.25359E-002	-1.14046E-002	5.79338E-004	8.06687E-004	-1.44585E-002	9.18213E-004
	113	113	4.99626E-002	-2.05499E-002	0.00000E+000	-1.02673E-003	-2.03250E-001	4.18265E-002	3.50660E+001	11	...........	6.95057E-002	-5.21514E-003	6.01492E-001	5.47321E-001	-2.77917E-002	-3.87265E-002	6.93850E-001	-4.40878E-002	-1.42833E-003	1.07171E-004	-1.23606E-002	-1.12474E-002	5.71116E-004	7.95826E-004	-1.42585E-002	9.05999E-004
	114	114	4.99635E-002	-2.02807E-002	0.00000E+000	-1.01330E-003	-2.00572E-001	4.18505E-002	3.50958E+001	11	...........	6.95437E-002	-5.30889E-003	6.01441E-001	5.47354E-001	-2.77662E-002	-3.87468E-002	6.93855E-001	-4.41175E-002	-1.41040E-003	1.07668E-004	-1.21977E-002	-1.11007E-002	5.63119E-004	7.85813E-004	-1.40719E-002	8.94734E-004
	115	115	4.99620E-002	-1.99049E-002	0.00000E+000	-9.94487E-004	-1.96825E-001	4.18574E-002	3.50846E+001	11	...........	6.95586E-002	-5.22181E-003	6.01383E-001	5.47339E-001	-2.77399E-002	-3.87210E-002	6.93752E-001	-4.40590E-002	-1.38455E-003	1.03939E-004	-1.19705E-002	-1.08947E-002	5.52158E-004	7.70735E-004	-1.38090E-002	8.76989E-004
	116	116	4.99633E-002	-1.95738E-002	0.00000E+000	-9.77970E-004	-1.93517E-001	4.18714E-002	3.51212E+001	11	...........	6.95792E-002	-5.26417E-003	6.01376E-001	5.47236E-001	-2.76956E-002	-3.87281E-002	6.93722E-001	-4.40289E-002	-1.36193E-003	1.03040E-004	-1.17712E-002	-1.07115E-002	5.42107E-004	7.58054E-004	-1.35788E-002	8.61812E-004
	117	117	4.99648E-002	-1.93361E-002	0.00000E+000	-9.66125E-004	-1.91165E-001	4.18852E-002	3.51520E+001	11	...........	6.95903E-002	-5.33264E-003	6.01360E-001	5.47146E-001	-2.77225E-002	-3.87401E-002	6.93798E-001	-4.39540E-002	-1.34560E-003	1.03112E-004	-1.16280E-002	-1.05797E-002	5.36045E-004	7.49083E-004	-1.34154E-002	8.49899E-004
	118	118	4.99634E-002	-1.90924E-002	0.00000E+000	-9.53920E-004	-1.88762E-001	4.19098E-002	3.51835E+001	11	...........	6.96360E-002	-5.27417E-003	6.01387E-001	5.47086E-001	-2.77162E-002	-3.87026E-002	6.93867E-001	-4.39829E-002	-1.32952E-003	1.00696E-004	-1.14819E-002	-1.04452E-002	5.29169E-004	7.38926E-004	-1.32476E-002	8.39739E-004
	119	119	4.99637E-002	-1.87972E-002	0.00000E+000	-9.39178E-004	-1.85815E-001	4.19086E-002	3.52052E+001	11	...........	6.96261E-002	-5.26944E-003	6.01211E-001	5.47095E-001	-2.77135E-002	-3.86736E-002	6.93903E-001	-4.40664E-002	-1.30878E-003	9.90509E-005	-1.13011E-002	-1.02839E-002	5.20936E-004	7.26956E-004	-1.30434E-002	8.28325E-004
	120	120	4.99638E-002	-1.85825E-002	0.00000E+000	-9.28452E-004	-1.83683E-001	4.19218E-002	3.52577E+001	11	...........	6.96599E-002	-5.31778E-003	6.01213E-001	5.47158E-001	-2.76631E-002	-3.86781E-002	6.93797E-001	-4.39768E-002	-1.29445E-003	9.88176E-005	-1.11720E-002	-1.01676E-002	5.14049E-004	7.18735E-004	-1.28925E-002	8.17199E-004
	121	121	4.99636E-002	-1.83011E-002	0.00000E+000	-9.14388E-004	-1.80877E-001	4.19359E-002	3.52915E+001	11	...........	6.96814E-002	-5.43431E-003	6.01152E-001	5.47094E-001	-2.76919E-002	-3.86876E-002	6.93821E-001	-4.39511E-002	-1.27524E-003	9.94536E-005	-1.10017E-002	-1.00124E-002	5.06792E-004	7.08025E-004	-1.26977E-002	8.04352E-004
	122	122	4.99635E-002	-1.80334E-002	0.00000E+000	-9.01013E-004	-1.78230E-001	4.19437E-002	3.53011E+001	11	...........	6.96787E-002	-5.40944E-003	6.01041E-001	5.47104E-001	-2.77033E-002	-3.86999E-002	6.93702E-001	-4.39660E-002	-1.25655E-003	9.75508E-005	-1.08388E-002	-9.86615E-003	4.99586E-004	6.97891E-004	-1.25098E-002	7.92857E-004
	123	123	4.99649E-002	-1.78008E-002	0.00000E+000	-8.89416E-004	-1.75908E-001	4.19567E-002	3.53106E+001	11	...........	6.96946E-002	-5.39514E-003	6.01068E-001	5.47170E-001	-2.77471E-002	-3.86990E-002	6.93639E-001	-4.39962E-002	-1.24062E-003	9.60379E-005	-1.06995E-002	-9.74007E-003	4.93921E-004	6.88875E-004	-1.23474E-002	7.83170E-004
	124	124	4.99647E-002	-1.76506E-002	0.00000E+000	-8.81907E-004	-1.74410E-001	4.19682E-002	3.53510E+001	11	...........	6.97367E-002	-5.29431E-003	6.01090E-001	5.47317E-001	-2.78690E-002	-3.87143E-002	6.93508E-001	-4.41717E-002	-1.23089E-003	9.34477E-005	-1.06096E-002	-9.66047E-003	4.91905E-004	6.83331E-004	-1.22408E-002	7.79657E-004
	125	125	4.99640E-002	-1.74105E-002	0.00000E+000	-8.69898E-004	-1.72016E-001	4.19822E-002	3.53438E+001	11	...........	6.97521E-002	-5.30986E-003	6.01192E-001	5.47610E-001	-2.78447E-002	-3.87017E-002	6.93568E-001	-4.42592E-002	-1.21442E-003	9.24473E-005	-1.04670E-002	-9.53415E-003	4.84790E-004	6.73815E-004	-1.20754E-002	7.70574E-004
	126	126	4.99637E-002	-1.71572E-002	0.00000E+000	-8.57235E-004	-1.69491E-001	4.19829E-002	3.53483E+001	11	...........	6.97633E-002	-5.39819E-003	6.01179E-001	5.47551E-001	-2.78385E-002	-3.87083E-002	6.93607E-001	-4.41665E-002	-1.19694E-003	9.26177E-005	-1.03145E-002	-9.39442E-003	4.77629E-004	6.64125E-004	-1.19003E-002	7.57772E-004
	127	127	4.99653E-002	-1.69739E-002	0.00000E+000	-8.48106E-004	-1.67661E-001	4.20147E-002	3.53696E+001	11	...........	6.98135E-002	-5.31694E-003	6.01149E-001	5.47537E-001	-2.78272E-002	-3.87049E-002	6.93757E-001	-4.40554E-002	-1.18501E-003	9.02492E-005	-1.02038E-002	-9.29383E-003	4.72336E-004	6.56972E-004	-1.17757E-002	7.47792E-004
	128	128	4.99645E-002	-1.68249E-002	0.00000E+000	-8.40648E-004	-1.66181E-001	4.20248E-002	3.53936E+001	11	...........	6.98290E-002	-5.26889E-003	6.01148E-001	5.47612E-001	-2.78522E-002	-3.86714E-002	6.93783E-001	-4.41257E-002	-1.17487E-003	8.86487E-005	-1.01143E-002	-9.21354E-003	4.68612E-004	6.50643E-004	-1.16728E-002	7.42412E-004
	129	129	4.99639E-002	-1.65936E-002	0.00000E+000	-8.29078E-004	-1.63908E-001	4.20372E-002	3.54170E+001	11	...........	6.98519E-002	-5.24125E-003	6.00991E-001	5.47633E-001	-2.78661E-002	-3.86772E-002	6.93909E-001	-4.41362E-002	-1.15909E-003	8.69710E-005	-9.97259E-003	-9.08718E-003	4.62398E-004	6.41793E-004	-1.15144E-002	7.32377E-004
	130	130	4.99638E-002	-1.63324E-002	0.00000E+000	-8.16030E-004	-1.61307E-001	4.20564E-002	3.54146E+001	11	...........	6.98879E-002	-5.24056E-003	6.01069E-001	5.47869E-001	-2.78537E-002	-3.86712E-002	6.93865E-001	-4.40804E-002	-1.14144E-003	8.55910E-005	-9.81692E-003	-8.94803E-003	4.54920E-004	6.31596E-004	-1.13325E-002	7.19941E-004
	131	131	4.99643E-002	-1.61091E-002	0.00000E+000	-8.04880E-004	-1.59078E-001	4.20704E-002	3.54378E+001	11	...........	6.98903E-002	-5.31028E-003	6.01020E-001	5.48045E-001	-2.78311E-002	-3.86282E-002	6.93872E-001	-4.40383E-002	-1.12587E-003	8.55438E-005	-9.68189E-003	-8.82851E-003	4.48334E-004	6.22265E-004	-1.11776E-002	7.09418E-004
	132	132	4.99646E-002	-1.59046E-002	0.00000E+000	-7.94666E-004	-1.57044E-001	4.20721E-002	3.54644E+001	11	...........	6.98975E-002	-5.25833E-003	6.00989E-001	5.48169E-001	-2.77994E-002	-3.86326E-002	6.93683E-001	-4.39993E-002	-1.11169E-003	8.36315E-005	-9.55848E-003	-8.71840E-003	4.42138E-004	6.14436E-004	-1.10327E-002	6.99790E-004
	133	133	4.99642E-002	-1.57031E-002	0.00000E+000	-7.84593E-004	-1.55033E-001	4.20857E-002	3.54860E+001	11	...........	6.99285E-002	-5.23972E-003	6.01139E-001	5.48120E-001	-2.77958E-002	-3.86033E-002	6.93714E-001	-4.39375E-002	-1.09809E-003	8.22799E-005	-9.43974E-003	-8.60719E-003	4.36481E-004	6.06192E-004	-1.08935E-002	6.89955E-004
	134	134	4.99639E-002	-1.54710E-002	0.00000E+000	-7.72991E-004	-1.52736E-001	4.20857E-002	3.55170E+001	11	...........	6.99508E-002	-5.26042E-003	6.01053E-001	5.48171E-001	-2.78014E-002	-3.85937E-002	6.93725E-001	-4.39586E-002	-1.08221E-003	8.13838E-005	-9.29888E-003	-8.48073E-003	4.30115E-004	5.97083E-004	-1.07326E-002	6.80082E-004
	135	135	4.99644E-002	-1.52422E-002	0.00000E+000	-7.61568E-004	-1.50458E-001	4.20897E-002	3.55297E+001	11	...........	6.99529E-002	-5.26139E-003	6.00788E-001	5.48083E-001	-2.78117E-002	-3.86001E-002	6.93679E-001	-4.41037E-002	-1.06624E-003	8.01952E-005	-9.15733E-003	-8.35400E-003	4.23911E-004	5.88351E-004	-1.05732E-002	6.72239E-004
	136	136	4.99644E-002	-1.50416E-002	0.00000E+000	-7.51545E-004	-1.48458E-001	4.21151E-002	3.55732E+001	11	...........	6.99928E-002	-5.24778E-003	6.00606E-001	5.48070E-001	-2.78250E-002	-3.86044E-002	6.93731E-001	-4.41757E-002	-1.05280E-003	7.89350E-005	-9.03409E-003	-8.24386E-003	4.18533E-004	5.80673E-004	-1.04348E-002	6.64473E-004
	137	137	4.99643E-002	-1.48415E-002	0.00000E+000	-7.41543E-004	-1.46461E-001	4.21374E-002	3.56042E+001	11	...........	7.00101E-002	-5.21722E-003	6.00655E-001	5.48140E-001	-2.78278E-002	-3.85950E-002	6.93858E-001	-4.40090E-002	-1.03905E-003	7.74312E-005	-8.91460E-003	-8.13520E-003	4.13005E-004	5.72806E-004	-1.02979E-002	6.53158E-004
	138	138	4.99645E-002	-1.46390E-002	0.00000E+000	-7.31432E-004	-1.44444E-001	4.21455E-002	3.52692E+001	11	...........	7.00240E-002	-5.23778E-003	6.00861E-001	5.48140E-001	-2.78151E-002	-3.86017E-002	6.93830E-001	-4.41174E-002	-1.02508E-003	7.66760E-005	-8.79602E-003	-8.02424E-003	4.07187E-004	5.65091E-004	-1.01570E-002	6.45835E-004
	139	139	4.99634E-002	-1.42913E-002	0.00000E+000	-7.14043E-004	-1.40989E-001	4.20311E-002	3.49603E+001	11	...........	6.98504E-002	-5.26222E-003	6.00869E-001	5.48127E-001	-2.77987E-002	-3.86207E-002	6.93814E-001	-4.39971E-002	-9.98255E-004	7.52041E-005	-8.58721E-003	-7.83346E-003	3.97281E-004	5.51941E-004	-9.91552E-003	6.28777E-004
	140	140	4.99676E-002	-1.43354E-002	0.00000E+000	-7.16303E-004	-1.41409E-001	4.21773E-002	3.55295E+001	11	...........	7.00900E-002	-5.29542E-003	6.00832E-001	5.48044E-001	-2.77692E-002	-3.86574E-002	6.93843E-001	-4.39793E-002	-1.00477E-003	7.59117E-005	-8.61315E-003	-7.85641E-003	3.98081E-004	5.54167E-004	-9.94649E-003	6.30459E-004
	141	141	4.99661E-002	-1.43104E-002	0.00000E+000	-7.15033E-004	-1.41161E-001	4.21191E-002	3.56462E+001	11	...........	6.99844E-002	-5.37111E-003	6.00909E-001	5.47986E-001	-2.77718E-002	-3.86760E-002	6.93819E-001	-4.39906E-002	-1.00150E-003	7.68626E-005	-8.59922E-003	-7.84187E-003	3.97425E-004	5.53467E-004	-9.92880E-003	6.29521E-004
	142	142	4.99651E-002	-1.41608E-002	0.00000E+000	-7.07547E-004	-1.39702E-001	4.21201E-002	3.56624E+001	11	...........	7.00057E-002	-5.35181E-003	6.00778E-001	5.47950E-001	-2.77481E-002	-3.86622E-002	6.93750E-001	-4.38649E-002	-9.91339E-004	7.57860E-005	-8.50752E-003	-7.75943E-003	3.92936E-004	5.47490E-004	-9.82408E-003	6.21163E-004
	143	143	4.99649E-002	-1.40116E-002	0.00000E+000	-7.00089E-004	-1.38227E-001	4.21399E-002	3.56946E+001	11	...........	7.00417E-002	-5.38889E-003	6.00929E-001	5.47951E-001	-2.77039E-002	-3.86532E-002	6.93874E-001	-4.39067E-002	-9.81396E-004	7.55070E-005	-8.41998E-003	-7.67767E-003	3.88176E-004	5.41593E-004	-9.72229E-003	6.15203E-004
	144	144	4.99648E-002	-1.38470E-002	0.00000E+000	-6.91862E-004	-1.36589E-001	4.21514E-002	3.57081E+001	11	...........	7.00371E-002	-5.35333E-003	6.01098E-001	5.47827E-001	-2.77092E-002	-3.86542E-002	6.93889E-001	-4.39386E-002	-9.69803E-004	7.41276E-005	-8.32340E-003	-7.58575E-003	3.83689E-004	5.35244E-004	-9.60828E-003	6.08418E-004
	145	145	4.99650E-002	-1.36802E-002	0.00000E+000	-6.83533E-004	-1.34922E-001	4.21515E-002	3.57138E+001	11	...........	7.00514E-002	-5.34653E-003	6.01190E-001	5.47713E-001	-2.76989E-002	-3.86454E-002	6.93923E-001	-4.40042E-002	-9.58320E-004	7.31418E-005	-8.22443E-003	-7.49284E-003	3.78927E-004	5.28678E-004	-9.49304E-003	6.01987E-004
	146	146	4.99646E-002	-1.34912E-002	0.00000E+000	-6.74084E-004	-1.33044E-001	4.21617E-002	3.57165E+001	11	...........	7.00653E-002	-5.32167E-003	6.01087E-001	5.47783E-001	-2.76776E-002	-3.86229E-002	6.93750E-001	-4.40508E-002	-9.45267E-004	7.17958E-005	-8.10940E-003	-7.39027E-003	3.73405E-004	5.21071E-004	-9.35955E-003	5.94300E-004
	147	147	4.99649E-002	-1.33233E-002	0.00000E+000	-6.65696E-004	-1.31366E-001	4.21643E-002	3.57398E+001	11	...........	7.00731E-002	-5.26417E-003	6.00935E-001	5.47729E-001	-2.77015E-002	-3.86153E-002	6.93828E-001	-4.40371E-002	-9.33604E-004	7.01360E-005	-8.00643E-003	-7.29755E-003	3.69076E-004	5.14483E-004	-9.24407E-003	5.86719E-004
	148	148	4.99649E-002	-1.31545E-002	0.00000E+000	-6.57265E-004	-1.29691E-001	4.21950E-002	3.57868E+001	11	...........	7.01199E-002	-5.34403E-003	6.00891E-001	5.47833E-001	-2.77250E-002	-3.86114E-002	6.93930E-001	-4.40164E-002	-9.22394E-004	7.02982E-005	-7.90444E-003	-7.20650E-003	3.64710E-004	5.07915E-004	-9.12833E-003	5.79015E-004
	149	149	4.99646E-002	-1.29827E-002	0.00000E+000	-6.48674E-004	-1.27995E-001	4.21856E-002	3.58016E+001	11	...........	7.01078E-002	-5.37514E-003	6.00838E-001	5.47933E-001	-2.77725E-002	-3.86468E-002	6.93852E-001	-4.39615E-002	-9.10186E-004	6.97837E-005	-7.80048E-003	-7.11363E-003	3.60561E-004	5.01739E-004	-9.00806E-003	5.70738E-004
	150	150	4.99646E-002	-1.28032E-002	0.00000E+000	-6.39706E-004	-1.26207E-001	4.22084E-002	3.58133E+001	11	...........	7.01312E-002	-5.38847E-003	6.00725E-001	5.47957E-001	-2.77860E-002	-3.86890E-002	6.93772E-001	-4.39621E-002	-8.97902E-004	6.89895E-005	-7.69118E-003	-7.01558E-003	3.55748E-004	4.95342E-004	-8.88248E-003	5.62854E-004
	151	151	4.99650E-002	-1.26361E-002	0.00000E+000	-6.31362E-004	-1.24540E-001	4.22209E-002	3.58371E+001	11	...........	7.01583E-002	-5.35903E-003	6.00670E-001	5.48069E-001	-2.78379E-002	-3.86956E-002	6.93851E-001	-4.39181E-002	-8.86528E-004	6.77172E-005	-7.59013E-003	-6.92546E-003	3.51763E-004	4.88961E-004	-8.76757E-003	5.54953E-004
	152	152	4.99644E-002	-1.24583E-002	0.00000E+000	-6.22472E-004	-1.22773E-001	4.22212E-002	3.58489E+001	11	...........	7.01685E-002	-5.41750E-003	6.00695E-001	5.48129E-001	-2.78754E-002	-3.87122E-002	6.93846E-001	-4.39347E-002	-8.74181E-004	6.74929E-005	-7.48365E-003	-6.82877E-003	3.47281E-004	4.82289E-004	-8.64416E-003	5.47353E-004
	153	153	4.99643E-002	-1.22400E-002	0.00000E+000	-6.11563E-004	-1.20596E-001	4.22178E-002	3.58102E+001	11	...........	7.01763E-002	-5.42153E-003	6.00725E-001	5.48088E-001	-2.78593E-002	-3.87131E-002	6.93897E-001	-4.39040E-002	-8.58958E-004	6.63595E-005	-7.35287E-003	-6.70861E-003	3.40998E-004	4.73848E-004	-8.49330E-003	5.37385E-004
	154	154	4.99626E-002	-1.20122E-002	0.00000E+000	-6.00160E-004	-1.18322E-001	4.21860E-002	3.47149E+001	11	...........	7.01111E-002	-5.36847E-003	6.00717E-001	5.47999E-001	-2.78382E-002	-3.87026E-002	6.93903E-001	-4.39771E-002	-8.42188E-004	6.44871E-005	-7.21593E-003	-6.58267E-003	3.34398E-004	4.64904E-004	-8.33529E-003	5.28261E-004
	155	155	4.99696E-002	-1.19769E-002	0.00000E+000	-5.98479E-004	-1.17966E-001	4.22444E-002	3.55343E+001	11	...........	7.01932E-002	-5.45611E-003	6.00827E-001	5.48022E-001	-2.78308E-002	-3.86990E-002	6.93861E-001	-4.39771E-002	-8.40694E-004	6.53471E-005	-7.19602E-003	-6.56359E-003	3.33326E-004	4.63493E-004	-8.31028E-003	5.26707E-004
	156	156	4.99645E-002	-1.19566E-002	0.00000E+000	-5.97406E-004	-1.17767E-001	4.22710E-002	3.58083E+001	11	...........	7.02282E-002	-5.34153E-003	6.00844E-001	5.48065E-001	-2.77958E-002	-3.86912E-002	6.93974E-001	-4.40124E-002	-8.39691E-004	6.38665E-005	-7.18406E-003	-6.55299E-003	3.32344E-004	4.62616E-004	-8.29758E-003	5.26238E-004
	157	157	4.99661E-002	-1.17786E-002	0.00000E+000	-5.88532E-004	-1.15988E-001	4.23014E-002	3.58135E+001	11	...........	7.02932E-002	-5.31736E-003	6.00673E-001	5.48047E-001	-2.78129E-002	-3.86965E-002	6.93976E-001	-4.39297E-002	-8.27957E-004	6.26312E-005	-7.07510E-003	-6.45524E-003	3.27598E-004	4.55792E-004	-8.17408E-003	5.17432E-004
	158	158	4.99651E-002	-1.16655E-002	0.00000E+000	-5.82868E-004	-1.14859E-001	4.23166E-002	3.58467E+001	11	...........	7.03235E-002	-5.37069E-003	6.00729E-001	5.47997E-001	-2.78535E-002	-3.87165E-002	6.93985E-001	-4.39950E-002	-8.20359E-004	6.26519E-005	-7.00781E-003	-6.39267E-003	3.24925E-004	4.51648E-004	-8.09569E-003	5.13224E-004
	159	159	4.99655E-002	-1.15693E-002	0.00000E+000	-5.78065E-004	-1.13931E-001	4.20111E-002	3.58885E+001	11	...........	7.02867E-002	-5.30208E-003	6.00728E-001	5.48104E-001	-2.78718E-002	-3.87549E-002	6.93909E-001	-4.39879E-002	-8.13165E-004	6.13412E-005	-6.94999E-003	-6.34116E-003	3.22456E-004	4.48365E-004	-8.02802E-003	5.08908E-004
	160	160	4.99649E-002	-1.14075E-002	0.00000E+000	-5.69976E-004	-1.12323E-001	4.22994E-002	3.58894E+001	11	...........	7.02949E-002	-5.37736E-003	6.00727E-001	5.48206E-001	-2.78451E-002	-3.87681E-002	6.93834E-001	-4.39643E-002	-8.01890E-004	6.13423E-005	-6.85280E-003	-6.25366E-003	3.17644E-004	4.42247E-004	-7.91492E-003	5.01524E-004
	161	161	4.99644E-002	-1.12199E-002	0.00000E+000	-5.60597E-004	-1.10457E-001	4.23208E-002	3.59038E+001	11	...........	7.03328E-002	-5.32403E-003	6.00830E-001	5.48079E-001	-2.78092E-002	-3.87497E-002	6.93844E-001	-4.39792E-002	-7.89129E-004	5.97352E-005	-6.74127E-003	-6.14941E-003	3.12017E-004	4.34769E-004	-7.78488E-003	4.93443E-004
	162	162	4.99654E-002	-1.10456E-002	0.00000E+000	-5.51896E-004	-1.08719E-001	4.23248E-002	3.59194E+001	11	...........	7.03278E-002	-5.37653E-003	6.01017E-001	5.47969E-001	-2.77726E-002	-3.87161E-002	6.93790E-001	-4.39403E-002	-7.76810E-004	5.93868E-005	-6.63857E-003	-6.05263E-003	3.06764E-004	4.27641E-004	-7.66330E-003	4.85345E-004
	163	163	4.99655E-002	-1.09475E-002	0.00000E+000	-5.46995E-004	-1.07742E-001	4.23393E-002	3.59313E+001	11	...........	7.03510E-002	-5.40958E-003	6.01184E-001	5.47851E-001	-2.77782E-002	-3.86774E-002	6.93762E-001	-4.39528E-002	-7.70164E-004	5.92212E-005	-6.58144E-003	-5.99757E-003	3.04101E-004	4.23419E-004	-7.59493E-003	4.81171E-004
	164	164	4.99652E-002	-1.08237E-002	0.00000E+000	-5.40810E-004	-1.06509E-001	4.22862E-002	3.59731E+001	11	...........	7.03550E-002	-5.44236E-003	6.01264E-001	5.47905E-001	-2.77825E-002	-3.86533E-002	6.93892E-001	-4.39510E-002	-7.61503E-004	5.89066E-005	-6.50792E-003	-5.93037E-003	3.00710E-004	4.18373E-004	-7.51050E-003	4.75713E-004
	165	165	4.99655E-002	-1.06973E-002	0.00000E+000	-5.34496E-004	-1.05246E-001	4.23401E-002	3.59367E+001	11	...........	7.03589E-002	-5.46931E-003	6.01386E-001	5.47827E-001	-2.77825E-002	-3.86771E-002	6.94027E-001	-4.39492E-002	-7.52650E-004	5.85068E-005	-6.43321E-003	-5.86027E-003	2.97198E-004	4.13741E-004	-7.42422E-003	4.70138E-004
	166	166	4.99656E-002	-1.05933E-002	0.00000E+000	-5.29299E-004	-1.04213E-001	4.23470E-002	3.59507E+001	11	...........	7.03689E-002	-5.32889E-003	6.01506E-001	5.47933E-001	-2.78174E-002	-3.86953E-002	6.94016E-001	-4.40351E-002	-7.45437E-004	5.64504E-005	-6.37192E-003	-5.80440E-003	2.94677E-004	4.09910E-004	-7.35190E-003	4.66476E-004
	167	167	4.99652E-002	-1.04664E-002	0.00000E+000	-5.22955E-004	-1.02962E-001	4.23454E-002	3.59576E+001	11	...........	7.03676E-002	-5.38097E-003	6.01736E-001	5.47955E-001	-2.78385E-002	-3.86764E-002	6.94014E-001	-4.39922E-002	-7.36494E-004	5.63193E-005	-6.29800E-003	-5.73510E-003	2.91368E-004	4.04802E-004	-7.26382E-003	4.60439E-004
	168	168	4.99624E-002	-1.02747E-002	0.00000E+000	-5.13348E-004	-1.01091E-001	4.23339E-002	3.50447E+001	11	...........	7.03415E-002	-5.36917E-003	6.01652E-001	5.47863E-001	-2.78356E-002	-3.86792E-002	6.94014E-001	-4.40047E-002	-7.22737E-004	5.51665E-005	-6.18178E-003	-5.62912E-003	2.86002E-004	3.97416E-004	-7.13078E-003	4.52135E-004
	169	169	4.99684E-002	-1.01073E-002	0.00000E+000	-5.05044E-004	-9.94177E-002	4.23254E-002	3.56948E+001	11	...........	7.03201E-002	-5.34486E-003	6.01735E-001	5.47742E-001	-2.78486E-002	-3.86757E-002	6.93918E-001	-4.39900E-002	-7.10744E-004	5.40219E-005	-6.08189E-003	-5.53617E-003	2.81473E-004	3.90905E-004	-7.01361E-003	4.44618E-004
	170	170	4.99655E-002	-1.00918E-002	0.00000E+000	-5.04240E-004	-9.92650E-002	4.23764E-002	3.58802E+001	11	...........	7.04235E-002	-5.35944E-003	6.01743E-001	5.47872E-001	-2.78343E-002	-3.86653E-002	6.93917E-001	-4.39624E-002	-7.10697E-004	5.40863E-005	-6.07265E-003	-5.52899E-003	2.80897E-004	3.90201E-004	-7.00285E-003	4.43658E-004
	171	171	4.99656E-002	-9.98653E-003	0.00000E+000	-4.98983E-004	-9.82180E-002	4.23704E-002	3.58839E+001	11	...........	7.04003E-002	-5.35208E-003	6.01700E-001	5.47979E-001	-2.78590E-002	-3.87153E-002	6.93929E-001	-4.39742E-002	-7.03055E-004	5.34488E-005	-6.00889E-003	-5.47242E-003	2.78215E-004	3.86631E-004	-6.92994E-003	4.39149E-004
	172	172	4.99657E-002	-9.88548E-003	0.00000E+000	-4.93935E-004	-9.72110E-002	4.23651E-002	3.59098E+001	11	...........	7.04174E-002	-5.41778E-003	6.01633E-001	5.47875E-001	-2.78568E-002	-3.87325E-002	6.93829E-001	-4.40725E-002	-6.96109E-004	5.35573E-005	-5.94743E-003	-5.41600E-003	2.75378E-004	3.82889E-004	-6.85883E-003	4.35678E-004
	173	173	4.99653E-002	-9.76743E-003	0.00000E+000	-4.88033E-004	-9.60303E-002	4.23771E-002	3.58865E+001	11	...........	7.04254E-002	-5.31944E-003	6.01679E-001	5.47978E-001	-2.78539E-002	-3.87217E-002	6.93663E-001	-4.40990E-002	-6.87875E-004	5.19573E-005	-5.87685E-003	-5.35234E-003	2.72061E-004	3.78211E-004	-6.77531E-003	4.30734E-004
	174	174	4.99655E-002	-9.64240E-003	0.00000E+000	-4.81787E-004	-9.47847E-002	4.23898E-002	3.58685E+001	11	...........	7.04333E-002	-5.32528E-003	6.01622E-001	5.48092E-001	-2.78365E-002	-3.86919E-002	6.93560E-001	-4.40978E-002	-6.79146E-004	5.13484E-005	-5.80108E-003	-5.28492E-003	2.68411E-004	3.73083E-004	-6.68758E-003	4.25208E-004
	175	175	4.99651E-002	-9.50883E-003	0.00000E+000	-4.75109E-004	-9.34533E-002	4.23909E-002	3.58930E+001	11	...........	7.04460E-002	-5.32333E-003	6.01632E-001	5.48196E-001	-2.78725E-002	-3.86728E-002	6.93631E-001	-4.40699E-002	-6.69859E-004	5.06187E-005	-5.72082E-003	-5.21270E-003	2.65035E-004	3.67733E-004	-6.59562E-003	4.19053E-004
	176	176	4.99657E-002	-9.39208E-003	0.00000E+000	-4.69282E-004	-9.22887E-002	4.24101E-002	3.58990E+001	11	...........	7.04821E-002	-5.35125E-003	6.01741E-001	5.48167E-001	-2.78908E-002	-3.86811E-002	6.93707E-001	-4.39868E-002	-6.61974E-004	5.02594E-005	-5.65160E-003	-5.14843E-003	2.61953E-004	3.63296E-004	-6.51536E-003	4.13128E-004
	177	177	4.99654E-002	-9.29337E-003	0.00000E+000	-4.64347E-004	-9.13027E-002	4.24128E-002	3.58930E+001	11	...........	7.04679E-002	-5.32458E-003	6.01732E-001	5.48124E-001	-2.78981E-002	-3.86999E-002	6.93731E-001	-4.39865E-002	-6.54884E-004	4.94833E-005	-5.59212E-003	-5.09392E-003	2.59267E-004	3.59652E-004	-6.44710E-003	4.08783E-004
	178	178	4.99658E-002	-9.17118E-003	0.00000E+000	-4.58245E-004	-9.00790E-002	4.24060E-002	3.58736E+001	11	...........	7.04542E-002	-5.33583E-003	6.01470E-001	5.48212E-001	-2.78812E-002	-3.87396E-002	6.93754E-001	-4.40454E-002	-6.46148E-004	4.89359E-005	-5.51619E-003	-5.02775E-003	2.55704E-004	3.55288E-004	-6.36254E-003	4.03949E-004
	179	179	4.99654E-002	-9.06661E-003	0.00000E+000	-4.53017E-004	-8.90443E-002	4.24217E-002	3.59125E+001	11	...........	7.04846E-002	-5.43681E-003	6.01302E-001	5.48059E-001	-2.78558E-002	-3.87667E-002	6.93802E-001	-4.40146E-002	-6.39056E-004	4.92934E-005	-5.45178E-003	-4.96904E-003	2.52558E-004	3.51482E-004	-6.29044E-003	3.99063E-004
	180	180	4.99653E-002	-8.94406E-003	0.00000E+000	-4.46892E-004	-8.78563E-002	4.24096E-002	3.59457E+001	11	...........	7.04774E-002	-5.39819E-003	6.01341E-001	5.48056E-001	-2.78181E-002	-3.87797E-002	6.93808E-001	-4.40182E-002	-6.30354E-004	4.82818E-005	-5.37843E-003	-4.90185E-003	2.48806E-004	3.46848E-004	-6.20545E-003	3.93701E-004
	181	181	4.99656E-002	-8.82437E-003	0.00000E+000	-4.40915E-004	-8.66637E-002	4.24204E-002	3.59638E+001	11	...........	7.04958E-002	-5.32431E-003	6.01441E-001	5.47929E-001	-2.77831E-002	-3.87778E-002	6.93861E-001	-4.40321E-002	-6.22081E-004	4.69836E-005	-5.30734E-003	-4.83513E-003	2.45168E-004	3.42189E-004	-6.12289E-003	3.88555E-004
	182	182	4.99653E-002	-8.70735E-003	0.00000E+000	-4.35065E-004	-8.55033E-002	4.24173E-002	3.59839E+001	11	...........	7.04929E-002	-5.30514E-003	6.01497E-001	5.47934E-001	-2.77632E-002	-3.87971E-002	6.93789E-001	-4.40096E-002	-6.13806E-004	4.61937E-005	-5.23744E-003	-4.77105E-003	2.41744E-004	3.37820E-004	-6.04106E-003	3.83207E-004
	183	183	4.99654E-002	-8.58123E-003	0.00000E+000	-4.28765E-004	-8.42457E-002	4.24302E-002	3.59568E+001	11	...........	7.05040E-002	-5.35347E-003	6.01491E-001	5.47963E-001	-2.77771E-002	-3.87887E-002	6.93796E-001	-4.39587E-002	-6.05012E-004	4.59394E-005	-5.16153E-003	-4.70220E-003	2.38362E-004	3.32855E-004	-5.95362E-003	3.77220E-004
	184	184	4.99655E-002	-8.46688E-003	0.00000E+000	-4.23051E-004	-8.31003E-002	4.24494E-002	3.59720E+001	11	...........	7.05250E-002	-5.29556E-003	6.01632E-001	5.47845E-001	-2.77678E-002	-3.87846E-002	6.93806E-001	-4.40119E-002	-5.97127E-004	4.48368E-005	-5.09395E-003	-4.63854E-003	2.35106E-004	3.28384E-004	-5.87437E-003	3.72644E-004
	185	185	4.99661E-002	-8.37629E-003	0.00000E+000	-4.18531E-004	-8.22020E-002	4.24482E-002	3.59849E+001	11	...........	7.05279E-002	-5.30375E-003	6.01838E-001	5.47911E-001	-2.77590E-002	-3.87932E-002	6.93847E-001	-4.39821E-002	-5.90763E-004	4.44258E-005	-5.04117E-003	-4.58946E-003	2.32518E-004	3.24943E-004	-5.81187E-003	3.68407E-004
	186	186	4.99654E-002	-8.26956E-003	0.00000E+000	-4.13192E-004	-8.11463E-002	4.24335E-002	3.60229E+001	11	...........	7.05324E-002	-5.43681E-003	6.01845E-001	5.47943E-001	-2.77560E-002	-3.87933E-002	6.93803E-001	-4.40217E-002	-5.83271E-004	4.49600E-005	-4.97699E-003	-4.53125E-003	2.29530E-004	3.20804E-004	-5.73744E-003	3.64040E-004
	187	187	4.99658E-002	-8.16517E-003	0.00000E+000	-4.07979E-004	-8.01000E-002	4.24415E-002	3.60075E+001	11	...........	7.05478E-002	-5.37972E-003	6.01624E-001	5.47726E-001	-2.77375E-002	-3.87749E-002	6.93708E-001	-4.39835E-002	-5.76035E-004	4.39264E-005	-4.91237E-003	-4.47227E-003	2.26481E-004	3.16603E-004	-5.66425E-003	3.59133E-004
	188	188	4.99660E-002	-8.09138E-003	0.00000E+000	-4.04294E-004	-7.93657E-002	4.24642E-002	3.60090E+001	11	...........	7.05719E-002	-5.37694E-003	6.01433E-001	5.47795E-001	-2.77718E-002	-3.87806E-002	6.93667E-001	-4.39031E-002	-5.71024E-004	4.35069E-005	-4.86642E-003	-4.43241E-003	2.24712E-004	3.13788E-004	-5.61273E-003	3.55236E-004
	189	189	4.99661E-002	-8.03071E-003	0.00000E+000	-4.01264E-004	-7.87623E-002	4.24411E-002	3.60049E+001	11	...........	7.05369E-002	-5.29792E-003	6.01420E-001	5.47728E-001	-2.77375E-002	-3.87769E-002	6.93640E-001	-4.38960E-002	-5.66462E-004	4.25461E-005	-4.82984E-003	-4.39865E-003	2.22752E-004	3.11407E-004	-5.57043E-003	3.52516E-004
	190	190	4.99660E-002	-7.95092E-003	0.00000E+000	-3.97276E-004	-7.79680E-002	4.24540E-002	3.60444E+001	11	...........	7.05575E-002	-5.26778E-003	6.01368E-001	5.47784E-001	-2.77317E-002	-3.87910E-002	6.93785E-001	-4.39046E-002	-5.60997E-004	4.18837E-005	-4.78143E-003	-4.35539E-003	2.20492E-004	3.08424E-004	-5.51623E-003	3.49082E-004
	191	191	4.99655E-002	-7.86038E-003	0.00000E+000	-3.92748E-004	-7.70690E-002	4.24693E-002	3.60616E+001	11	...........	7.05764E-002	-5.33208E-003	6.01401E-001	5.47841E-001	-2.77468E-002	-3.87718E-002	6.93823E-001	-4.39946E-002	-5.54757E-004	4.19122E-005	-4.72724E-003	-4.30624E-003	2.18100E-004	3.04761E-004	-5.45371E-003	3.45814E-004
	192	192	4.99657E-002	-7.75741E-003	0.00000E+000	-3.87604E-004	-7.60597E-002	4.24708E-002	3.60749E+001	11	...........	7.05782E-002	-5.33208E-003	6.01542E-001	5.47937E-001	-2.77485E-002	-3.87942E-002	6.93775E-001	-4.40893E-002	-5.47504E-004	4.13631E-005	-4.66640E-003	-4.25057E-003	2.15256E-004	3.00942E-004	-5.38190E-003	3.42019E-004
	193	193	4.99660E-002	-7.66678E-003	0.00000E+000	-3.83078E-004	-7.51507E-002	4.24809E-002	3.60980E+001	11	...........	7.05735E-002	-5.28542E-003	6.01372E-001	5.48037E-001	-2.77764E-002	-3.87960E-002	6.93832E-001	-4.40982E-002	-5.41071E-004	4.05221E-005	-4.61059E-003	-4.20168E-003	2.12955E-004	2.97440E-004	-5.31945E-003	3.38091E-004
	194	194	4.99656E-002	-7.54193E-003	0.00000E+000	-3.76837E-004	-7.39007E-002	4.24676E-002	3.50041E+001	11	...........	7.05843E-002	-5.24278E-003	6.01386E-001	5.48170E-001	-2.77721E-002	-3.88007E-002	6.93802E-001	-4.39889E-002	-5.32342E-004	3.95407E-005	-4.53561E-003	-4.13426E-003	2.09455E-004	2.92632E-004	-5.23260E-003	3.31761E-004
	195	195	4.99655E-002	-7.35183E-003	0.00000E+000	-3.67338E-004	-7.20110E-002	4.22882E-002	3.53220E+001	11	...........	7.02944E-002	-5.31736E-003	6.01355E-001	5.48358E-001	-2.77497E-002	-3.87897E-002	6.93802E-001	-4.40346E-002	-5.16793E-004	3.90923E-005	-4.42106E-003	-4.03143E-003	2.04011E-004	2.85175E-004	-5.10072E-003	3.23735E-004
	196	196	4.99673E-002	-7.45152E-003	0.00000E+000	-3.72332E-004	-7.30047E-002	4.25265E-002	3.60772E+001	11	...........	7.06843E-002	-5.31639E-003	6.01406E-001	5.48283E-001	-2.77722E-002	-3.88247E-002	6.93821E-001	-4.39760E-002	-5.26705E-004	3.96152E-005	-4.48138E-003	-4.08554E-003	2.06945E-004	2.89303E-004	-5.17002E-003	3.27688E-004
	197	197	4.99655E-002	-7.38085E-003	0.00000E+000	-3.68788E-004	-7.22997E-002	4.24522E-002	3.61336E+001	11	...........	7.05451E-002	-5.26278E-003	6.01406E-001	5.48128E-001	-2.78046E-002	-3.88454E-002	6.93871E-001	-4.39576E-002	-5.20683E-004	3.88438E-005	-4.43889E-003	-4.04565E-003	2.05221E-004	2.86712E-004	-5.12136E-003	3.24445E-004
	198	198	4.99664E-002	-7.31516E-003	0.00000E+000	-3.65512E-004	-7.16453E-002	4.24607E-002	3.61310E+001	11	...........	7.05679E-002	-5.21458E-003	6.01394E-001	5.48102E-001	-2.78071E-002	-3.88599E-002	6.93936E-001	-4.40299E-002	-5.16216E-004	3.81455E-005	-4.39929E-003	-4.00946E-003	2.03413E-004	2.84266E-004	-5.07625E-003	3.22085E-004
	199	199	4.99655E-002	-7.24185E-003	0.00000E+000	-3.61843E-004	-7.09113E-002	4.24926E-002	3.61830E+001	11	...........	7.06187E-002	-5.23708E-003	6.01439E-001	5.48101E-001	-2.78164E-002	-3.88543E-002	6.93756E-001	-4.39879E-002	-5.11411E-004	3.79262E-005	-4.35554E-003	-3.96926E-003	2.01442E-004	2.81377E-004	-5.02408E-003	3.18554E-004
	200	200	4.99661E-002	-7.13876E-003	0.00000E+000	-3.56696E-004	-6.98810E-002	4.24767E-002	3.61942E+001	11	...........	7.05994E-002	-5.27319E-003	6.01368E-001	5.48102E-001	-2.77972E-002	-3.88394E-002	6.93728E-001	-4.39846E-002	-5.03993E-004	3.76441E-005	-4.29302E-003	-3.91277E-003	1.98438E-004	2.77266E-004	-4.95236E-003	3.13996E-004
	201	201	4.99659E-002	-7.05894E-003	0.00000E+000	-3.52706E-004	-6.90913E-002	4.24847E-002	3.62053E+001	11	...........	7.05994E-002	-5.26222E-003	6.01448E-001	5.48072E-001	-2.78374E-002	-3.88282E-002	6.93800E-001	-4.39733E-002	-4.98357E-004	3.71457E-005	-4.24558E-003	-3.86881E-003	1.96502E-004	2.74086E-004	-4.89749E-003	3.10405E-004
	202	202	4.99662E-002	-6.98634E-003	0.00000E+000	-3.49081E-004	-6.83733E-002	4.25155E-002	3.61886E+001	11	...........	7.06256E-002	-5.30889E-003	6.01488E-001	5.48194E-001	-2.78567E-002	-3.87936E-002	6.94000E-001	-4.39744E-002	-4.93414E-004	3.70897E-005	-4.20220E-003	-3.82987E-003	1.94616E-004	2.71025E-004	-4.84852E-003	3.07221E-004
	203	203	4.99658E-002	-6.91747E-003	0.00000E+000	-3.45637E-004	-6.76797E-002	4.24996E-002	3.62056E+001	11	...........	7.06271E-002	-5.26292E-003	6.01427E-001	5.48269E-001	-2.78547E-002	-3.87903E-002	6.93878E-001	-4.39783E-002	-4.88561E-004	3.64061E-005	-4.16036E-003	-3.79264E-003	1.92684E-004	2.68331E-004	-4.79988E-003	3.04219E-004
	204	204	4.99659E-002	-6.84104E-003	0.00000E+000	-3.41819E-004	-6.69200E-002	4.24902E-002	3.62251E+001	11	...........	7.06360E-002	-5.36736E-003	6.01450E-001	5.48139E-001	-2.78622E-002	-3.87829E-002	6.93812E-001	-4.38881E-002	-4.83223E-004	3.67183E-005	-4.11454E-003	-3.74984E-003	1.90607E-004	2.65315E-004	-4.74640E-003	3.00240E-004
	205	205	4.99660E-002	-6.76979E-003	0.00000E+000	-3.38259E-004	-6.62063E-002	4.25030E-002	3.61835E+001	11	...........	7.06433E-002	-5.42958E-003	6.01367E-001	5.48128E-001	-2.78632E-002	-3.87929E-002	6.93826E-001	-4.39572E-002	-4.78241E-004	3.67572E-005	-4.07113E-003	-3.71071E-003	1.88628E-004	2.62620E-004	-4.69706E-003	2.97581E-004
	206	206	4.99661E-002	-6.69503E-003	0.00000E+000	-3.34524E-004	-6.54627E-002	4.24988E-002	3.62128E+001	11	...........	7.06317E-002	-5.44903E-003	6.01384E-001	5.48085E-001	-2.78597E-002	-3.87939E-002	6.93771E-001	-4.40108E-002	-4.72881E-004	3.64814E-005	-4.02628E-003	-3.66945E-003	1.86522E-004	2.59726E-004	-4.64482E-003	2.94654E-004
	207	207	4.99659E-002	-6.61948E-003	0.00000E+000	-3.30748E-004	-6.47047E-002	4.25016E-002	3.62244E+001	11	...........	7.06418E-002	-5.39056E-003	6.01326E-001	5.48103E-001	-2.78597E-002	-3.87924E-002	6.93840E-001	-4.40407E-002	-4.67612E-004	3.56827E-005	-3.98047E-003	-3.62816E-003	1.84417E-004	2.56785E-004	-4.59286E-003	2.91526E-004
	208	208	4.99658E-002	-6.55144E-003	0.00000E+000	-3.27348E-004	-6.40147E-002	4.25077E-002	3.62395E+001	11	...........	7.06333E-002	-5.39597E-003	6.01320E-001	5.48156E-001	-2.78633E-002	-3.87771E-002	6.93849E-001	-4.40637E-002	-4.62750E-004	3.53514E-005	-3.93951E-003	-3.59121E-003	1.82545E-004	2.54046E-004	-4.54571E-003	2.88681E-004
	209	209	4.99662E-002	-6.47611E-003	0.00000E+000	-3.23586E-004	-6.32850E-002	4.25223E-002	3.62322E+001	11	...........	7.06690E-002	-5.27917E-003	6.01285E-001	5.48235E-001	-2.78517E-002	-3.87814E-002	6.93996E-001	-4.40786E-002	-4.57660E-004	3.41884E-005	-3.89399E-003	-3.55042E-003	1.80370E-004	2.51152E-004	-4.49439E-003	2.85458E-004
	210	210	4.99660E-002	-6.39759E-003	0.00000E+000	-3.19662E-004	-6.25300E-002	4.25202E-002	3.62507E+001	11	...........	7.06592E-002	-5.26944E-003	6.01256E-001	5.48303E-001	-2.78110E-002	-3.87774E-002	6.93993E-001	-4.40667E-002	-4.52048E-004	3.37117E-005	-3.84659E-003	-3.50782E-003	1.77923E-004	2.48082E-004	-4.43988E-003	2.81920E-004
	211	211	4.99662E-002	-6.32979E-003	0.00000E+000	-3.16275E-004	-6.18547E-002	4.25205E-002	3.62382E+001	11	...........	7.06572E-002	-5.28944E-003	6.01260E-001	5.48404E-001	-2.77990E-002	-3.87846E-002	6.93933E-001	-4.41087E-002	-4.47245E-004	3.34811E-005	-3.80585E-003	-3.47128E-003	1.75962E-004	2.45498E-004	-4.39245E-003	2.79199E-004
	212	212	4.99661E-002	-6.26058E-003	0.00000E+000	-3.12817E-004	-6.11667E-002	4.25179E-002	3.62598E+001	11	...........	7.06529E-002	-5.32125E-003	6.01214E-001	5.48439E-001	-2.77657E-002	-3.88075E-002	6.93885E-001	-4.40682E-002	-4.42328E-004	3.33141E-005	-3.76395E-003	-3.43355E-003	1.73829E-004	2.42958E-004	-4.34412E-003	2.75893E-004
	213	213	4.99660E-002	-6.19277E-003	0.00000E+000	-3.09428E-004	-6.04940E-002	4.25243E-002	3.60481E+001	11	...........	7.06726E-002	-5.36375E-003	6.01122E-001	5.48324E-001	-2.77503E-002	-3.88078E-002	6.93966E-001	-4.41026E-002	-4.37659E-004	3.32165E-005	-3.72261E-003	-3.39564E-003	1.71851E-004	2.40328E-004	-4.29757E-003	2.73117E-004
	214	214	4.99651E-002	-6.09952E-003	0.00000E+000	-3.04763E-004	-5.95620E-002	4.24583E-002	3.55434E+001	11	...........	7.05596E-002	-5.37028E-003	6.01160E-001	5.48231E-001	-2.77374E-002	-3.88197E-002	6.94146E-001	-4.40828E-002	-4.30380E-004	3.27561E-005	-3.66679E-003	-3.34395E-003	1.69185E-004	2.36782E-004	-4.23395E-003	2.68884E-004
	215	215	4.99675E-002	-6.04872E-003	0.00000E+000	-3.02239E-004	-5.90563E-002	4.25233E-002	3.60868E+001	11	...........	7.06444E-002	-5.39875E-003	6.01178E-001	5.48199E-001	-2.77310E-002	-3.88421E-002	6.93907E-001	-4.40092E-002	-4.27308E-004	3.26555E-005	-3.63636E-003	-3.31590E-003	1.67737E-004	2.34945E-004	-4.19725E-003	2.66199E-004
	216	216	4.99661E-002	-6.03477E-003	0.00000E+000	-3.01534E-004	-5.89180E-002	4.25212E-002	3.62389E+001	11	...........	7.06394E-002	-5.41903E-003	6.01188E-001	5.48207E-001	-2.77214E-002	-3.88106E-002	6.93815E-001	-4.40508E-002	-4.26293E-004	3.27026E-005	-3.62803E-003	-3.30830E-003	1.67292E-004	2.34213E-004	-4.18701E-003	2.65837E-004
	217	217	4.99662E-002	-5.97683E-003	0.00000E+000	-2.98640E-004	-5.83407E-002	4.24779E-002	3.62541E+001	11	...........	7.05882E-002	-5.30764E-003	6.01147E-001	5.48252E-001	-2.77417E-002	-3.87890E-002	6.93871E-001	-4.40856E-002	-4.21894E-004	3.17229E-005	-3.59296E-003	-3.27681E-003	1.65807E-004	2.31835E-004	-4.14715E-003	2.63492E-004
	218	218	4.99664E-002	-5.92556E-003	0.00000E+000	-2.96079E-004	-5.78287E-002	4.25030E-002	3.62662E+001	11	...........	7.06440E-002	-5.37611E-003	6.01171E-001	5.48244E-001	-2.77758E-002	-3.87726E-002	6.93833E-001	-4.40293E-002	-4.18606E-004	3.18565E-005	-3.56228E-003	-3.24866E-003	1.64587E-004	2.29750E-004	-4.11135E-003	2.60898E-004
	219	219	4.99658E-002	-5.85809E-003	0.00000E+000	-2.92704E-004	-5.71563E-002	4.25087E-002	3.62963E+001	11	...........	7.06440E-002	-5.30403E-003	6.01235E-001	5.48298E-001	-2.77606E-002	-3.87558E-002	6.93928E-001	-4.39810E-002	-4.13839E-004	3.10715E-005	-3.52209E-003	-3.21198E-003	1.62624E-004	2.27035E-004	-4.06510E-003	2.57645E-004
	220	220	4.99664E-002	-5.80309E-003	0.00000E+000	-2.89960E-004	-5.66093E-002	4.25074E-002	3.63027E+001	11	...........	7.06278E-002	-5.19889E-003	6.01208E-001	5.48126E-001	-2.77283E-002	-3.87428E-002	6.93963E-001	-4.40222E-002	-4.09860E-004	3.01696E-005	-3.48887E-003	-3.18083E-003	1.60910E-004	2.24828E-004	-4.02713E-003	2.55465E-004
	221	221	4.99661E-002	-5.74387E-003	0.00000E+000	-2.86999E-004	-5.60253E-002	4.25130E-002	3.62970E+001	11	...........	7.06487E-002	-5.21417E-003	6.01242E-001	5.48053E-001	-2.77111E-002	-3.87574E-002	6.93794E-001	-4.39696E-002	-4.05797E-004	2.99495E-005	-3.45346E-003	-3.14794E-003	1.59169E-004	2.22617E-004	-3.98506E-003	2.52555E-004
	222	222	4.99659E-002	-5.68586E-003	0.00000E+000	-2.84099E-004	-5.54423E-002	4.25348E-002	3.63076E+001	11	...........	7.06769E-002	-5.31736E-003	6.01281E-001	5.48022E-001	-2.77043E-002	-3.87610E-002	6.93812E-001	-4.39539E-002	-4.01859E-004	3.02338E-005	-3.41880E-003	-3.11598E-003	1.57523E-004	2.20389E-004	-3.94492E-003	2.49916E-004
	223	223	4.99661E-002	-5.59931E-003	0.00000E+000	-2.79776E-004	-5.45743E-002	4.25204E-002	3.63219E+001	11	...........	7.06417E-002	-5.31639E-003	6.01359E-001	5.48000E-001	-2.77103E-002	-3.87765E-002	6.93771E-001	-4.38862E-002	-3.95545E-004	2.97681E-005	-3.36720E-003	-3.06842E-003	1.55159E-004	2.17122E-004	-3.88464E-003	2.45733E-004
	224	224	4.99664E-002	-5.55853E-003	0.00000E+000	-2.77740E-004	-5.41733E-002	4.25322E-002	3.63253E+001	11	...........	7.06807E-002	-5.31847E-003	6.01278E-001	5.47871E-001	-2.77257E-002	-3.87592E-002	6.93801E-001	-4.39114E-002	-3.92881E-004	2.95629E-005	-3.34222E-003	-3.04536E-003	1.54114E-004	2.15444E-004	-3.85651E-003	2.44083E-004
	225	225	4.99659E-002	-5.49231E-003	0.00000E+000	-2.74428E-004	-5.35193E-002	4.25057E-002	3.63459E+001	11	...........	7.06479E-002	-5.28097E-003	6.01418E-001	5.47805E-001	-2.76940E-002	-3.87283E-002	6.93831E-001	-4.39190E-002	-3.88020E-004	2.90047E-005	-3.30317E-003	-3.00871E-003	1.52104E-004	2.12708E-004	-3.81073E-003	2.41217E-004
	226	226	4.99665E-002	-5.44098E-003	0.00000E+000	-2.71867E-004	-5.29987E-002	4.25372E-002	3.62931E+001	11	...........	7.06728E-002	-5.23667E-003	6.01425E-001	5.47569E-001	-2.76921E-002	-3.87293E-002	6.93756E-001	-4.39954E-002	-3.84529E-004	2.84926E-005	-3.27234E-003	-2.97931E-003	1.50672E-004	2.10725E-004	-3.77471E-003	2.39378E-004
	227	227	4.99663E-002	-5.39676E-003	0.00000E+000	-2.69656E-004	-5.25663E-002	4.25295E-002	3.63165E+001	11	...........	7.06717E-002	-5.33694E-003	6.01368E-001	5.47486E-001	-2.77186E-002	-3.87246E-002	6.93760E-001	-4.38918E-002	-3.81398E-004	2.88022E-005	-3.24544E-003	-2.95465E-003	1.49591E-004	2.08987E-004	-3.74406E-003	2.36874E-004
	228	228	4.99663E-002	-5.34779E-003	0.00000E+000	-2.67209E-004	-5.20757E-002	4.25294E-002	3.63077E+001	11	...........	7.06706E-002	-5.41111E-003	6.01347E-001	5.47590E-001	-2.77218E-002	-3.87139E-002	6.93669E-001	-4.38679E-002	-3.77931E-004	2.89375E-005	-3.21588E-003	-2.92840E-003	1.48250E-004	2.07034E-004	-3.70960E-003	2.34596E-004
	229	229	4.99662E-002	-5.30274E-003	0.00000E+000	-2.64958E-004	-5.16237E-002	4.25450E-002	3.63005E+001	11	...........	7.06981E-002	-5.34778E-003	6.01332E-001	5.47525E-001	-2.77362E-002	-3.86944E-002	6.93629E-001	-4.39304E-002	-3.74893E-004	2.83579E-005	-3.18871E-003	-2.90338E-003	1.47078E-004	2.05187E-004	-3.67813E-003	2.32952E-004
	230	230	4.99662E-002	-5.23672E-003	0.00000E+000	-2.61659E-004	-5.09857E-002	4.25341E-002	3.63464E+001	11	...........	7.06793E-002	-5.38931E-003	6.01340E-001	5.47654E-001	-2.77503E-002	-3.86961E-002	6.93671E-001	-4.39474E-002	-3.70127E-004	2.82223E-005	-3.14905E-003	-2.86791E-003	1.45320E-004	2.02641E-004	-3.63256E-003	2.30140E-004
	231	231	4.99656E-002	-5.15751E-003	0.00000E+000	-2.57698E-004	-5.01993E-002	4.25408E-002	3.63343E+001	11	...........	7.07040E-002	-5.45931E-003	6.01244E-001	5.47803E-001	-2.77486E-002	-3.87007E-002	6.93683E-001	-4.40057E-002	-3.64657E-004	2.81564E-005	-3.10092E-003	-2.82530E-003	1.43114E-004	1.99599E-004	-3.57767E-003	2.26960E-004
	232	232	4.99665E-002	-5.08867E-003	0.00000E+000	-2.54263E-004	-4.95123E-002	4.25282E-002	3.54523E+001	11	...........	7.06576E-002	-5.43403E-003	6.01252E-001	5.47979E-001	-2.77408E-002	-3.86942E-002	6.93737E-001	-4.40507E-002	-3.59554E-004	2.76520E-005	-3.05958E-003	-2.78849E-003	1.41164E-004	1.96902E-004	-3.53020E-003	2.24160E-004
	233	232.13	4.99604E-002	-5.05581E-003	0.00000E+000	-2.52590E-004	-4.91897E-002	4.24840E-002	3.58678E+001	11	...........	7.05951E-002	-5.40171E-003	6.01211E-001	5.47959E-001	-2.78120E-002	-3.86635E-002	6.93840E-001	-4.39605E-002	-3.56915E-004	2.73100E-005	-3.03961E-003	-2.77038E-003	1.40612E-004	1.95475E-004	-3.50792E-003	2.22256E-004
STARTTIMEOFFSET	QUANT	587752.6	Start Time Offset (s)
