EXPLAIN
TAG	PWR800_DISCHARGE
TITLE	LABEL	PWR Discharge	Test Identifier
DATE	LABEL	10/11/2022	Date
TIME	LABEL	15:02:12	Time
NOTES	NOTES	1	Notes...
	
PSTAT	PSTAT	REF3000-21114	Potentiostat
CAPACITY	QUANT	5.30000E-002	Capacity (A-hr)
CELLTYPE	SELECTOR	1	Cell Type
WORKINGCONNECTION	SELECTOR	0	Working Connection
MAXDISCHARGETIME	VARIABLEANDUNITS	7.20000E+003	s	2.00000E+000	hour(s)	Max Discharge Time
DISCHARGEMODE	MULTIPARAM	0	1.00000E-001	Discharge Mode	Constant Current	Amp(s)
VOLTAGEFINISH	TWOPARAM	T	5.00000E-003	7.20000E+003	Voltage Finish	I (A) <	Max Time(s)
SAMPLETIME	QUANT	1.00000E+000	Sample Period (s)
DISCHARGESTOPAT1	MULTIPARAM	1	5.00000E-002	Stop At 1	|Voltage| < Limit	V
DISCHARGESTOPAT2	MULTIPARAM	0	0.00000E+000	Stop At 2	None	N/A
AESELECTOR	AESELECTOR	0x1	T	Set Limits	AE Channels
AESBHCSELECTOR	TOGGLE	F	Save Both Half Cells
IRCOMP	TOGGLE	F	IR Measure
EOC	QUANT	0.581033	Open Circuit (V)
SEQUENCER	TOGGLE	TRUE	Run as Sequence
PSTATMODEL	IQUANT	5	Pstat Model
PSTATSECTION	LABEL	REF3000-21114	Pstat Section
PSTATSERIALNO	LABEL	21114	Pstat Serial Number
CTRLMODE	IQUANT	0	Control Mode
ELECTROMETER	IQUANT	0	RE=0 or CS=1
IESTAB	IQUANT	0	I/E Stability
CASPEED	IQUANT	4	Control Amp Speed
CONVENTION	IQUANT	1	Current Convention
ICHRANGE	IQUANT	2	Ich Range
ICHRANGEMODE	TOGGLE	T	Ich Auto Range
ICHOFFSETENABLE	TOGGLE	F	Ich Offset Enable
ICHOFFSET	QUANT	0	Ich Offset (V)
ICHFILTER	IQUANT	1	Ich Filter
VCHRANGE	IQUANT	3	Vch Range
VCHRANGEMODE	TOGGLE	T	Vch Auto Range
VCHOFFSETENABLE	TOGGLE	F	Vch Offset Enable
VCHOFFSET	QUANT	0	Vch Offset (V)
VCHFILTER	IQUANT	1	Vch Filter
ACHRANGE	IQUANT	2	Ach Range
ACHOFFSETENABLE	TOGGLE	F	Ach Offset Enable
ACHOFFSET	QUANT	0	Ach Offset (V)
ACHFILTER	IQUANT	1	Ach Filter
IERANGELOWERLIMIT	IQUANT	9	I/E Range Lower Limit
IERANGEMODE	TOGGLE	F	I/E AutoRange
IERANGE	IQUANT	9	I/E Range
POSFEEDENABLE	TOGGLE	F	Positive Feedback IR Comp
POSFEEDRESISTANCE	QUANT	0	Positive Feedback Resistance (ohm)
ACHSELECT	IQUANT	1	Ach Select
SENSECABLEID	IQUANT	13	Sense Cable ID
PWRCABLEID	IQUANT	13	Power Cable ID
DCCALDATE	LABEL		DC Calibration Date
ACCALDATE	LABEL		AC Calibration Date
THERMOSELECT	IQUANT	1	Thermo Select
FRAMEWORKVERSION	LABEL	7.8.6	Framework Version
INSTRUMENTVERSION	LABEL	4.50	Instrument Version
COMPLIANCEVOLTAGE	IQUANT	0	Compliance Voltage
CURVE	TABLE	236
	Pt	T	Vf	Im	Vu	Pwr	Sig	Ach	Temp	IERange	Over	Vf1	Vf2	Vf3	Vf4	Vf5	Vf6	Vf7	Vf8	Pwr1	Pwr2	Pwr3	Pwr4	Pwr5	Pwr6	Pwr7	Pwr8
	#	s	V	A	V	W	V	V	deg C	#	bits	V	V	V	V	V	V	V	V	W	W	W	W	W	W	W	W
	0	1	3.71010E-001	-1.00080E-001	0.00000E+000	-3.71306E-002	-9.94000E-001	3.20715E-002	2.85345E+001	11	...........	5.32687E-002	-3.09694E-003	5.49541E-001	7.17784E-001	-3.10696E-002	-3.92862E-002	6.16263E-001	-4.23071E-002	-5.33112E-003	3.09942E-004	-5.49980E-002	-7.18357E-002	3.10944E-003	3.93176E-003	-6.16754E-002	4.23408E-003
	1	2	2.80340E-001	-1.00080E-001	0.00000E+000	-2.80564E-002	-9.94000E-001	3.19513E-002	2.75032E+001	11	...........	5.30747E-002	-3.08250E-003	5.49241E-001	7.17871E-001	-3.10965E-002	-3.92908E-002	6.16377E-001	-4.23725E-002	-5.31171E-003	3.08496E-004	-5.49680E-002	-7.18444E-002	3.11214E-003	3.93222E-003	-6.16870E-002	4.24063E-003
	2	3	2.13175E-001	-1.00080E-001	0.00000E+000	-2.13346E-002	-9.94000E-001	3.19543E-002	2.72046E+001	11	...........	5.30792E-002	-3.00972E-003	5.49301E-001	7.17899E-001	-3.10843E-002	-3.93487E-002	6.16336E-001	-4.24149E-002	-5.31218E-003	3.01214E-004	-5.49742E-002	-7.18476E-002	3.11093E-003	3.93804E-003	-6.16831E-002	4.24489E-003
	3	4	1.58805E-001	-1.00081E-001	0.00000E+000	-1.58933E-002	-9.94000E-001	3.19327E-002	2.69611E+001	11	...........	5.30704E-002	-3.13625E-003	5.49191E-001	7.18099E-001	-3.11072E-002	-3.93414E-002	6.16360E-001	-4.23853E-002	-5.31133E-003	3.13878E-004	-5.49635E-002	-7.18679E-002	3.11323E-003	3.93732E-003	-6.16858E-002	4.24195E-003
	4	5	1.13641E-001	-1.00081E-001	0.00000E+000	-1.13733E-002	-9.94000E-001	3.19445E-002	2.65586E+001	11	...........	5.30525E-002	-3.25806E-003	5.49097E-001	7.18351E-001	-3.11147E-002	-3.93169E-002	6.16418E-001	-4.24010E-002	-5.30953E-003	3.26068E-004	-5.49540E-002	-7.18930E-002	3.11398E-003	3.93487E-003	-6.16915E-002	4.24352E-003
	5	6	7.76464E-002	-1.00081E-001	0.00000E+000	-7.77090E-003	-9.94000E-001	3.19733E-002	2.60898E+001	11	...........	5.30999E-002	-3.27097E-003	5.49034E-001	7.18314E-001	-3.11381E-002	-3.93275E-002	6.16334E-001	-4.24824E-002	-5.31426E-003	3.27361E-004	-5.49477E-002	-7.18893E-002	3.11631E-003	3.93592E-003	-6.16830E-002	4.25166E-003
	6	6.53167	5.73610E-002	-1.00081E-001	0.00000E+000	-5.74073E-003	-9.94000E-001	3.20729E-002	2.64415E+001	11	...........	5.32863E-002	-3.27952E-003	5.48971E-001	7.18455E-001	-3.11348E-002	-3.93480E-002	6.16304E-001	-4.24854E-002	-5.33293E-003	3.28217E-004	-5.49414E-002	-7.19035E-002	3.11599E-003	3.93797E-003	-6.16801E-002	4.25197E-003
	7	7	4.97131E-002	-9.44577E-002	0.00000E+000	-4.69579E-003	-9.38078E-001	3.20336E-002	2.62072E+001	11	...........	5.32307E-002	-3.24614E-003	5.48900E-001	7.18420E-001	-3.10875E-002	-3.93304E-002	6.16246E-001	-4.24540E-002	-5.02805E-003	3.06623E-004	-5.18479E-002	-6.78603E-002	2.93645E-003	3.71506E-003	-5.82092E-002	4.01011E-003
	8	8	4.98446E-002	-8.45612E-002	0.00000E+000	-4.21492E-003	-8.39686E-001	3.21596E-002	2.64224E+001	11	...........	5.34325E-002	-3.24569E-003	5.48812E-001	7.18377E-001	-3.11083E-002	-3.93406E-002	6.16276E-001	-4.24560E-002	-4.51831E-003	2.74460E-004	-4.64082E-002	-6.07468E-002	2.63056E-003	3.32668E-003	-5.21130E-002	3.59013E-003
	9	9	4.99181E-002	-7.70835E-002	0.00000E+000	-3.84786E-003	-7.65337E-001	3.22355E-002	2.67582E+001	11	...........	5.35554E-002	-3.27903E-003	5.48703E-001	7.18489E-001	-3.11171E-002	-3.93500E-002	6.16280E-001	-4.25421E-002	-4.12824E-003	2.52759E-004	-4.22960E-002	-5.53836E-002	2.39861E-003	3.03323E-003	-4.75050E-002	3.27929E-003
	10	10	4.99235E-002	-7.34422E-002	0.00000E+000	-3.66649E-003	-7.29138E-001	3.23799E-002	2.70468E+001	11	...........	5.37989E-002	-3.23778E-003	5.48651E-001	7.18482E-001	-3.11206E-002	-3.93415E-002	6.16209E-001	-4.24874E-002	-3.95111E-003	2.37790E-004	-4.02942E-002	-5.27670E-002	2.28556E-003	2.88933E-003	-4.52558E-002	3.12037E-003
	11	11	4.99359E-002	-6.99481E-002	0.00000E+000	-3.49292E-003	-6.94408E-001	3.24345E-002	2.71722E+001	11	...........	5.38851E-002	-3.29875E-003	5.48675E-001	7.18285E-001	-3.11172E-002	-3.93567E-002	6.16124E-001	-4.24754E-002	-3.76916E-003	2.30741E-004	-3.83788E-002	-5.02427E-002	2.17659E-003	2.75293E-003	-4.30967E-002	2.97108E-003
	12	12	4.99717E-002	-6.71807E-002	0.00000E+000	-3.35713E-003	-6.66885E-001	3.25219E-002	2.72279E+001	11	...........	5.40371E-002	-3.37111E-003	5.48628E-001	7.18245E-001	-3.11149E-002	-3.93531E-002	6.16279E-001	-4.25114E-002	-3.63025E-003	2.26474E-004	-3.68572E-002	-4.82522E-002	2.09032E-003	2.64376E-003	-4.14020E-002	2.85594E-003
	13	13	4.99352E-002	-6.63282E-002	0.00000E+000	-3.31211E-003	-6.58408E-001	3.24868E-002	2.73842E+001	11	...........	5.39646E-002	-3.23611E-003	5.48700E-001	7.18143E-001	-3.11224E-002	-3.93799E-002	6.16370E-001	-4.25212E-002	-3.57937E-003	2.14645E-004	-3.63943E-002	-4.76331E-002	2.06429E-003	2.61200E-003	-4.08828E-002	2.82036E-003
	14	14	4.99442E-002	-6.38778E-002	0.00000E+000	-3.19032E-003	-6.34039E-001	3.25655E-002	2.71851E+001	11	...........	5.41119E-002	-3.20111E-003	5.48845E-001	7.18054E-001	-3.11100E-002	-3.93856E-002	6.16317E-001	-4.24699E-002	-3.45655E-003	2.04480E-004	-3.50590E-002	-4.58677E-002	1.98724E-003	2.51586E-003	-3.93690E-002	2.71288E-003
	15	15	4.99560E-002	-6.19771E-002	0.00000E+000	-3.09613E-003	-6.15145E-001	3.25953E-002	2.76734E+001	11	...........	5.41308E-002	-3.26778E-003	5.48859E-001	7.18021E-001	-3.11229E-002	-3.93856E-002	6.16280E-001	-4.23276E-002	-3.35487E-003	2.02527E-004	-3.40167E-002	-4.45008E-002	1.92891E-003	2.44100E-003	-3.81953E-002	2.62334E-003
	16	16	4.99576E-002	-6.23211E-002	0.00000E+000	-3.11341E-003	-6.18564E-001	3.27640E-002	2.75274E+001	11	...........	5.44396E-002	-3.29264E-003	5.48779E-001	7.17941E-001	-3.11296E-002	-3.94010E-002	6.16310E-001	-4.23726E-002	-3.39273E-003	2.05201E-004	-3.42005E-002	-4.47428E-002	1.94003E-003	2.45551E-003	-3.84091E-002	2.64071E-003
	17	17	4.99854E-002	-6.02669E-002	0.00000E+000	-3.01246E-003	-5.98149E-001	3.27078E-002	2.74663E+001	11	...........	5.43464E-002	-3.22236E-003	5.48886E-001	7.17848E-001	-3.11129E-002	-3.93890E-002	6.16121E-001	-4.24085E-002	-3.27529E-003	1.94202E-004	-3.30797E-002	-4.32625E-002	1.87508E-003	2.37385E-003	-3.71317E-002	2.55583E-003
	18	18	4.99416E-002	-6.02761E-002	0.00000E+000	-3.01028E-003	-5.98240E-001	3.27351E-002	2.79025E+001	11	...........	5.43608E-002	-3.24431E-003	5.49020E-001	7.17868E-001	-3.11124E-002	-3.93675E-002	6.16168E-001	-4.24018E-002	-3.27666E-003	1.95554E-004	-3.30928E-002	-4.32703E-002	1.87533E-003	2.37292E-003	-3.71402E-002	2.55581E-003
	19	19	4.99826E-002	-5.90713E-002	0.00000E+000	-2.95254E-003	-5.86262E-001	3.28459E-002	2.74274E+001	11	...........	5.45696E-002	-3.25556E-003	5.48982E-001	7.17948E-001	-3.11087E-002	-3.93622E-002	6.16098E-001	-4.24949E-002	-3.22349E-003	1.92310E-004	-3.24291E-002	-4.24101E-002	1.83763E-003	2.32518E-003	-3.63937E-002	2.51023E-003
	20	20	4.99585E-002	-5.82354E-002	0.00000E+000	-2.90935E-003	-5.77946E-001	3.26964E-002	2.77601E+001	11	...........	5.44678E-002	-3.24847E-003	5.48946E-001	7.17951E-001	-3.11579E-002	-3.93542E-002	6.16139E-001	-4.25978E-002	-3.17195E-003	1.89176E-004	-3.19681E-002	-4.18102E-002	1.81449E-003	2.29181E-003	-3.58811E-002	2.48070E-003
	21	21	4.99427E-002	-5.70437E-002	0.00000E+000	-2.84892E-003	-5.66096E-001	3.27232E-002	2.76124E+001	11	...........	5.45881E-002	-3.18028E-003	5.48752E-001	7.18020E-001	-3.11765E-002	-3.93464E-002	6.16314E-001	-4.26426E-002	-3.11390E-003	1.81415E-004	-3.13028E-002	-4.09585E-002	1.77842E-003	2.24446E-003	-3.51568E-002	2.43249E-003
	22	22	4.99795E-002	-5.67059E-002	0.00000E+000	-2.83414E-003	-5.62731E-001	3.28219E-002	2.76584E+001	11	...........	5.47662E-002	-3.12542E-003	5.48808E-001	7.18085E-001	-3.11475E-002	-3.93312E-002	6.16414E-001	-4.26604E-002	-3.10557E-003	1.77230E-004	-3.11207E-002	-4.07197E-002	1.76625E-003	2.23032E-003	-3.49544E-002	2.41910E-003
	23	23	4.99749E-002	-5.59295E-002	0.00000E+000	-2.79507E-003	-5.55010E-001	3.27760E-002	2.83468E+001	11	...........	5.46940E-002	-3.15153E-003	5.48862E-001	7.17997E-001	-3.11490E-002	-3.93139E-002	6.16345E-001	-4.26257E-002	-3.05901E-003	1.76263E-004	-3.06976E-002	-4.01572E-002	1.74215E-003	2.19881E-003	-3.44719E-002	2.38403E-003
	24	24	4.99429E-002	-5.48579E-002	0.00000E+000	-2.73976E-003	-5.44358E-001	3.28145E-002	2.81480E+001	11	...........	5.47206E-002	-3.15097E-003	5.48829E-001	7.17918E-001	-3.11454E-002	-3.93215E-002	6.16325E-001	-4.27247E-002	-3.00185E-003	1.72856E-004	-3.01076E-002	-3.93835E-002	1.70857E-003	2.15710E-003	-3.38103E-002	2.34379E-003
	25	25	4.99728E-002	-5.45314E-002	0.00000E+000	-2.72509E-003	-5.41106E-001	3.29372E-002	2.80661E+001	11	...........	5.49408E-002	-3.10944E-003	5.48742E-001	7.17899E-001	-3.11351E-002	-3.93668E-002	6.16252E-001	-4.25706E-002	-2.99600E-003	1.69562E-004	-2.99237E-002	-3.91481E-002	1.69784E-003	2.14673E-003	-3.36051E-002	2.32143E-003
	26	26	4.99631E-002	-5.39617E-002	0.00000E+000	-2.69609E-003	-5.35444E-001	3.28793E-002	2.79275E+001	11	...........	5.48428E-002	-3.05708E-003	5.48766E-001	7.18006E-001	-3.11336E-002	-3.93804E-002	6.16262E-001	-4.25924E-002	-2.95941E-003	1.64965E-004	-2.96123E-002	-3.87448E-002	1.68002E-003	2.12503E-003	-3.32546E-002	2.29836E-003
	27	27	4.99732E-002	-5.29584E-002	0.00000E+000	-2.64650E-003	-5.25464E-001	3.28820E-002	2.82931E+001	11	...........	5.48751E-002	-3.12181E-003	5.48820E-001	7.17980E-001	-3.11542E-002	-3.93783E-002	6.16297E-001	-4.25011E-002	-2.90610E-003	1.65326E-004	-2.90646E-002	-3.80231E-002	1.64987E-003	2.08541E-003	-3.26381E-002	2.25079E-003
	28	28	4.99649E-002	-5.30603E-002	0.00000E+000	-2.65115E-003	-5.26474E-001	3.30277E-002	2.82661E+001	11	...........	5.51065E-002	-3.25306E-003	5.48855E-001	7.18118E-001	-3.11571E-002	-3.93919E-002	6.16376E-001	-4.24321E-002	-2.92397E-003	1.72608E-004	-2.91224E-002	-3.81036E-002	1.65320E-003	2.09015E-003	-3.27051E-002	2.25146E-003
	29	29	4.99744E-002	-5.15448E-002	0.00000E+000	-2.57592E-003	-5.11416E-001	3.29563E-002	2.79916E+001	11	...........	5.49904E-002	-3.16347E-003	5.48710E-001	7.18183E-001	-3.11632E-002	-3.93760E-002	6.16246E-001	-4.24210E-002	-2.83447E-003	1.63060E-004	-2.82831E-002	-3.70186E-002	1.60630E-003	2.02963E-003	-3.17643E-002	2.18658E-003
	30	30	4.99632E-002	-5.04982E-002	0.00000E+000	-2.52305E-003	-5.01028E-001	3.29384E-002	2.81923E+001	11	...........	5.49486E-002	-3.20667E-003	5.48707E-001	7.18135E-001	-3.11722E-002	-3.93829E-002	6.16189E-001	-4.25337E-002	-2.77481E-003	1.61931E-004	-2.77087E-002	-3.62645E-002	1.57414E-003	1.98877E-003	-3.11165E-002	2.14788E-003
	31	31	4.99643E-002	-5.05501E-002	0.00000E+000	-2.52570E-003	-5.01539E-001	3.30224E-002	2.82320E+001	11	...........	5.50812E-002	-3.20347E-003	5.48779E-001	7.18135E-001	-3.11526E-002	-3.94051E-002	6.16225E-001	-4.25408E-002	-2.78436E-003	1.61936E-004	-2.77409E-002	-3.63018E-002	1.57477E-003	1.99194E-003	-3.11503E-002	2.15045E-003
	32	32	4.99453E-002	-5.03121E-002	0.00000E+000	-2.51285E-003	-4.99177E-001	3.31157E-002	2.82337E+001	11	...........	5.52508E-002	-3.27431E-003	5.48641E-001	7.18184E-001	-3.11503E-002	-3.94072E-002	6.16225E-001	-4.26143E-002	-2.77979E-003	1.64737E-004	-2.76033E-002	-3.61333E-002	1.56724E-003	1.98266E-003	-3.10036E-002	2.14402E-003
	33	33	4.99773E-002	-4.95078E-002	0.00000E+000	-2.47427E-003	-4.91180E-001	3.31736E-002	2.82746E+001	11	...........	5.53599E-002	-3.20056E-003	5.48517E-001	7.18094E-001	-3.11696E-002	-3.93937E-002	6.16317E-001	-4.25497E-002	-2.74074E-003	1.58452E-004	-2.71559E-002	-3.55512E-002	1.54314E-003	1.95030E-003	-3.05125E-002	2.10654E-003
	34	34	4.99574E-002	-4.87514E-002	0.00000E+000	-2.43549E-003	-4.83660E-001	3.30043E-002	2.81359E+001	11	...........	5.50594E-002	-3.21083E-003	5.48485E-001	7.18186E-001	-3.11519E-002	-3.93853E-002	6.16316E-001	-4.25037E-002	-2.68422E-003	1.56533E-004	-2.67394E-002	-3.50126E-002	1.51870E-003	1.92009E-003	-3.00463E-002	2.07212E-003
	35	35	4.99673E-002	-4.79654E-002	0.00000E+000	-2.39671E-003	-4.75838E-001	3.32009E-002	2.81895E+001	11	...........	5.53719E-002	-3.18500E-003	5.48386E-001	7.18193E-001	-3.11610E-002	-3.93749E-002	6.16424E-001	-4.25435E-002	-2.65594E-003	1.52770E-004	-2.63036E-002	-3.44484E-002	1.49465E-003	1.88863E-003	-2.95670E-002	2.04062E-003
	36	36	4.99614E-002	-4.75198E-002	0.00000E+000	-2.37416E-003	-4.71405E-001	3.32335E-002	2.83130E+001	11	...........	5.54476E-002	-3.21361E-003	5.48517E-001	7.18123E-001	-3.11681E-002	-3.93685E-002	6.16416E-001	-4.25261E-002	-2.63486E-003	1.52710E-004	-2.60654E-002	-3.41251E-002	1.48110E-003	1.87078E-003	-2.92920E-002	2.02083E-003
	37	37	4.99550E-002	-4.63650E-002	0.00000E+000	-2.31616E-003	-4.59924E-001	3.31202E-002	2.80779E+001	11	...........	5.52644E-002	-3.26014E-003	5.48693E-001	7.18216E-001	-3.11674E-002	-3.93917E-002	6.16331E-001	-4.25522E-002	-2.56234E-003	1.51156E-004	-2.54401E-002	-3.33001E-002	1.44508E-003	1.82640E-003	-2.85762E-002	1.97293E-003
	38	38	4.99861E-002	-4.65670E-002	0.00000E+000	-2.32770E-003	-4.61931E-001	3.33222E-002	2.85586E+001	11	...........	5.55931E-002	-3.33097E-003	5.48635E-001	7.18278E-001	-3.11693E-002	-3.93939E-002	6.16327E-001	-4.24618E-002	-2.58880E-003	1.55113E-004	-2.55483E-002	-3.34480E-002	1.45146E-003	1.83445E-003	-2.87005E-002	1.97732E-003
	39	39	4.99596E-002	-4.59665E-002	0.00000E+000	-2.29647E-003	-4.55959E-001	3.32317E-002	2.82789E+001	11	...........	5.54561E-002	-3.38889E-003	5.48854E-001	7.18236E-001	-3.12150E-002	-3.93674E-002	6.16433E-001	-4.24043E-002	-2.54912E-003	1.55775E-004	-2.52289E-002	-3.30148E-002	1.43484E-003	1.80958E-003	-2.83353E-002	1.94918E-003
	40	40	4.99733E-002	-4.51375E-002	0.00000E+000	-2.25567E-003	-4.47715E-001	3.32771E-002	2.79153E+001	11	...........	5.55047E-002	-3.41597E-003	5.48927E-001	7.18299E-001	-3.12228E-002	-3.93647E-002	6.16361E-001	-4.24444E-002	-2.50535E-003	1.54189E-004	-2.47772E-002	-3.24222E-002	1.40932E-003	1.77683E-003	-2.78210E-002	1.91584E-003
	41	41	4.99768E-002	-4.49510E-002	0.00000E+000	-2.24651E-003	-4.45859E-001	3.32357E-002	2.86661E+001	11	...........	5.54396E-002	-3.29472E-003	5.48831E-001	7.18282E-001	-3.12546E-002	-3.93542E-002	6.16403E-001	-4.25300E-002	-2.49206E-003	1.48101E-004	-2.46705E-002	-3.22875E-002	1.40492E-003	1.76901E-003	-2.77079E-002	1.91176E-003
	42	42	4.99436E-002	-4.38023E-002	0.00000E+000	-2.18765E-003	-4.34438E-001	3.32606E-002	2.84057E+001	11	...........	5.54889E-002	-3.26292E-003	5.48671E-001	7.18243E-001	-3.12656E-002	-3.93181E-002	6.16518E-001	-4.24187E-002	-2.43054E-003	1.42923E-004	-2.40331E-002	-3.14607E-002	1.36950E-003	1.72222E-003	-2.70049E-002	1.85804E-003
	43	43	4.99866E-002	-4.37539E-002	0.00000E+000	-2.18711E-003	-4.33956E-001	3.34567E-002	2.84602E+001	11	...........	5.58078E-002	-3.19278E-003	5.48830E-001	7.18266E-001	-3.12531E-002	-3.93197E-002	6.16457E-001	-4.23903E-002	-2.44181E-003	1.39696E-004	-2.40134E-002	-3.14269E-002	1.36744E-003	1.72039E-003	-2.69724E-002	1.85474E-003
	44	44	4.99672E-002	-4.30770E-002	0.00000E+000	-2.15244E-003	-4.27223E-001	3.32729E-002	2.86532E+001	11	...........	5.55065E-002	-3.16361E-003	5.48833E-001	7.18430E-001	-3.12754E-002	-3.93400E-002	6.16404E-001	-4.24075E-002	-2.39106E-003	1.36279E-004	-2.36421E-002	-3.09478E-002	1.34725E-003	1.69465E-003	-2.65528E-002	1.82679E-003
	45	45	4.99591E-002	-4.27390E-002	0.00000E+000	-2.13520E-003	-4.23864E-001	3.34547E-002	2.86155E+001	11	...........	5.58047E-002	-3.14847E-003	5.48699E-001	7.18390E-001	-3.12756E-002	-3.93339E-002	6.16378E-001	-4.24519E-002	-2.38504E-003	1.34563E-004	-2.34508E-002	-3.07033E-002	1.33669E-003	1.68109E-003	-2.63434E-002	1.81435E-003
	46	46	4.99789E-002	-4.21636E-002	0.00000E+000	-2.10729E-003	-4.18144E-001	3.34042E-002	2.86377E+001	11	...........	5.57397E-002	-3.03194E-003	5.48656E-001	7.18315E-001	-3.12590E-002	-3.93221E-002	6.16401E-001	-4.24256E-002	-2.35019E-003	1.27838E-004	-2.31333E-002	-3.02867E-002	1.31799E-003	1.65796E-003	-2.59897E-002	1.78881E-003
	47	47	4.99523E-002	-4.07025E-002	0.00000E+000	-2.03318E-003	-4.03635E-001	3.31695E-002	2.88232E+001	11	...........	5.53462E-002	-3.09111E-003	5.48477E-001	7.18276E-001	-3.12690E-002	-3.93256E-002	6.16416E-001	-4.25789E-002	-2.25273E-003	1.25816E-004	-2.23244E-002	-2.92356E-002	1.27273E-003	1.60065E-003	-2.50897E-002	1.73307E-003
	48	48	4.99598E-002	-4.14888E-002	0.00000E+000	-2.07277E-003	-4.11448E-001	3.35867E-002	2.87924E+001	11	...........	5.60428E-002	-3.19736E-003	5.48397E-001	7.18302E-001	-3.12840E-002	-3.93292E-002	6.16495E-001	-4.25561E-002	-2.32515E-003	1.32655E-004	-2.27523E-002	-2.98015E-002	1.29794E-003	1.63172E-003	-2.55776E-002	1.76560E-003
	49	49	4.99858E-002	-4.08297E-002	0.00000E+000	-2.04090E-003	-4.04893E-001	3.35647E-002	2.87508E+001	11	...........	5.59944E-002	-3.10806E-003	5.48315E-001	7.18331E-001	-3.12876E-002	-3.93164E-002	6.16398E-001	-4.26197E-002	-2.28623E-003	1.26901E-004	-2.23875E-002	-2.93292E-002	1.27746E-003	1.60528E-003	-2.51673E-002	1.74015E-003
	50	50	4.99567E-002	-3.98079E-002	0.00000E+000	-1.98867E-003	-3.94739E-001	3.33299E-002	2.90023E+001	11	...........	5.56060E-002	-3.13028E-003	5.48312E-001	7.18345E-001	-3.12693E-002	-3.93256E-002	6.16368E-001	-4.25962E-002	-2.21356E-003	1.24610E-004	-2.18271E-002	-2.85958E-002	1.24476E-003	1.56547E-003	-2.45363E-002	1.69567E-003
	51	51	4.99543E-002	-3.92346E-002	0.00000E+000	-1.95993E-003	-3.89038E-001	3.34112E-002	2.84217E+001	11	...........	5.57324E-002	-3.11736E-003	5.48378E-001	7.18345E-001	-3.13017E-002	-3.93007E-002	6.16367E-001	-4.24621E-002	-2.18663E-003	1.22308E-004	-2.15154E-002	-2.81840E-002	1.22811E-003	1.54195E-003	-2.41829E-002	1.66598E-003
	52	52	4.99858E-002	-3.92798E-002	0.00000E+000	-1.96343E-003	-3.89491E-001	3.36627E-002	2.86715E+001	11	...........	5.61651E-002	-3.09597E-003	5.48276E-001	7.18475E-001	-3.12962E-002	-3.92903E-002	6.16377E-001	-4.24712E-002	-2.20616E-003	1.21609E-004	-2.15362E-002	-2.82216E-002	1.22931E-003	1.54332E-003	-2.42112E-002	1.66826E-003
	53	53	4.99712E-002	-3.82803E-002	0.00000E+000	-1.91291E-003	-3.79550E-001	3.34879E-002	2.89415E+001	11	...........	5.58747E-002	-3.17556E-003	5.48315E-001	7.18542E-001	-3.13204E-002	-3.92907E-002	6.16487E-001	-4.25874E-002	-2.13890E-003	1.21561E-004	-2.09896E-002	-2.75060E-002	1.19895E-003	1.50406E-003	-2.35993E-002	1.63026E-003
	54	54	4.99668E-002	-3.80431E-002	0.00000E+000	-1.90089E-003	-3.77189E-001	3.35055E-002	2.88779E+001	11	...........	5.59169E-002	-3.24361E-003	5.48518E-001	7.18513E-001	-3.13196E-002	-3.92840E-002	6.16428E-001	-4.27208E-002	-2.12726E-003	1.23397E-004	-2.08673E-002	-2.73345E-002	1.19150E-003	1.49449E-003	-2.34508E-002	1.62523E-003
	55	55	4.99575E-002	-3.77986E-002	0.00000E+000	-1.88832E-003	-3.74755E-001	3.34404E-002	2.87617E+001	11	...........	5.57939E-002	-3.26236E-003	5.48718E-001	7.18513E-001	-3.12953E-002	-3.92571E-002	6.16422E-001	-4.27562E-002	-2.10893E-003	1.23313E-004	-2.07407E-002	-2.71588E-002	1.18292E-003	1.48386E-003	-2.32999E-002	1.61613E-003
	56	56	4.99605E-002	-3.73584E-002	0.00000E+000	-1.86644E-003	-3.70377E-001	3.37432E-002	2.88661E+001	11	...........	5.63024E-002	-3.13597E-003	5.48893E-001	7.18399E-001	-3.12778E-002	-3.92637E-002	6.16435E-001	-4.27760E-002	-2.10337E-003	1.17155E-004	-2.05058E-002	-2.68382E-002	1.16849E-003	1.46683E-003	-2.30290E-002	1.59804E-003
	57	57	4.99741E-002	-3.68399E-002	0.00000E+000	-1.84104E-003	-3.65224E-001	3.35539E-002	2.88365E+001	11	...........	5.60518E-002	-3.10167E-003	5.48861E-001	7.18347E-001	-3.12800E-002	-3.92749E-002	6.16322E-001	-4.27142E-002	-2.06494E-003	1.14265E-004	-2.02200E-002	-2.64638E-002	1.15235E-003	1.44688E-003	-2.27052E-002	1.57358E-003
	58	58	4.99849E-002	-3.65741E-002	0.00000E+000	-1.82815E-003	-3.62579E-001	3.36393E-002	2.88917E+001	11	...........	5.61154E-002	-3.14292E-003	5.48957E-001	7.18338E-001	-3.12914E-002	-3.92840E-002	6.16384E-001	-4.25407E-002	-2.05237E-003	1.14949E-004	-2.00776E-002	-2.62726E-002	1.14446E-003	1.43678E-003	-2.25437E-002	1.55589E-003
	59	59	4.99472E-002	-3.59506E-002	0.00000E+000	-1.79563E-003	-3.56376E-001	3.35612E-002	2.87150E+001	11	...........	5.59687E-002	-3.04514E-003	5.48951E-001	7.18214E-001	-3.13014E-002	-3.92746E-002	6.16363E-001	-4.24122E-002	-2.01211E-003	1.09475E-004	-1.97351E-002	-2.58202E-002	1.12530E-003	1.41194E-003	-2.21586E-002	1.52474E-003
	60	60	4.99735E-002	-3.54791E-002	0.00000E+000	-1.77302E-003	-3.51685E-001	3.36654E-002	2.87320E+001	11	...........	5.61732E-002	-3.16014E-003	5.48911E-001	7.18223E-001	-3.13076E-002	-3.93114E-002	6.16395E-001	-4.24475E-002	-1.99298E-003	1.12119E-004	-1.94749E-002	-2.54819E-002	1.11077E-003	1.39473E-003	-2.18691E-002	1.50600E-003
	61	61	4.99699E-002	-3.53831E-002	0.00000E+000	-1.76809E-003	-3.50728E-001	3.37476E-002	2.93823E+001	11	...........	5.62869E-002	-3.16875E-003	5.48935E-001	7.18241E-001	-3.13050E-002	-3.93256E-002	6.16443E-001	-4.26833E-002	-1.99161E-003	1.12120E-004	-1.94230E-002	-2.54136E-002	1.10767E-003	1.39146E-003	-2.18117E-002	1.51027E-003
	62	62	4.99607E-002	-3.47781E-002	0.00000E+000	-1.73754E-003	-3.44711E-001	3.37327E-002	2.90469E+001	11	...........	5.62753E-002	-3.21069E-003	5.48865E-001	7.18332E-001	-3.13156E-002	-3.93392E-002	6.16467E-001	-4.27462E-002	-1.95715E-003	1.11662E-004	-1.90885E-002	-2.49822E-002	1.08910E-003	1.36814E-003	-2.14396E-002	1.48663E-003
	63	63	4.99606E-002	-3.35196E-002	0.00000E+000	-1.67466E-003	-3.32203E-001	3.36114E-002	2.85131E+001	11	...........	5.60543E-002	-3.25444E-003	5.48948E-001	7.18303E-001	-3.13228E-002	-3.93506E-002	6.16477E-001	-4.26792E-002	-1.87892E-003	1.09088E-004	-1.84005E-002	-2.40772E-002	1.04993E-003	1.31901E-003	-2.06641E-002	1.43059E-003
	64	64	4.99920E-002	-3.35788E-002	0.00000E+000	-1.67867E-003	-3.32789E-001	3.37982E-002	2.90026E+001	11	...........	5.63904E-002	-3.21556E-003	5.48983E-001	7.18320E-001	-3.12958E-002	-3.93521E-002	6.16321E-001	-4.26489E-002	-1.89352E-003	1.07974E-004	-1.84342E-002	-2.41203E-002	1.05088E-003	1.32140E-003	-2.06953E-002	1.43210E-003
	65	65	4.99584E-002	-3.36020E-002	0.00000E+000	-1.67870E-003	-3.33023E-001	3.36990E-002	2.93545E+001	11	...........	5.62260E-002	-3.20597E-003	5.48961E-001	7.18422E-001	-3.12881E-002	-3.93587E-002	6.16335E-001	-4.25400E-002	-1.88931E-003	1.07727E-004	-1.84462E-002	-2.41404E-002	1.05134E-003	1.32253E-003	-2.07101E-002	1.42943E-003
	66	66	4.99673E-002	-3.27087E-002	0.00000E+000	-1.63437E-003	-3.24138E-001	3.37908E-002	2.89875E+001	11	...........	5.63918E-002	-3.23333E-003	5.49007E-001	7.18316E-001	-3.12561E-002	-3.93686E-002	6.16408E-001	-4.24965E-002	-1.84451E-003	1.05758E-004	-1.79573E-002	-2.34952E-002	1.02235E-003	1.28770E-003	-2.01619E-002	1.39001E-003
	67	67	4.99663E-002	-3.25126E-002	0.00000E+000	-1.62454E-003	-3.22188E-001	3.37592E-002	2.89153E+001	11	...........	5.63151E-002	-3.26639E-003	5.48875E-001	7.18230E-001	-3.12722E-002	-3.93824E-002	6.16361E-001	-4.25682E-002	-1.83095E-003	1.06199E-004	-1.78454E-002	-2.33516E-002	1.01674E-003	1.28042E-003	-2.00395E-002	1.38400E-003
	68	68	4.99798E-002	-3.21454E-002	0.00000E+000	-1.60662E-003	-3.18535E-001	3.38482E-002	2.92311E+001	11	...........	5.64803E-002	-3.19236E-003	5.49017E-001	7.17995E-001	-3.12518E-002	-3.93900E-002	6.16332E-001	-4.25401E-002	-1.81558E-003	1.02620E-004	-1.76484E-002	-2.30802E-002	1.00460E-003	1.26621E-003	-1.98122E-002	1.36747E-003
	69	69	4.99592E-002	-3.20021E-002	0.00000E+000	-1.59880E-003	-3.17111E-001	3.39103E-002	2.90182E+001	11	...........	5.65629E-002	-3.16319E-003	5.49130E-001	7.17990E-001	-3.12337E-002	-3.94190E-002	6.16366E-001	-4.25150E-002	-1.81013E-003	1.01229E-004	-1.75733E-002	-2.29772E-002	9.99546E-004	1.26149E-003	-1.97250E-002	1.36057E-003
	70	70	4.99517E-002	-3.11755E-002	0.00000E+000	-1.55727E-003	-3.08898E-001	3.37253E-002	2.92155E+001	11	...........	5.62694E-002	-3.22056E-003	5.49131E-001	7.18049E-001	-3.12012E-002	-3.94272E-002	6.16321E-001	-4.24325E-002	-1.75423E-003	1.00403E-004	-1.71195E-002	-2.23856E-002	9.72716E-004	1.22917E-003	-1.92141E-002	1.32286E-003
	71	71	4.99866E-002	-3.07816E-002	0.00000E+000	-1.53867E-003	-3.04991E-001	3.39174E-002	2.91770E+001	11	...........	5.65839E-002	-3.23819E-003	5.49140E-001	7.18093E-001	-3.11956E-002	-3.93865E-002	6.16265E-001	-4.25036E-002	-1.74174E-003	9.96767E-005	-1.69034E-002	-2.21040E-002	9.60248E-004	1.21238E-003	-1.89696E-002	1.30833E-003
	72	72	4.99746E-002	-3.06640E-002	0.00000E+000	-1.53242E-003	-3.03828E-001	3.36949E-002	2.88750E+001	11	...........	5.62058E-002	-3.18069E-003	5.49081E-001	7.18037E-001	-3.11894E-002	-3.93960E-002	6.16299E-001	-4.24075E-002	-1.72349E-003	9.75328E-005	-1.68370E-002	-2.20179E-002	9.56393E-004	1.20804E-003	-1.88982E-002	1.30038E-003
	73	73	4.99514E-002	-3.03038E-002	0.00000E+000	-1.51372E-003	-3.00246E-001	3.39347E-002	2.94924E+001	11	...........	5.66206E-002	-3.19375E-003	5.49136E-001	7.17972E-001	-3.11792E-002	-3.93906E-002	6.16400E-001	-4.23183E-002	-1.71582E-003	9.67827E-005	-1.66409E-002	-2.17573E-002	9.44846E-004	1.19368E-003	-1.86793E-002	1.28241E-003
	74	74	4.99710E-002	-2.96377E-002	0.00000E+000	-1.48103E-003	-2.93625E-001	3.39297E-002	2.92761E+001	11	...........	5.66164E-002	-3.18319E-003	5.49179E-001	7.18011E-001	-3.11757E-002	-3.93821E-002	6.16424E-001	-4.23772E-002	-1.67798E-003	9.43425E-005	-1.62764E-002	-2.12802E-002	9.23975E-004	1.16719E-003	-1.82694E-002	1.25596E-003
	75	75	4.99734E-002	-2.95272E-002	0.00000E+000	-1.47557E-003	-2.92527E-001	3.38495E-002	2.91774E+001	11	...........	5.64696E-002	-3.28278E-003	5.49166E-001	7.18090E-001	-3.11740E-002	-3.93787E-002	6.16372E-001	-4.24408E-002	-1.66739E-003	9.69311E-005	-1.62153E-002	-2.12031E-002	9.20480E-004	1.16274E-003	-1.81997E-002	1.25316E-003
	76	76	4.99690E-002	-2.93228E-002	0.00000E+000	-1.46523E-003	-2.90500E-001	3.39367E-002	2.94187E+001	11	...........	5.66215E-002	-3.31806E-003	5.49290E-001	7.18153E-001	-3.11764E-002	-3.94090E-002	6.16443E-001	-4.24061E-002	-1.66030E-003	9.72948E-005	-1.61067E-002	-2.10583E-002	9.14180E-004	1.15558E-003	-1.80758E-002	1.24347E-003
	77	77	4.99539E-002	-2.85759E-002	0.00000E+000	-1.42748E-003	-2.83060E-001	3.39607E-002	2.90534E+001	11	...........	5.66640E-002	-3.42236E-003	5.49315E-001	7.18195E-001	-3.11774E-002	-3.94212E-002	6.16411E-001	-4.24576E-002	-1.61923E-003	9.77972E-005	-1.56972E-002	-2.05231E-002	8.90922E-004	1.12650E-003	-1.76145E-002	1.21327E-003
	78	78	4.99812E-002	-2.80912E-002	0.00000E+000	-1.40403E-003	-2.78246E-001	3.39761E-002	2.95370E+001	11	...........	5.66782E-002	-3.23583E-003	5.49430E-001	7.18081E-001	-3.11683E-002	-3.93957E-002	6.16384E-001	-4.26169E-002	-1.59216E-003	9.08985E-005	-1.54342E-002	-2.01718E-002	8.75556E-004	1.10667E-003	-1.73150E-002	1.19716E-003
	79	79	4.99723E-002	-2.81617E-002	0.00000E+000	-1.40730E-003	-2.78950E-001	3.37864E-002	2.93242E+001	11	...........	5.63694E-002	-3.14306E-003	5.49395E-001	7.18022E-001	-3.11599E-002	-3.93689E-002	6.16432E-001	-4.25971E-002	-1.58746E-003	8.85137E-005	-1.54719E-002	-2.02207E-002	8.77513E-004	1.10869E-003	-1.73598E-002	1.19960E-003
	80	80	4.99639E-002	-2.77594E-002	0.00000E+000	-1.38697E-003	-2.74945E-001	3.40590E-002	2.93015E+001	11	...........	5.68131E-002	-3.09014E-003	5.49206E-001	7.18037E-001	-3.11712E-002	-3.93646E-002	6.16319E-001	-4.25325E-002	-1.57710E-003	8.57805E-005	-1.52456E-002	-1.99323E-002	8.65297E-004	1.09274E-003	-1.71087E-002	1.18068E-003
	81	81	4.99660E-002	-2.71905E-002	0.00000E+000	-1.35860E-003	-2.69283E-001	3.40173E-002	2.92225E+001	11	...........	5.67551E-002	-3.19181E-003	5.49221E-001	7.18051E-001	-3.11710E-002	-3.93633E-002	6.16442E-001	-4.23885E-002	-1.54320E-003	8.67869E-005	-1.49336E-002	-1.95242E-002	8.47556E-004	1.07031E-003	-1.67614E-002	1.15257E-003
	82	82	4.99748E-002	-2.70153E-002	0.00000E+000	-1.35008E-003	-2.67547E-001	3.40962E-002	2.97845E+001	11	...........	5.68803E-002	-3.20958E-003	5.49127E-001	7.18067E-001	-3.11826E-002	-3.93869E-002	6.16215E-001	-4.24393E-002	-1.53664E-003	8.67078E-005	-1.48348E-002	-1.93988E-002	8.42408E-004	1.06405E-003	-1.66472E-002	1.14651E-003
	83	83	4.99689E-002	-2.69984E-002	0.00000E+000	-1.34908E-003	-2.67377E-001	3.39208E-002	2.94325E+001	11	...........	5.65983E-002	-3.15528E-003	5.49139E-001	7.18043E-001	-3.11946E-002	-3.93707E-002	6.16221E-001	-4.24007E-002	-1.52807E-003	8.51876E-005	-1.48259E-002	-1.93861E-002	8.42205E-004	1.06295E-003	-1.66370E-002	1.14475E-003
	84	84	4.99765E-002	-2.62790E-002	0.00000E+000	-1.31333E-003	-2.60223E-001	3.40712E-002	2.94125E+001	11	...........	5.68397E-002	-3.24472E-003	5.49211E-001	7.17833E-001	-3.11882E-002	-3.93639E-002	6.16215E-001	-4.24882E-002	-1.49369E-003	8.52680E-005	-1.44327E-002	-1.88639E-002	8.19594E-004	1.03444E-003	-1.61935E-002	1.11655E-003
	85	85	4.99624E-002	-2.61569E-002	0.00000E+000	-1.30686E-003	-2.59009E-001	3.39623E-002	2.96612E+001	11	...........	5.66490E-002	-3.29736E-003	5.49131E-001	7.17766E-001	-3.11837E-002	-3.93312E-002	6.16227E-001	-4.24885E-002	-1.48176E-003	8.62487E-005	-1.43636E-002	-1.87745E-002	8.15670E-004	1.02878E-003	-1.61186E-002	1.11137E-003
	86	86	4.99745E-002	-2.57954E-002	0.00000E+000	-1.28911E-003	-2.55415E-001	3.40698E-002	2.94659E+001	11	...........	5.68471E-002	-3.31542E-003	5.49154E-001	7.17781E-001	-3.11861E-002	-3.93824E-002	6.16094E-001	-4.25406E-002	-1.46639E-003	8.55224E-005	-1.41656E-002	-1.85154E-002	8.04457E-004	1.01588E-003	-1.58924E-002	1.09735E-003
	87	87	4.99563E-002	-2.52358E-002	0.00000E+000	-1.26069E-003	-2.49851E-001	3.38716E-002	2.89045E+001	11	...........	5.65006E-002	-3.15819E-003	5.49122E-001	7.17759E-001	-3.11856E-002	-3.93687E-002	6.16207E-001	-4.25047E-002	-1.42584E-003	7.96997E-005	-1.38575E-002	-1.81133E-002	7.86994E-004	9.93503E-004	-1.55505E-002	1.07264E-003
	88	88	4.99797E-002	-2.49487E-002	0.00000E+000	-1.24693E-003	-2.46990E-001	3.42727E-002	2.93435E+001	11	...........	5.71751E-002	-3.09028E-003	5.49145E-001	7.17780E-001	-3.12343E-002	-3.93462E-002	6.16294E-001	-4.25004E-002	-1.42645E-003	7.70985E-005	-1.37005E-002	-1.79077E-002	7.79256E-004	9.81639E-004	-1.53758E-002	1.06033E-003
	89	89	4.99623E-002	-2.43013E-002	0.00000E+000	-1.21415E-003	-2.40552E-001	3.40265E-002	2.95907E+001	11	...........	5.67857E-002	-3.19792E-003	5.49059E-001	7.17903E-001	-3.12389E-002	-3.93560E-002	6.16407E-001	-4.24964E-002	-1.37996E-003	7.77134E-005	-1.33428E-002	-1.74460E-002	7.59145E-004	9.56400E-004	-1.49795E-002	1.03272E-003
	90	90	4.99677E-002	-2.42561E-002	0.00000E+000	-1.21202E-003	-2.40100E-001	3.41566E-002	2.97123E+001	11	...........	5.69828E-002	-3.20111E-003	5.48936E-001	7.18075E-001	-3.12401E-002	-3.93472E-002	6.16448E-001	-4.24874E-002	-1.38218E-003	7.76463E-005	-1.33150E-002	-1.74177E-002	7.57763E-004	9.54408E-004	-1.49526E-002	1.03058E-003
	91	91	4.99689E-002	-2.40592E-002	0.00000E+000	-1.20221E-003	-2.38146E-001	3.41817E-002	2.94919E+001	11	...........	5.70283E-002	-3.26264E-003	5.48963E-001	7.18157E-001	-3.12415E-002	-3.93408E-002	6.16386E-001	-4.24347E-002	-1.37206E-003	7.84965E-005	-1.32076E-002	-1.72783E-002	7.51646E-004	9.46509E-004	-1.48298E-002	1.02095E-003
	92	92	4.99735E-002	-2.35485E-002	0.00000E+000	-1.17680E-003	-2.33062E-001	3.41241E-002	2.96018E+001	11	...........	5.69325E-002	-3.23736E-003	5.48925E-001	7.18199E-001	-3.12356E-002	-3.93403E-002	6.16436E-001	-4.25192E-002	-1.34067E-003	7.62349E-005	-1.29263E-002	-1.69125E-002	7.35550E-004	9.26404E-004	-1.45161E-002	1.00126E-003
	93	93	4.99665E-002	-2.34938E-002	0.00000E+000	-1.17390E-003	-2.32524E-001	3.41659E-002	2.98055E+001	11	...........	5.69918E-002	-3.30972E-003	5.49031E-001	7.18415E-001	-3.12218E-002	-3.93767E-002	6.16425E-001	-4.25076E-002	-1.33896E-003	7.77581E-005	-1.28988E-002	-1.68783E-002	7.33520E-004	9.25109E-004	-1.44822E-002	9.98667E-004
	94	94	4.99766E-002	-2.31068E-002	0.00000E+000	-1.15480E-003	-2.28680E-001	3.41084E-002	2.95612E+001	11	...........	5.69237E-002	-3.21667E-003	5.49023E-001	7.18553E-001	-3.12197E-002	-3.93965E-002	6.16414E-001	-4.24954E-002	-1.31532E-003	7.43267E-005	-1.26862E-002	-1.66034E-002	7.21386E-004	9.10326E-004	-1.42433E-002	9.81931E-004
	95	95	4.99651E-002	-2.27905E-002	0.00000E+000	-1.13873E-003	-2.25531E-001	3.41562E-002	2.97316E+001	11	...........	5.69829E-002	-3.33111E-003	5.49051E-001	7.18552E-001	-3.12031E-002	-3.94022E-002	6.16412E-001	-4.25694E-002	-1.29867E-003	7.59176E-005	-1.25131E-002	-1.63762E-002	7.11133E-004	8.97996E-004	-1.40483E-002	9.70178E-004
	96	96	4.99765E-002	-2.27042E-002	0.00000E+000	-1.13468E-003	-2.24671E-001	3.43032E-002	3.02981E+001	11	...........	5.72451E-002	-3.16931E-003	5.49115E-001	7.18482E-001	-3.12157E-002	-3.93711E-002	6.16479E-001	-4.25490E-002	-1.29971E-003	7.19566E-005	-1.24672E-002	-1.63126E-002	7.08728E-004	8.93890E-004	-1.39967E-002	9.66042E-004
	97	97	4.99614E-002	-2.22348E-002	0.00000E+000	-1.11088E-003	-2.20003E-001	3.41681E-002	2.96319E+001	11	...........	5.70158E-002	-3.18694E-003	5.49180E-001	7.18375E-001	-3.12092E-002	-3.93594E-002	6.16398E-001	-4.24878E-002	-1.26773E-003	7.08610E-005	-1.22109E-002	-1.59729E-002	6.93929E-004	8.75149E-004	-1.37055E-002	9.44707E-004
	98	98	4.99713E-002	-2.19957E-002	0.00000E+000	-1.09915E-003	-2.17630E-001	3.41217E-002	2.95325E+001	11	...........	5.69375E-002	-3.20639E-003	5.49124E-001	7.18395E-001	-3.11860E-002	-3.93658E-002	6.16538E-001	-4.23678E-002	-1.25238E-003	7.05268E-005	-1.20784E-002	-1.58016E-002	6.85958E-004	8.65879E-004	-1.35612E-002	9.31909E-004
	99	99	4.99820E-002	-2.18884E-002	0.00000E+000	-1.09403E-003	-2.16563E-001	3.42925E-002	2.98216E+001	11	...........	5.72156E-002	-3.19597E-003	5.48829E-001	7.18509E-001	-3.11828E-002	-3.93779E-002	6.16527E-001	-4.24958E-002	-1.25236E-003	6.99547E-005	-1.20130E-002	-1.57270E-002	6.82541E-004	8.61919E-004	-1.34948E-002	9.30166E-004
	100	100	4.99646E-002	-2.15831E-002	0.00000E+000	-1.07839E-003	-2.13526E-001	3.41716E-002	2.95977E+001	11	...........	5.70129E-002	-3.26736E-003	5.48910E-001	7.18551E-001	-3.12029E-002	-3.93708E-002	6.16528E-001	-4.26174E-002	-1.23051E-003	7.05197E-005	-1.18472E-002	-1.55085E-002	6.73455E-004	8.49743E-004	-1.33066E-002	9.19813E-004
	101	101	4.99641E-002	-2.12885E-002	0.00000E+000	-1.06366E-003	-2.10594E-001	3.42617E-002	2.96712E+001	11	...........	5.71664E-002	-3.29778E-003	5.48947E-001	7.18509E-001	-3.12015E-002	-3.93844E-002	6.16531E-001	-4.25631E-002	-1.21699E-003	7.02049E-005	-1.16863E-002	-1.52960E-002	6.64235E-004	8.38438E-004	-1.31250E-002	9.06106E-004
	102	102	4.99776E-002	-2.11310E-002	0.00000E+000	-1.05608E-003	-2.09026E-001	3.43843E-002	3.01675E+001	11	...........	5.73721E-002	-3.20139E-003	5.49029E-001	7.18443E-001	-3.11887E-002	-3.93821E-002	6.16561E-001	-4.25082E-002	-1.21233E-003	6.76487E-005	-1.16016E-002	-1.51815E-002	6.59051E-004	8.32185E-004	-1.30286E-002	8.98243E-004
	103	103	4.99544E-002	-2.07139E-002	0.00000E+000	-1.03475E-003	-2.04883E-001	3.41696E-002	2.99632E+001	11	...........	5.69906E-002	-3.26903E-003	5.48927E-001	7.18459E-001	-3.11901E-002	-3.93731E-002	6.16538E-001	-4.23610E-002	-1.18050E-003	6.77144E-005	-1.13704E-002	-1.48821E-002	6.46071E-004	8.15571E-004	-1.27709E-002	8.77463E-004
	104	104	4.99803E-002	-2.01341E-002	0.00000E+000	-1.00631E-003	-1.99122E-001	3.42618E-002	2.97025E+001	11	...........	5.71500E-002	-3.24292E-003	5.48774E-001	7.18368E-001	-3.11958E-002	-3.93632E-002	6.16609E-001	-4.24646E-002	-1.15067E-003	6.52933E-005	-1.10491E-002	-1.44637E-002	6.28101E-004	7.92544E-004	-1.24149E-002	8.54988E-004
	105	105	4.99727E-002	-2.04728E-002	0.00000E+000	-1.02308E-003	-2.02494E-001	3.42815E-002	3.05884E+001	11	...........	5.71818E-002	-3.17889E-003	5.48738E-001	7.18221E-001	-3.12058E-002	-3.93758E-002	6.16654E-001	-4.26667E-002	-1.17067E-003	6.50807E-005	-1.12342E-002	-1.47040E-002	6.38870E-004	8.06132E-004	-1.26246E-002	8.73505E-004
	106	106	4.99666E-002	-2.00663E-002	0.00000E+000	-1.00264E-003	-1.98453E-001	3.42671E-002	2.98525E+001	11	...........	5.71603E-002	-3.26028E-003	5.48725E-001	7.18218E-001	-3.12243E-002	-3.93664E-002	6.16561E-001	-4.25697E-002	-1.14699E-003	6.54216E-005	-1.10109E-002	-1.44120E-002	6.26555E-004	7.89936E-004	-1.23721E-002	8.54215E-004
	107	107	4.99700E-002	-1.98644E-002	0.00000E+000	-9.92625E-004	-1.96437E-001	3.43153E-002	2.97026E+001	11	...........	5.72525E-002	-3.31056E-003	5.48615E-001	7.18114E-001	-3.12229E-002	-3.93700E-002	6.16672E-001	-4.25287E-002	-1.13729E-003	6.57623E-005	-1.08979E-002	-1.42649E-002	6.20226E-004	7.82063E-004	-1.22498E-002	8.44810E-004
	108	108	4.99699E-002	-1.95583E-002	0.00000E+000	-9.77328E-004	-1.93394E-001	3.43367E-002	2.97593E+001	11	...........	5.72954E-002	-3.32292E-003	5.48477E-001	7.18242E-001	-3.12383E-002	-3.93871E-002	6.16622E-001	-4.23856E-002	-1.12060E-003	6.49906E-005	-1.07273E-002	-1.40476E-002	6.10969E-004	7.70345E-004	-1.20601E-002	8.28990E-004
	109	109	4.99708E-002	-1.93605E-002	0.00000E+000	-9.67459E-004	-1.91431E-001	3.43637E-002	3.00163E+001	11	...........	5.73439E-002	-3.21042E-003	5.48457E-001	7.18421E-001	-3.12476E-002	-3.93976E-002	6.16586E-001	-4.24367E-002	-1.11021E-003	6.21552E-005	-1.06184E-002	-1.39090E-002	6.04969E-004	7.62757E-004	-1.19374E-002	8.21594E-004
	110	110	4.99719E-002	-1.88327E-002	0.00000E+000	-9.41106E-004	-1.86181E-001	3.41602E-002	2.96454E+001	11	...........	5.69921E-002	-3.09431E-003	5.48453E-001	7.18641E-001	-3.12418E-002	-3.93787E-002	6.16564E-001	-4.25715E-002	-1.07332E-003	5.82742E-005	-1.03289E-002	-1.35340E-002	5.88368E-004	7.41608E-004	-1.16116E-002	8.01737E-004
	111	111	4.99722E-002	-1.91339E-002	0.00000E+000	-9.56161E-004	-1.89177E-001	3.44915E-002	3.01605E+001	11	...........	5.75453E-002	-3.16097E-003	5.48512E-001	7.18559E-001	-3.12665E-002	-3.93967E-002	6.16510E-001	-4.25937E-002	-1.10106E-003	6.04816E-005	-1.04951E-002	-1.37488E-002	5.98249E-004	7.53810E-004	-1.17962E-002	8.14983E-004
	112	112	4.99693E-002	-1.86616E-002	0.00000E+000	-9.32509E-004	-1.84477E-001	3.43417E-002	3.02894E+001	11	...........	5.72953E-002	-3.21000E-003	5.48464E-001	7.18444E-001	-3.12897E-002	-3.93853E-002	6.16501E-001	-4.25640E-002	-1.06922E-003	5.99038E-005	-1.02352E-002	-1.34073E-002	5.83917E-004	7.34994E-004	-1.15049E-002	7.94314E-004
	113	113	4.99622E-002	-1.81379E-002	0.00000E+000	-9.06209E-004	-1.79274E-001	3.42092E-002	2.97155E+001	11	...........	5.70672E-002	-3.22389E-003	5.48339E-001	7.18364E-001	-3.12874E-002	-3.93850E-002	6.16595E-001	-4.26275E-002	-1.03508E-003	5.84745E-005	-9.94572E-003	-1.30296E-002	5.67487E-004	7.14361E-004	-1.11837E-002	7.73173E-004
	114	114	4.99756E-002	-1.80724E-002	0.00000E+000	-9.03179E-004	-1.78624E-001	3.44913E-002	2.96859E+001	11	...........	5.75465E-002	-3.19181E-003	5.48384E-001	7.18407E-001	-3.12618E-002	-3.93774E-002	6.16588E-001	-4.27033E-002	-1.04000E-003	5.76836E-005	-9.91063E-003	-1.29833E-002	5.64976E-004	7.11644E-004	-1.11432E-002	7.71752E-004
	115	115	4.99750E-002	-1.80019E-002	0.00000E+000	-8.99643E-004	-1.77920E-001	3.44482E-002	3.00527E+001	11	...........	5.74640E-002	-3.18806E-003	5.48418E-001	7.18298E-001	-3.12549E-002	-3.93954E-002	6.16713E-001	-4.27261E-002	-1.03446E-003	5.73909E-005	-9.87254E-003	-1.29307E-002	5.62645E-004	7.09190E-004	-1.11020E-002	7.69149E-004
	116	116	4.99662E-002	-1.76620E-002	0.00000E+000	-8.82503E-004	-1.74535E-001	3.43343E-002	3.03304E+001	11	...........	5.72947E-002	-3.25458E-003	5.48098E-001	7.18349E-001	-3.12486E-002	-3.94111E-002	6.16558E-001	-4.26910E-002	-1.01194E-003	5.74825E-005	-9.68051E-003	-1.26875E-002	5.51913E-004	6.96080E-004	-1.08897E-002	7.54009E-004
	117	117	4.99704E-002	-1.75150E-002	0.00000E+000	-8.75232E-004	-1.73073E-001	3.44352E-002	2.97689E+001	11	...........	5.74494E-002	-3.32319E-003	5.47944E-001	7.18467E-001	-3.12618E-002	-3.94072E-002	6.16315E-001	-4.26778E-002	-1.00623E-003	5.82057E-005	-9.59724E-003	-1.25839E-002	5.47550E-004	6.90217E-004	-1.07948E-002	7.47501E-004
	118	118	4.99700E-002	-1.72680E-002	0.00000E+000	-8.62880E-004	-1.70613E-001	3.44007E-002	2.98955E+001	11	...........	5.73906E-002	-3.21514E-003	5.47778E-001	7.18607E-001	-3.12697E-002	-3.93993E-002	6.16399E-001	-4.27429E-002	-9.91018E-004	5.55189E-005	-9.45901E-003	-1.24089E-002	5.39964E-004	6.80346E-004	-1.06440E-002	7.38083E-004
	119	119	4.99694E-002	-1.68672E-002	0.00000E+000	-8.42842E-004	-1.66630E-001	3.42691E-002	3.00483E+001	11	...........	5.71679E-002	-3.19958E-003	5.47830E-001	7.18639E-001	-3.12799E-002	-3.94047E-002	6.16505E-001	-4.27703E-002	-9.64260E-004	5.39679E-005	-9.24034E-003	-1.21214E-002	5.27602E-004	6.64645E-004	-1.03987E-002	7.21413E-004
	120	120	4.99667E-002	-1.69778E-002	0.00000E+000	-8.48323E-004	-1.67726E-001	3.45824E-002	3.00227E+001	11	...........	5.77029E-002	-3.22056E-003	5.47859E-001	7.18598E-001	-3.12846E-002	-3.94186E-002	6.16602E-001	-4.27119E-002	-9.79666E-004	5.46778E-005	-9.30141E-003	-1.22002E-002	5.31142E-004	6.69240E-004	-1.04685E-002	7.25153E-004
	121	121	4.99792E-002	-1.68385E-002	0.00000E+000	-8.41575E-004	-1.66347E-001	3.45398E-002	3.04580E+001	11	...........	5.76304E-002	-3.12847E-003	5.47903E-001	7.18519E-001	-3.12762E-002	-3.94008E-002	6.16521E-001	-4.25547E-002	-9.70411E-004	5.26789E-005	-9.22588E-003	-1.20988E-002	5.26646E-004	6.63452E-004	-1.03813E-002	7.16559E-004
	122	122	4.99736E-002	-1.64416E-002	0.00000E+000	-8.21644E-004	-1.62399E-001	3.43703E-002	3.03082E+001	11	...........	5.73564E-002	-3.09014E-003	5.47825E-001	7.18484E-001	-3.12675E-002	-3.93921E-002	6.16531E-001	-4.25187E-002	-9.43030E-004	5.08068E-005	-9.00711E-003	-1.18130E-002	5.14087E-004	6.47668E-004	-1.01368E-002	6.99075E-004
	123	123	4.99648E-002	-1.61919E-002	0.00000E+000	-8.09024E-004	-1.59911E-001	3.43228E-002	3.02754E+001	11	...........	5.72594E-002	-3.13347E-003	5.47942E-001	7.18369E-001	-3.12762E-002	-3.93921E-002	6.16628E-001	-4.25804E-002	-9.27138E-004	5.07368E-005	-8.87221E-003	-1.16317E-002	5.06421E-004	6.37832E-004	-9.98436E-003	6.89457E-004
	124	124	4.99661E-002	-1.60112E-002	0.00000E+000	-8.00014E-004	-1.58114E-001	3.45579E-002	3.04626E+001	11	...........	5.76599E-002	-3.26917E-003	5.47925E-001	7.18515E-001	-3.12401E-002	-3.94024E-002	6.16668E-001	-4.26225E-002	-9.23201E-004	5.23431E-005	-8.77291E-003	-1.15043E-002	5.00191E-004	6.30877E-004	-9.87357E-003	6.82435E-004
	125	125	4.99730E-002	-1.59869E-002	0.00000E+000	-7.98912E-004	-1.57873E-001	3.46242E-002	3.03117E+001	11	...........	5.77587E-002	-3.29819E-003	5.48027E-001	7.18455E-001	-3.12268E-002	-3.94015E-002	6.16526E-001	-4.26101E-002	-9.23382E-004	5.27278E-005	-8.76124E-003	-1.14858E-002	4.99219E-004	6.29907E-004	-9.85633E-003	6.81203E-004
	126	126	4.99753E-002	-1.56824E-002	0.00000E+000	-7.83732E-004	-1.54847E-001	3.44676E-002	3.05807E+001	11	...........	5.75060E-002	-3.19917E-003	5.48108E-001	7.18341E-001	-3.12332E-002	-3.93882E-002	6.16552E-001	-4.26721E-002	-9.01831E-004	5.01706E-005	-8.59565E-003	-1.12653E-002	4.89811E-004	6.17701E-004	-9.66902E-003	6.69200E-004
	127	127	4.99671E-002	-1.54769E-002	0.00000E+000	-7.73338E-004	-1.52804E-001	3.44375E-002	3.03344E+001	11	...........	5.74650E-002	-3.25667E-003	5.48003E-001	7.18421E-001	-3.12567E-002	-3.93951E-002	6.16501E-001	-4.27540E-002	-8.89382E-004	5.04032E-005	-8.48141E-003	-1.11190E-002	4.83758E-004	6.09716E-004	-9.54155E-003	6.61702E-004
	128	128	4.99698E-002	-1.53174E-002	0.00000E+000	-7.65409E-004	-1.51220E-001	3.45593E-002	3.04317E+001	11	...........	5.76393E-002	-3.28681E-003	5.47942E-001	7.18382E-001	-3.12494E-002	-3.94226E-002	6.16496E-001	-4.26612E-002	-8.82886E-004	5.03454E-005	-8.39305E-003	-1.10038E-002	4.78661E-004	6.03853E-004	-9.44313E-003	6.53461E-004
	129	129	4.99710E-002	-1.51363E-002	0.00000E+000	-7.56375E-004	-1.49414E-001	3.45334E-002	3.02898E+001	11	...........	5.76169E-002	-3.29611E-003	5.47882E-001	7.18413E-001	-3.12332E-002	-3.93914E-002	6.16442E-001	-4.26133E-002	-8.72107E-004	4.98909E-005	-8.29291E-003	-1.08741E-002	4.72755E-004	5.96240E-004	-9.33066E-003	6.45008E-004
	130	130	4.99744E-002	-1.49853E-002	0.00000E+000	-7.48883E-004	-1.47912E-001	3.45261E-002	3.07297E+001	11	...........	5.76114E-002	-3.23611E-003	5.47885E-001	7.18327E-001	-3.12254E-002	-3.94110E-002	6.16534E-001	-4.26331E-002	-8.63325E-004	4.84942E-005	-8.21023E-003	-1.07644E-002	4.67923E-004	5.90586E-004	-9.23896E-003	6.38870E-004
	131	131	4.99691E-002	-1.45310E-002	0.00000E+000	-7.26098E-004	-1.43392E-001	3.42768E-002	3.02097E+001	11	...........	5.71876E-002	-3.23347E-003	5.47900E-001	7.18412E-001	-3.12503E-002	-3.93974E-002	6.16509E-001	-4.25600E-002	-8.30991E-004	4.69854E-005	-7.96150E-003	-1.04392E-002	4.54096E-004	5.72481E-004	-8.95847E-003	6.18437E-004
	132	132	4.99733E-002	-1.45728E-002	0.00000E+000	-7.28252E-004	-1.43809E-001	3.47050E-002	3.04465E+001	11	...........	5.78867E-002	-3.25153E-003	5.48028E-001	7.18329E-001	-3.12619E-002	-3.93907E-002	6.16543E-001	-4.25593E-002	-8.43571E-004	4.73839E-005	-7.98630E-003	-1.04681E-002	4.55574E-004	5.74033E-004	-8.98477E-003	6.20209E-004
	133	133	4.99695E-002	-1.43865E-002	0.00000E+000	-7.18883E-004	-1.41954E-001	3.46144E-002	3.05012E+001	11	...........	5.77522E-002	-3.25625E-003	5.47909E-001	7.18374E-001	-3.12750E-002	-3.94151E-002	6.16446E-001	-4.25636E-002	-8.30850E-004	4.68459E-005	-7.88247E-003	-1.03349E-002	4.49936E-004	5.67044E-004	-8.86848E-003	6.12340E-004
	134	134	4.99704E-002	-1.41943E-002	0.00000E+000	-7.09295E-004	-1.40046E-001	3.45579E-002	3.05139E+001	11	...........	5.76694E-002	-3.09042E-003	5.47921E-001	7.18446E-001	-3.12418E-002	-3.94290E-002	6.16325E-001	-4.25367E-002	-8.18578E-004	4.38663E-005	-7.77736E-003	-1.01978E-002	4.43456E-004	5.59668E-004	-8.74831E-003	6.03779E-004
	135	135	4.99683E-002	-1.39595E-002	0.00000E+000	-6.97534E-004	-1.37712E-001	3.45400E-002	3.04965E+001	11	...........	5.76317E-002	-3.18208E-003	5.47959E-001	7.18542E-001	-3.12258E-002	-3.94478E-002	6.16442E-001	-4.25286E-002	-8.04511E-004	4.44204E-005	-7.64925E-003	-1.00305E-002	4.35898E-004	5.50672E-004	-8.60524E-003	5.93679E-004
	136	136	4.99729E-002	-1.37739E-002	0.00000E+000	-6.88324E-004	-1.35866E-001	3.45958E-002	3.02329E+001	11	...........	5.77236E-002	-3.19806E-003	5.47850E-001	7.18504E-001	-3.12160E-002	-3.94512E-002	6.16466E-001	-4.25465E-002	-7.95082E-004	4.40498E-005	-7.54605E-003	-9.89663E-003	4.29967E-004	5.43399E-004	-8.49117E-003	5.86034E-004
	137	137	4.99722E-002	-1.35674E-002	0.00000E+000	-6.77996E-004	-1.33809E-001	3.44536E-002	3.05236E+001	11	...........	5.74965E-002	-3.26889E-003	5.47795E-001	7.18430E-001	-3.12386E-002	-3.94453E-002	6.16511E-001	-4.24051E-002	-7.80081E-004	4.43505E-005	-7.43217E-003	-9.74725E-003	4.23828E-004	5.35172E-004	-8.36448E-003	5.75329E-004
	138	138	4.99696E-002	-1.35695E-002	0.00000E+000	-6.78060E-004	-1.33831E-001	3.47677E-002	3.02712E+001	11	...........	5.80039E-002	-3.20236E-003	5.47623E-001	7.18119E-001	-3.12225E-002	-3.94261E-002	6.16435E-001	-4.23886E-002	-7.87081E-004	4.34543E-005	-7.43095E-003	-9.74449E-003	4.23672E-004	5.34991E-004	-8.36469E-003	5.75190E-004
	139	139	4.99738E-002	-1.35004E-002	0.00000E+000	-6.74665E-004	-1.33145E-001	3.46067E-002	3.05108E+001	11	...........	5.77442E-002	-3.16667E-003	5.47587E-001	7.18076E-001	-3.12336E-002	-3.94326E-002	6.16422E-001	-4.24383E-002	-7.79569E-004	4.27512E-005	-7.39264E-003	-9.69431E-003	4.21666E-004	5.32356E-004	-8.32193E-003	5.72934E-004
	140	140	4.99606E-002	-1.27494E-002	0.00000E+000	-6.36966E-004	-1.25682E-001	3.44321E-002	2.98096E+001	11	...........	5.74369E-002	-3.23792E-003	5.47566E-001	7.17972E-001	-3.12504E-002	-3.94450E-002	6.16412E-001	-4.24469E-002	-7.32285E-004	4.12814E-005	-6.98111E-003	-9.15368E-003	3.98423E-004	5.02899E-004	-7.85885E-003	5.41172E-004
	141	141	4.99773E-002	-1.28056E-002	0.00000E+000	-6.39989E-004	-1.26244E-001	3.47362E-002	3.00319E+001	11	...........	5.79426E-002	-3.37986E-003	5.47885E-001	7.17932E-001	-3.12826E-002	-3.94390E-002	6.16431E-001	-4.23724E-002	-7.41990E-004	4.32812E-005	-7.01599E-003	-9.19355E-003	4.00593E-004	5.05040E-004	-7.89377E-003	5.42603E-004
	142	142	4.99721E-002	-1.29109E-002	0.00000E+000	-6.45183E-004	-1.27292E-001	3.47233E-002	3.02945E+001	11	...........	5.79132E-002	-3.30875E-003	5.48010E-001	7.18022E-001	-3.12529E-002	-3.94344E-002	6.16448E-001	-4.24836E-002	-7.47710E-004	4.27188E-005	-7.07528E-003	-9.27029E-003	4.03502E-004	5.09133E-004	-7.95888E-003	5.48500E-004
	143	143	4.99727E-002	-1.24996E-002	0.00000E+000	-6.24641E-004	-1.23198E-001	3.45759E-002	3.02094E+001	11	...........	5.76772E-002	-3.26833E-003	5.47936E-001	7.17939E-001	-3.12210E-002	-3.94217E-002	6.16431E-001	-4.24625E-002	-7.20945E-004	4.08530E-005	-6.84900E-003	-8.97398E-003	3.90251E-004	4.92757E-004	-7.70517E-003	5.30766E-004
	144	144	4.99680E-002	-1.25106E-002	0.00000E+000	-6.25128E-004	-1.23302E-001	3.45627E-002	3.04387E+001	11	...........	5.76596E-002	-3.21431E-003	5.48117E-001	7.17906E-001	-3.11899E-002	-3.94107E-002	6.16403E-001	-4.25424E-002	-7.21354E-004	4.02128E-005	-6.85725E-003	-8.98141E-003	3.90203E-004	4.93050E-004	-7.71155E-003	5.32229E-004
	145	145	4.99738E-002	-1.24415E-002	0.00000E+000	-6.21751E-004	-1.22621E-001	3.48735E-002	3.05176E+001	11	...........	5.81785E-002	-3.19722E-003	5.48340E-001	7.17981E-001	-3.12075E-002	-3.93976E-002	6.16372E-001	-4.25187E-002	-7.23830E-004	3.97784E-005	-6.82219E-003	-8.93279E-003	3.88270E-004	4.90168E-004	-7.66862E-003	5.28999E-004
	146	146	4.99709E-002	-1.21484E-002	0.00000E+000	-6.07066E-004	-1.19700E-001	3.46226E-002	2.98431E+001	11	...........	5.77685E-002	-3.14014E-003	5.48382E-001	7.17935E-001	-3.12037E-002	-3.93964E-002	6.16481E-001	-4.25735E-002	-7.01794E-004	3.81476E-005	-6.66195E-003	-8.72175E-003	3.79075E-004	4.78603E-004	-7.48925E-003	5.17199E-004
	147	147	4.99730E-002	-1.20476E-002	0.00000E+000	-6.02056E-004	-1.18697E-001	3.46439E-002	3.05525E+001	11	...........	5.78065E-002	-3.17375E-003	5.48399E-001	7.17954E-001	-3.12056E-002	-3.93743E-002	6.16459E-001	-4.24301E-002	-6.96432E-004	3.82362E-005	-6.60691E-003	-8.64965E-003	3.75953E-004	4.74367E-004	-7.42688E-003	5.11183E-004
	148	148	4.99666E-002	-1.19633E-002	0.00000E+000	-5.97768E-004	-1.17858E-001	3.46147E-002	3.05740E+001	11	...........	5.77365E-002	-3.10236E-003	5.48354E-001	7.18000E-001	-3.12175E-002	-3.93756E-002	6.16448E-001	-4.25293E-002	-6.90722E-004	3.71146E-005	-6.56015E-003	-8.58968E-003	3.73466E-004	4.71063E-004	-7.37478E-003	5.08793E-004
	149	149	4.99762E-002	-1.19771E-002	0.00000E+000	-5.98569E-004	-1.17996E-001	3.48807E-002	3.02970E+001	11	...........	5.81733E-002	-3.06972E-003	5.48478E-001	7.17952E-001	-3.12251E-002	-3.93924E-002	6.16336E-001	-4.25554E-002	-6.96746E-004	3.67663E-005	-6.56917E-003	-8.59896E-003	3.73986E-004	4.71805E-004	-7.38191E-003	5.09689E-004
	150	150	4.99719E-002	-1.17497E-002	0.00000E+000	-5.87153E-004	-1.15736E-001	3.46762E-002	3.00394E+001	11	...........	5.78542E-002	-3.15111E-003	5.48489E-001	7.18044E-001	-3.12193E-002	-3.94044E-002	6.16402E-001	-4.24707E-002	-6.79767E-004	3.70245E-005	-6.44455E-003	-8.43677E-003	3.66816E-004	4.62989E-004	-7.24251E-003	4.99016E-004
	151	151	4.99716E-002	-1.15742E-002	0.00000E+000	-5.78381E-004	-1.13999E-001	3.45360E-002	3.07232E+001	11	...........	5.76187E-002	-3.15167E-003	5.48585E-001	7.18153E-001	-3.11929E-002	-3.93886E-002	6.16430E-001	-4.25733E-002	-6.66890E-004	3.64780E-005	-6.34942E-003	-8.31203E-003	3.61032E-004	4.55891E-004	-7.13467E-003	4.92751E-004
	152	152	4.99697E-002	-1.15190E-002	0.00000E+000	-5.75599E-004	-1.13445E-001	3.47890E-002	3.02605E+001	11	...........	5.80428E-002	-3.18792E-003	5.48768E-001	7.18332E-001	-3.12050E-002	-3.93781E-002	6.16437E-001	-4.25799E-002	-6.68593E-004	3.67215E-005	-6.32124E-003	-8.27445E-003	3.59449E-004	4.53595E-004	-7.10072E-003	4.90476E-004
	153	153	4.99726E-002	-1.12229E-002	0.00000E+000	-5.60836E-004	-1.10500E-001	3.47843E-002	3.01041E+001	11	...........	5.80269E-002	-3.23500E-003	5.48878E-001	7.18248E-001	-3.12011E-002	-3.93726E-002	6.16348E-001	-4.25660E-002	-6.51229E-004	3.63060E-005	-6.15999E-003	-8.06081E-003	3.50166E-004	4.41874E-004	-6.91719E-003	4.77712E-004
	154	154	4.99726E-002	-1.11981E-002	0.00000E+000	-5.59597E-004	-1.10253E-001	3.46667E-002	3.11138E+001	11	...........	5.78387E-002	-3.26597E-003	5.48814E-001	7.18276E-001	-3.12087E-002	-3.93510E-002	6.16339E-001	-4.25031E-002	-6.47682E-004	3.65726E-005	-6.14565E-003	-8.04330E-003	3.49477E-004	4.40655E-004	-6.90180E-003	4.75952E-004
	155	155	4.99654E-002	-1.11077E-002	0.00000E+000	-5.54999E-004	-1.09355E-001	3.48569E-002	3.00183E+001	11	...........	5.81569E-002	-3.26931E-003	5.48883E-001	7.18233E-001	-3.12101E-002	-3.93504E-002	6.16339E-001	-4.24558E-002	-6.45988E-004	3.63143E-005	-6.09680E-003	-7.97789E-003	3.46672E-004	4.37091E-004	-6.84608E-003	4.71585E-004
	156	156	4.99771E-002	-1.09078E-002	0.00000E+000	-5.45139E-004	-1.07362E-001	3.46496E-002	3.01960E+001	11	...........	5.78103E-002	-3.19736E-003	5.48800E-001	7.18332E-001	-3.12082E-002	-3.93443E-002	6.16320E-001	-4.24786E-002	-6.30582E-004	3.48761E-005	-5.98619E-003	-7.83541E-003	3.40412E-004	4.29159E-004	-6.72268E-003	4.63347E-004
	157	157	4.99718E-002	-1.08463E-002	0.00000E+000	-5.42007E-004	-1.06749E-001	3.46611E-002	3.08867E+001	11	...........	5.78285E-002	-3.21319E-003	5.48782E-001	7.18414E-001	-3.12168E-002	-3.93315E-002	6.16222E-001	-4.25321E-002	-6.27223E-004	3.48511E-005	-5.95223E-003	-7.79210E-003	3.38586E-004	4.26600E-004	-6.68371E-003	4.61314E-004
	158	158	4.99705E-002	-1.07684E-002	0.00000E+000	-5.38104E-004	-1.05970E-001	3.48744E-002	3.02942E+001	11	...........	5.81736E-002	-3.20764E-003	5.48882E-001	7.18451E-001	-3.12349E-002	-3.93378E-002	6.16306E-001	-4.23244E-002	-6.26438E-004	3.45412E-005	-5.91059E-003	-7.73658E-003	3.36350E-004	4.23606E-004	-6.63665E-003	4.55768E-004
	159	159	4.99709E-002	-1.06164E-002	0.00000E+000	-5.30509E-004	-1.04466E-001	3.47587E-002	2.99074E+001	11	...........	5.79840E-002	-3.06847E-003	5.48864E-001	7.18450E-001	-3.12161E-002	-3.93610E-002	6.16407E-001	-4.24285E-002	-6.15579E-004	3.25760E-005	-5.82694E-003	-7.62732E-003	3.31401E-004	4.17870E-004	-6.54400E-003	4.50436E-004
	160	160	4.99760E-002	-1.04943E-002	0.00000E+000	-5.24463E-004	-1.03266E-001	3.47261E-002	3.05951E+001	11	...........	5.79476E-002	-2.96097E-003	5.48688E-001	7.18359E-001	-3.12247E-002	-3.93379E-002	6.16417E-001	-4.24742E-002	-6.08119E-004	3.10733E-005	-5.75808E-003	-7.53867E-003	3.27681E-004	4.12823E-004	-6.46886E-003	4.45736E-004
	161	161	4.99649E-002	-1.03661E-002	0.00000E+000	-5.17941E-004	-1.01998E-001	3.47503E-002	3.02868E+001	11	...........	5.79882E-002	-3.04847E-003	5.48630E-001	7.18442E-001	-3.12064E-002	-3.93183E-002	6.16522E-001	-4.25892E-002	-6.01111E-004	3.16008E-005	-5.68716E-003	-7.44745E-003	3.23488E-004	4.07578E-004	-6.39093E-003	4.41484E-004
	162	162	4.99765E-002	-1.02124E-002	0.00000E+000	-5.10381E-004	-1.00473E-001	3.48864E-002	3.06973E+001	11	...........	5.82258E-002	-3.20847E-003	5.48486E-001	7.18633E-001	-3.11921E-002	-3.93272E-002	6.16462E-001	-4.26544E-002	-5.94627E-004	3.27663E-005	-5.60138E-003	-7.33899E-003	3.18547E-004	4.01626E-004	-6.29557E-003	4.35605E-004
	163	163	4.99681E-002	-1.00756E-002	0.00000E+000	-5.03459E-004	-9.91203E-002	3.45533E-002	3.05870E+001	11	...........	5.76458E-002	-3.23056E-003	5.48446E-001	7.18659E-001	-3.11969E-002	-3.93375E-002	6.16468E-001	-4.26681E-002	-5.80818E-004	3.25499E-005	-5.52593E-003	-7.24094E-003	3.14329E-004	3.96350E-004	-6.21130E-003	4.29907E-004
	164	164	4.99741E-002	-1.00191E-002	0.00000E+000	-5.00698E-004	-9.85547E-002	3.47959E-002	2.99547E+001	11	...........	5.80594E-002	-3.17944E-003	5.48420E-001	7.18693E-001	-3.11907E-002	-3.93453E-002	6.16554E-001	-4.25833E-002	-5.81706E-004	3.18553E-005	-5.49470E-003	-7.20069E-003	3.12504E-004	3.94206E-004	-6.17734E-003	4.26649E-004
	165	165	4.99725E-002	-9.90099E-003	0.00000E+000	-4.94777E-004	-9.73843E-002	3.47717E-002	3.05118E+001	11	...........	5.80103E-002	-3.22167E-003	5.48173E-001	7.18562E-001	-3.12010E-002	-3.93286E-002	6.16569E-001	-4.25083E-002	-5.74359E-004	3.18977E-005	-5.42745E-003	-7.11447E-003	3.08920E-004	3.89392E-004	-6.10464E-003	4.20874E-004
	166	166	4.99725E-002	-9.91925E-003	0.00000E+000	-4.95690E-004	-9.75677E-002	3.48882E-002	3.12134E+001	11	...........	5.82075E-002	-3.18819E-003	5.48229E-001	7.18558E-001	-3.12264E-002	-3.93390E-002	6.16426E-001	-4.24996E-002	-5.77375E-004	3.16245E-005	-5.43802E-003	-7.12756E-003	3.09742E-004	3.90214E-004	-6.11449E-003	4.21564E-004
	167	167	4.99683E-002	-9.63405E-003	0.00000E+000	-4.81397E-004	-9.47260E-002	3.47401E-002	2.99519E+001	11	...........	5.79515E-002	-3.10375E-003	5.48164E-001	7.18289E-001	-3.12278E-002	-3.93579E-002	6.16349E-001	-4.25008E-002	-5.58308E-004	2.99017E-005	-5.28104E-003	-6.92004E-003	3.00850E-004	3.79176E-004	-5.93793E-003	4.09455E-004
	168	168	4.99734E-002	-9.56661E-003	0.00000E+000	-4.78076E-004	-9.40543E-002	3.48466E-002	3.03874E+001	11	...........	5.81353E-002	-3.21472E-003	5.48095E-001	7.18249E-001	-3.12128E-002	-3.93410E-002	6.16500E-001	-4.24586E-002	-5.56158E-004	3.07540E-005	-5.24341E-003	-6.87120E-003	2.98600E-004	3.76360E-004	-5.89781E-003	4.06185E-004
	169	169	4.99702E-002	-9.59947E-003	0.00000E+000	-4.79687E-004	-9.43803E-002	3.48709E-002	3.11107E+001	11	...........	5.81756E-002	-3.16792E-003	5.48195E-001	7.18304E-001	-3.12279E-002	-3.93093E-002	6.16446E-001	-4.25297E-002	-5.58454E-004	3.04103E-005	-5.26237E-003	-6.89533E-003	2.99771E-004	3.77348E-004	-5.91755E-003	4.08263E-004
	170	170	4.99728E-002	-9.32637E-003	0.00000E+000	-4.66065E-004	-9.16603E-002	3.48786E-002	3.03720E+001	11	...........	5.81924E-002	-3.31722E-003	5.48103E-001	7.18294E-001	-3.12243E-002	-3.93047E-002	6.16450E-001	-4.25400E-002	-5.42724E-004	3.09376E-005	-5.11181E-003	-6.69908E-003	2.91209E-004	3.66570E-004	-5.74924E-003	3.96744E-004
	171	171	4.99709E-002	-9.31814E-003	0.00000E+000	-4.65636E-004	-9.15807E-002	3.47842E-002	3.04576E+001	11	...........	5.80429E-002	-3.30222E-003	5.48088E-001	7.18331E-001	-3.12378E-002	-3.92733E-002	6.16333E-001	-4.25407E-002	-5.40852E-004	3.07706E-005	-5.10716E-003	-6.69351E-003	2.91078E-004	3.65954E-004	-5.74308E-003	3.96400E-004
	172	172	4.99741E-002	-9.13029E-003	0.00000E+000	-4.56278E-004	-8.97167E-002	3.48311E-002	3.00022E+001	11	...........	5.81246E-002	-3.21958E-003	5.48137E-001	7.18433E-001	-3.12325E-002	-3.92212E-002	6.16322E-001	-4.24797E-002	-5.30694E-004	2.93957E-005	-5.00465E-003	-6.55950E-003	2.85162E-004	3.58101E-004	-5.62719E-003	3.87852E-004
	173	173	4.99754E-002	-9.07657E-003	0.00000E+000	-4.53605E-004	-8.91827E-002	3.47732E-002	3.09492E+001	11	...........	5.80285E-002	-3.24125E-003	5.48289E-001	7.18588E-001	-3.12353E-002	-3.92117E-002	6.16250E-001	-4.22549E-002	-5.26700E-004	2.94194E-005	-4.97658E-003	-6.52232E-003	2.83509E-004	3.55908E-004	-5.59344E-003	3.83529E-004
	174	174	4.99695E-002	-9.08586E-003	0.00000E+000	-4.54016E-004	-8.92743E-002	3.49077E-002	3.06745E+001	11	...........	5.82324E-002	-3.13542E-003	5.48201E-001	7.18563E-001	-3.12260E-002	-3.92014E-002	6.16289E-001	-4.24022E-002	-5.29091E-004	2.84879E-005	-4.98088E-003	-6.52876E-003	2.83715E-004	3.56178E-004	-5.59952E-003	3.85261E-004
	175	175	4.99707E-002	-8.89387E-003	0.00000E+000	-4.44433E-004	-8.73710E-002	3.49048E-002	3.00408E+001	11	...........	5.82157E-002	-3.11556E-003	5.48154E-001	7.18680E-001	-3.11944E-002	-3.92081E-002	6.16253E-001	-4.25519E-002	-5.17763E-004	2.77094E-005	-4.87521E-003	-6.39185E-003	2.77439E-004	3.48712E-004	-5.48088E-003	3.78452E-004
	176	176	4.99718E-002	-8.82967E-003	0.00000E+000	-4.41235E-004	-8.67327E-002	3.47875E-002	3.03129E+001	11	...........	5.80261E-002	-3.14292E-003	5.48097E-001	7.18667E-001	-3.11714E-002	-3.92597E-002	6.16214E-001	-4.25850E-002	-5.12351E-004	2.77509E-005	-4.83952E-003	-6.34559E-003	2.75233E-004	3.46650E-004	-5.44096E-003	3.76011E-004
	177	177	4.99732E-002	-8.76479E-003	0.00000E+000	-4.38005E-004	-8.60820E-002	3.49327E-002	3.03178E+001	11	...........	5.82893E-002	-3.08958E-003	5.48038E-001	7.18800E-001	-3.11412E-002	-3.92554E-002	6.16154E-001	-4.25253E-002	-5.10893E-004	2.70795E-005	-4.80344E-003	-6.30013E-003	2.72946E-004	3.44065E-004	-5.40046E-003	3.72725E-004
	178	178	4.99733E-002	-8.62875E-003	0.00000E+000	-4.31207E-004	-8.47253E-002	3.47342E-002	3.04293E+001	11	...........	5.79479E-002	-3.17083E-003	5.48142E-001	7.18762E-001	-3.11499E-002	-3.92393E-002	6.16307E-001	-4.26042E-002	-5.00018E-004	2.73603E-005	-4.72978E-003	-6.20202E-003	2.68784E-004	3.38586E-004	-5.31796E-003	3.67621E-004
	179	179	4.99694E-002	-8.57565E-003	0.00000E+000	-4.28520E-004	-8.41993E-002	3.48851E-002	3.10171E+001	11	...........	5.82083E-002	-3.17875E-003	5.48094E-001	7.18861E-001	-3.11449E-002	-3.92360E-002	6.16320E-001	-4.25843E-002	-4.99174E-004	2.72598E-005	-4.70026E-003	-6.16470E-003	2.67087E-004	3.36474E-004	-5.28534E-003	3.65188E-004
	180	180	4.99693E-002	-8.49093E-003	0.00000E+000	-4.24285E-004	-8.33553E-002	3.50484E-002	3.02952E+001	11	...........	5.84789E-002	-3.21750E-003	5.48208E-001	7.19115E-001	-3.11568E-002	-3.92569E-002	6.16230E-001	-4.25097E-002	-4.96540E-004	2.73196E-005	-4.65479E-003	-6.10595E-003	2.64550E-004	3.33328E-004	-5.23237E-003	3.60947E-004
	181	181	4.99753E-002	-8.36504E-003	0.00000E+000	-4.18045E-004	-8.21007E-002	3.49111E-002	3.03990E+001	11	...........	5.82597E-002	-3.14417E-003	5.48199E-001	7.19317E-001	-3.11600E-002	-3.92599E-002	6.16184E-001	-4.24931E-002	-4.87345E-004	2.63011E-005	-4.58570E-003	-6.01712E-003	2.60655E-004	3.28410E-004	-5.15440E-003	3.55456E-004
	182	182	4.99746E-002	-8.25826E-003	0.00000E+000	-4.12703E-004	-8.10403E-002	3.47415E-002	3.12595E+001	11	...........	5.79714E-002	-3.14042E-003	5.48356E-001	7.19331E-001	-3.11578E-002	-3.92587E-002	6.16205E-001	-4.24369E-002	-4.78743E-004	2.59344E-005	-4.52846E-003	-5.94042E-003	2.57309E-004	3.24209E-004	-5.08879E-003	3.50455E-004
	183	183	4.99683E-002	-8.21363E-003	0.00000E+000	-4.10421E-004	-8.05933E-002	3.48672E-002	3.02785E+001	11	...........	5.81662E-002	-3.16167E-003	5.48394E-001	7.19308E-001	-3.11376E-002	-3.92622E-002	6.16174E-001	-4.24258E-002	-4.77756E-004	2.59688E-005	-4.50431E-003	-5.90813E-003	2.55753E-004	3.22485E-004	-5.06103E-003	3.48470E-004
	184	184	4.99747E-002	-8.19267E-003	0.00000E+000	-4.09426E-004	-8.03847E-002	3.50642E-002	3.08686E+001	11	...........	5.84901E-002	-3.21028E-003	5.48261E-001	7.19092E-001	-3.11249E-002	-3.92861E-002	6.16378E-001	-4.24146E-002	-4.79190E-004	2.63007E-005	-4.49172E-003	-5.89129E-003	2.54996E-004	3.21858E-004	-5.04978E-003	3.47489E-004
	185	185	4.99751E-002	-8.08188E-003	0.00000E+000	-4.03893E-004	-7.92800E-002	3.47867E-002	3.07939E+001	11	...........	5.80718E-002	-3.26875E-003	5.48256E-001	7.18953E-001	-3.11467E-002	-3.92847E-002	6.16417E-001	-4.25010E-002	-4.69329E-004	2.64176E-005	-4.43094E-003	-5.81049E-003	2.51724E-004	3.17494E-004	-4.98181E-003	3.43488E-004
	186	186	4.99712E-002	-7.94806E-003	0.00000E+000	-3.97174E-004	-7.79553E-002	3.48217E-002	3.06333E+001	11	...........	5.81115E-002	-3.29403E-003	5.48337E-001	7.19082E-001	-3.11537E-002	-3.92887E-002	6.16418E-001	-4.25387E-002	-4.61874E-004	2.61811E-005	-4.35822E-003	-5.71530E-003	2.47612E-004	3.12269E-004	-4.89932E-003	3.38100E-004
	187	187	4.99709E-002	-7.95139E-003	0.00000E+000	-3.97338E-004	-7.79863E-002	3.49931E-002	3.12169E+001	11	...........	5.83836E-002	-3.26347E-003	5.48519E-001	7.18837E-001	-3.11571E-002	-3.93171E-002	6.16412E-001	-4.25733E-002	-4.64231E-004	2.59492E-005	-4.36149E-003	-5.71576E-003	2.47742E-004	3.12626E-004	-4.90133E-003	3.38517E-004
	188	188	4.99651E-002	-7.64597E-003	0.00000E+000	-3.82032E-004	-7.49583E-002	3.48068E-002	2.92853E+001	11	...........	5.80593E-002	-3.25153E-003	5.48549E-001	7.18707E-001	-3.11539E-002	-3.93039E-002	6.16293E-001	-4.25011E-002	-4.43920E-004	2.48611E-005	-4.19419E-003	-5.49521E-003	2.38202E-004	3.00516E-004	-4.71216E-003	3.24962E-004
	189	189	4.99744E-002	-7.38496E-003	0.00000E+000	-3.69059E-004	-7.23623E-002	3.47919E-002	3.04424E+001	11	...........	5.80281E-002	-3.15736E-003	5.48650E-001	7.18541E-001	-3.11768E-002	-3.93028E-002	6.16185E-001	-4.25851E-002	-4.28535E-004	2.33170E-005	-4.05176E-003	-5.30640E-003	2.30240E-004	2.90250E-004	-4.55051E-003	3.14490E-004
	190	190	4.99774E-002	-7.75375E-003	0.00000E+000	-3.87512E-004	-7.60403E-002	3.53613E-002	3.13010E+001	11	...........	5.90024E-002	-3.21486E-003	5.48764E-001	7.18434E-001	-3.11943E-002	-3.92858E-002	6.16330E-001	-4.26242E-002	-4.57489E-004	2.49272E-005	-4.25498E-003	-5.57056E-003	2.41873E-004	3.04612E-004	-4.77887E-003	3.30497E-004
	191	191	4.99695E-002	-7.50697E-003	0.00000E+000	-3.75120E-004	-7.35810E-002	3.47192E-002	3.05152E+001	11	...........	5.79281E-002	-3.26819E-003	5.48914E-001	7.18440E-001	-3.11944E-002	-3.92879E-002	6.16304E-001	-4.26365E-002	-4.34864E-004	2.45342E-005	-4.12068E-003	-5.39330E-003	2.34176E-004	2.94933E-004	-4.62657E-003	3.20071E-004
	192	192	4.99726E-002	-7.43642E-003	0.00000E+000	-3.71618E-004	-7.28750E-002	3.49557E-002	3.00118E+001	11	...........	5.83074E-002	-3.30903E-003	5.48958E-001	7.18434E-001	-3.11914E-002	-3.92750E-002	6.16288E-001	-4.25651E-002	-4.33598E-004	2.46073E-005	-4.08229E-003	-5.34258E-003	2.31952E-004	2.92066E-004	-4.58298E-003	3.16532E-004
	193	193	4.99712E-002	-7.41291E-003	0.00000E+000	-3.70433E-004	-7.26420E-002	3.50264E-002	3.06327E+001	11	...........	5.84493E-002	-3.21167E-003	5.49025E-001	7.18497E-001	-3.11737E-002	-3.92935E-002	6.16223E-001	-4.25085E-002	-4.33280E-004	2.38078E-005	-4.06988E-003	-5.32615E-003	2.31088E-004	2.91279E-004	-4.56800E-003	3.15112E-004
	194	194	4.99727E-002	-7.36332E-003	0.00000E+000	-3.67965E-004	-7.21450E-002	3.49851E-002	3.08732E+001	11	...........	5.83725E-002	-3.25236E-003	5.49020E-001	7.18461E-001	-3.11775E-002	-3.93096E-002	6.16181E-001	-4.24453E-002	-4.29816E-004	2.39482E-005	-4.04262E-003	-5.29026E-003	2.29570E-004	2.89449E-004	-4.53714E-003	3.12538E-004
	195	195	4.99710E-002	-7.28333E-003	0.00000E+000	-3.63955E-004	-7.13477E-002	3.49003E-002	3.05241E+001	11	...........	5.82217E-002	-3.24375E-003	5.49052E-001	7.18575E-001	-3.11793E-002	-3.93111E-002	6.16173E-001	-4.24589E-002	-4.24048E-004	2.36253E-005	-3.99893E-003	-5.23362E-003	2.27089E-004	2.86316E-004	-4.48780E-003	3.09242E-004
	196	196	4.99723E-002	-7.18530E-003	0.00000E+000	-3.59066E-004	-7.03683E-002	3.51431E-002	3.05901E+001	11	...........	5.86447E-002	-3.26361E-003	5.49030E-001	7.18496E-001	-3.11810E-002	-3.93124E-002	6.16293E-001	-4.25793E-002	-4.21380E-004	2.34500E-005	-3.94494E-003	-5.16261E-003	2.24045E-004	2.82471E-004	-4.42825E-003	3.05945E-004
	197	197	4.99754E-002	-7.15870E-003	0.00000E+000	-3.57759E-004	-7.01047E-002	3.49722E-002	3.10679E+001	11	...........	5.83443E-002	-3.27056E-003	5.48993E-001	7.18404E-001	-3.11774E-002	-3.93179E-002	6.16275E-001	-4.24826E-002	-4.17669E-004	2.34129E-005	-3.93008E-003	-5.14284E-003	2.23189E-004	2.81465E-004	-4.41172E-003	3.04120E-004
	198	198	4.99715E-002	-7.09698E-003	0.00000E+000	-3.54646E-004	-6.94907E-002	3.49179E-002	3.09382E+001	11	...........	5.82628E-002	-3.18917E-003	5.48903E-001	7.18238E-001	-3.11821E-002	-3.93119E-002	6.16335E-001	-4.24594E-002	-4.13489E-004	2.26334E-005	-3.89555E-003	-5.09732E-003	2.21298E-004	2.78996E-004	-4.37412E-003	3.01334E-004
	199	199	4.99703E-002	-6.98969E-003	0.00000E+000	-3.49276E-004	-6.84253E-002	3.50591E-002	3.01157E+001	11	...........	5.84964E-002	-3.15528E-003	5.48942E-001	7.18221E-001	-3.11653E-002	-3.93369E-002	6.16448E-001	-4.25036E-002	-4.08872E-004	2.20544E-005	-3.83694E-003	-5.02014E-003	2.17836E-004	2.74953E-004	-4.30878E-003	2.97087E-004
	200	200	4.99714E-002	-6.91079E-003	0.00000E+000	-3.45342E-004	-6.76393E-002	3.50700E-002	3.04506E+001	11	...........	5.84994E-002	-3.26528E-003	5.49079E-001	7.18179E-001	-3.11637E-002	-3.93267E-002	6.16348E-001	-4.26010E-002	-4.04277E-004	2.25657E-005	-3.79457E-003	-4.96318E-003	2.15366E-004	2.71778E-004	-4.25946E-003	2.94406E-004
	201	201	4.99747E-002	-6.84039E-003	0.00000E+000	-3.41846E-004	-6.69367E-002	3.49338E-002	3.09512E+001	11	...........	5.82754E-002	-3.18236E-003	5.49159E-001	7.18211E-001	-3.11661E-002	-3.93369E-002	6.16362E-001	-4.27121E-002	-3.98627E-004	2.17686E-005	-3.75646E-003	-4.91285E-003	2.13188E-004	2.69080E-004	-4.21616E-003	2.92167E-004
	202	202	4.99712E-002	-6.84456E-003	0.00000E+000	-3.42031E-004	-6.69770E-002	3.50541E-002	3.06067E+001	11	...........	5.84872E-002	-3.25931E-003	5.49020E-001	7.18257E-001	-3.11767E-002	-3.93162E-002	6.16272E-001	-4.25983E-002	-4.00319E-004	2.23085E-005	-3.75780E-003	-4.91615E-003	2.13391E-004	2.69102E-004	-4.21811E-003	2.91567E-004
	203	203	4.99725E-002	-6.69239E-003	0.00000E+000	-3.34435E-004	-6.54637E-002	3.49309E-002	3.06491E+001	11	...........	5.82893E-002	-3.24931E-003	5.48835E-001	7.18416E-001	-3.11561E-002	-3.93104E-002	6.16191E-001	-4.25472E-002	-3.90095E-004	2.17456E-005	-3.67302E-003	-4.80792E-003	2.08509E-004	2.63081E-004	-4.12379E-003	2.84743E-004
	204	204	4.99724E-002	-6.59506E-003	0.00000E+000	-3.29571E-004	-6.44953E-002	3.51263E-002	2.97336E+001	11	...........	5.86108E-002	-3.32972E-003	5.49142E-001	7.18281E-001	-3.11576E-002	-3.93169E-002	6.16131E-001	-4.26407E-002	-3.86542E-004	2.19597E-005	-3.62163E-003	-4.73711E-003	2.05487E-004	2.59298E-004	-4.06342E-003	2.81218E-004
	205	205	4.99734E-002	-6.46838E-003	0.00000E+000	-3.23247E-004	-6.32443E-002	3.48845E-002	3.03142E+001	11	...........	5.81933E-002	-3.22653E-003	5.49217E-001	7.18346E-001	-3.11640E-002	-3.93033E-002	6.16192E-001	-4.25667E-002	-3.76417E-004	2.08704E-005	-3.55255E-003	-4.64654E-003	2.01581E-004	2.54229E-004	-3.98577E-003	2.75337E-004
	206	206	4.99734E-002	-6.51966E-003	0.00000E+000	-3.25809E-004	-6.37520E-002	3.49863E-002	3.08798E+001	11	...........	5.83826E-002	-3.22028E-003	5.49075E-001	7.18359E-001	-3.11600E-002	-3.93186E-002	6.16276E-001	-4.25217E-002	-3.80635E-004	2.09951E-005	-3.57978E-003	-4.68345E-003	2.03152E-004	2.56344E-004	-4.01791E-003	2.77227E-004
	207	207	4.99695E-002	-6.54830E-003	0.00000E+000	-3.27215E-004	-6.40313E-002	3.52870E-002	3.10722E+001	11	...........	5.88642E-002	-3.26639E-003	5.49083E-001	7.18432E-001	-3.11304E-002	-3.93308E-002	6.16387E-001	-4.24254E-002	-3.85460E-004	2.13893E-005	-3.59556E-003	-4.70450E-003	2.03851E-004	2.57550E-004	-4.03628E-003	2.77814E-004
	208	208	4.99734E-002	-6.35620E-003	0.00000E+000	-3.17641E-004	-6.21340E-002	3.48765E-002	3.05498E+001	11	...........	5.82001E-002	-3.23681E-003	5.49133E-001	7.18575E-001	-3.11217E-002	-3.93431E-002	6.16330E-001	-4.23986E-002	-3.69932E-004	2.05738E-005	-3.49040E-003	-4.56740E-003	1.97816E-004	2.50072E-004	-3.91752E-003	2.69494E-004
	209	209	4.99723E-002	-6.37205E-003	0.00000E+000	-3.18426E-004	-6.22897E-002	3.51174E-002	3.09678E+001	11	...........	5.86108E-002	-3.37681E-003	5.49097E-001	7.18578E-001	-3.11099E-002	-3.93262E-002	6.16311E-001	-4.22262E-002	-3.73471E-004	2.15172E-005	-3.49887E-003	-4.57882E-003	1.98234E-004	2.50589E-004	-3.92716E-003	2.69068E-004
	210	210	4.99742E-002	-6.26884E-003	0.00000E+000	-3.13281E-004	-6.12630E-002	3.50666E-002	3.00024E+001	11	...........	5.85197E-002	-3.32847E-003	5.49148E-001	7.18549E-001	-3.10885E-002	-3.93103E-002	6.16284E-001	-4.22690E-002	-3.66851E-004	2.08657E-005	-3.44252E-003	-4.50447E-003	1.94889E-004	2.46430E-004	-3.86339E-003	2.64978E-004
	211	211	4.99722E-002	-6.12100E-003	0.00000E+000	-3.05880E-004	-5.97920E-002	3.47195E-002	3.08724E+001	11	...........	5.79222E-002	-3.26736E-003	5.49066E-001	7.18396E-001	-3.10660E-002	-3.93312E-002	6.16266E-001	-4.23776E-002	-3.54542E-004	1.99995E-005	-3.36083E-003	-4.39730E-003	1.90155E-004	2.40746E-004	-3.77216E-003	2.59393E-004
	212	212	4.99722E-002	-6.24639E-003	0.00000E+000	-3.12146E-004	-6.10363E-002	3.53450E-002	3.04944E+001	11	...........	5.89812E-002	-3.40861E-003	5.49116E-001	7.18319E-001	-3.10875E-002	-3.93139E-002	6.16267E-001	-4.24131E-002	-3.68420E-004	2.12915E-005	-3.42999E-003	-4.48691E-003	1.94185E-004	2.45570E-004	-3.84945E-003	2.64929E-004
	213	213	4.99726E-002	-6.07562E-003	0.00000E+000	-3.03615E-004	-5.93350E-002	3.48829E-002	3.08785E+001	11	...........	5.81894E-002	-3.34111E-003	5.49019E-001	7.18347E-001	-3.10925E-002	-3.93219E-002	6.16321E-001	-4.24344E-002	-3.53537E-004	2.02993E-005	-3.33563E-003	-4.36440E-003	1.88906E-004	2.38905E-004	-3.74454E-003	2.57816E-004
	214	214	4.99690E-002	-6.08244E-003	0.00000E+000	-3.03933E-004	-5.94057E-002	3.50670E-002	3.01071E+001	11	...........	5.85118E-002	-3.35472E-003	5.48875E-001	7.18576E-001	-3.11071E-002	-3.93124E-002	6.16412E-001	-4.24324E-002	-3.55894E-004	2.04049E-005	-3.33850E-003	-4.37069E-003	1.89207E-004	2.39115E-004	-3.74929E-003	2.58092E-004
	215	215	4.99746E-002	-5.90097E-003	0.00000E+000	-2.94899E-004	-5.75977E-002	3.51686E-002	3.00061E+001	11	...........	5.86803E-002	-3.31806E-003	5.48718E-001	7.18815E-001	-3.11149E-002	-3.93047E-002	6.16404E-001	-4.22943E-002	-3.46270E-004	1.95797E-005	-3.23797E-003	-4.24170E-003	1.83608E-004	2.31936E-004	-3.63738E-003	2.49577E-004
	216	216	4.99737E-002	-5.97549E-003	0.00000E+000	-2.98617E-004	-5.83400E-002	3.49782E-002	3.12217E+001	11	...........	5.83540E-002	-3.29486E-003	5.48697E-001	7.18789E-001	-3.11354E-002	-3.93058E-002	6.16399E-001	-4.21839E-002	-3.48694E-004	1.96884E-005	-3.27873E-003	-4.29511E-003	1.86049E-004	2.34871E-004	-3.68328E-003	2.52069E-004
	217	217	4.99699E-002	-5.90683E-003	0.00000E+000	-2.95163E-004	-5.76557E-002	3.51397E-002	3.03268E+001	11	...........	5.86304E-002	-3.25986E-003	5.48728E-001	7.18677E-001	-3.11467E-002	-3.93350E-002	6.16481E-001	-4.22794E-002	-3.46320E-004	1.92554E-005	-3.24124E-003	-4.24510E-003	1.83978E-004	2.32345E-004	-3.64145E-003	2.49737E-004
	218	218	4.99745E-002	-5.80960E-003	0.00000E+000	-2.90332E-004	-5.66887E-002	3.51461E-002	3.03842E+001	11	...........	5.86522E-002	-3.15208E-003	5.48750E-001	7.18640E-001	-3.11299E-002	-3.93725E-002	6.16507E-001	-4.24289E-002	-3.40746E-004	1.83123E-005	-3.18802E-003	-4.17501E-003	1.80852E-004	2.28738E-004	-3.58166E-003	2.46495E-004
	219	219	4.99711E-002	-5.80494E-003	0.00000E+000	-2.90079E-004	-5.66427E-002	3.50557E-002	3.04760E+001	11	...........	5.84856E-002	-3.07736E-003	5.48715E-001	7.18728E-001	-3.11172E-002	-3.93799E-002	6.16380E-001	-4.25956E-002	-3.39505E-004	1.78639E-005	-3.18526E-003	-4.17218E-003	1.80634E-004	2.28598E-004	-3.57805E-003	2.47265E-004
	220	220	4.99741E-002	-5.72126E-003	0.00000E+000	-2.85915E-004	-5.58057E-002	3.51277E-002	3.03733E+001	11	...........	5.86158E-002	-3.08208E-003	5.48682E-001	7.18680E-001	-3.11150E-002	-3.93764E-002	6.16325E-001	-4.24515E-002	-3.35356E-004	1.76334E-005	-3.13915E-003	-4.11175E-003	1.78017E-004	2.25282E-004	-3.52616E-003	2.42876E-004
	221	221	4.99734E-002	-5.73009E-003	0.00000E+000	-2.86352E-004	-5.58943E-002	3.50541E-002	3.11184E+001	11	...........	5.84749E-002	-3.23264E-003	5.48682E-001	7.18728E-001	-3.11217E-002	-3.93779E-002	6.16208E-001	-4.23487E-002	-3.35066E-004	1.85233E-005	-3.14400E-003	-4.11838E-003	1.78330E-004	2.25639E-004	-3.53093E-003	2.42662E-004
	222	222	4.99712E-002	-5.67926E-003	0.00000E+000	-2.83799E-004	-5.53917E-002	3.50677E-002	3.03629E+001	11	...........	5.85094E-002	-3.21403E-003	5.48748E-001	7.18732E-001	-3.11293E-002	-3.93778E-002	6.16077E-001	-4.23914E-002	-3.32290E-004	1.82533E-005	-3.11648E-003	-4.08186E-003	1.76791E-004	2.23636E-004	-3.49886E-003	2.40752E-004
	223	223	4.99743E-002	-5.61592E-003	0.00000E+000	-2.80652E-004	-5.47617E-002	3.51431E-002	3.05856E+001	11	...........	5.86150E-002	-3.15986E-003	5.48831E-001	7.18956E-001	-3.11376E-002	-3.93631E-002	6.16003E-001	-4.25318E-002	-3.29177E-004	1.77455E-005	-3.08219E-003	-4.03760E-003	1.74866E-004	2.21060E-004	-3.45942E-003	2.38855E-004
	224	224	4.99730E-002	-5.61854E-003	0.00000E+000	-2.80775E-004	-5.47863E-002	3.51427E-002	3.09026E+001	11	...........	5.86368E-002	-3.35736E-003	5.48905E-001	7.18887E-001	-3.11321E-002	-3.93585E-002	6.16067E-001	-4.25431E-002	-3.29453E-004	1.88635E-005	-3.08404E-003	-4.03909E-003	1.74917E-004	2.21137E-004	-3.46139E-003	2.39030E-004
	225	225	4.99721E-002	-5.57465E-003	0.00000E+000	-2.78577E-004	-5.43477E-002	3.51560E-002	3.05116E+001	11	...........	5.86508E-002	-3.37903E-003	5.49106E-001	7.18886E-001	-3.11049E-002	-3.93471E-002	6.16040E-001	-4.25228E-002	-3.26958E-004	1.88369E-005	-3.06108E-003	-4.00754E-003	1.73399E-004	2.19346E-004	-3.43421E-003	2.37050E-004
	226	226	4.99709E-002	-5.50066E-003	0.00000E+000	-2.74873E-004	-5.36067E-002	3.50735E-002	3.02782E+001	11	...........	5.85075E-002	-3.25667E-003	5.48997E-001	7.18850E-001	-3.11181E-002	-3.93214E-002	6.15938E-001	-4.25799E-002	-3.21830E-004	1.79138E-005	-3.01985E-003	-3.95415E-003	1.71170E-004	2.16294E-004	-3.38807E-003	2.34217E-004
	227	227	4.99748E-002	-5.47333E-003	0.00000E+000	-2.73529E-004	-5.33373E-002	3.50446E-002	3.06808E+001	11	...........	5.85343E-002	-3.18556E-003	5.48783E-001	7.18833E-001	-3.11174E-002	-3.93199E-002	6.15905E-001	-4.24546E-002	-3.20378E-004	1.74356E-005	-3.00367E-003	-3.93441E-003	1.70316E-004	2.15211E-004	-3.37105E-003	2.32368E-004
	228	228	4.99697E-002	-5.41037E-003	0.00000E+000	-2.70355E-004	-5.27083E-002	3.50960E-002	3.09210E+001	11	...........	5.85533E-002	-3.16486E-003	5.48689E-001	7.18933E-001	-3.11462E-002	-3.93244E-002	6.15958E-001	-4.24803E-002	-3.16795E-004	1.71231E-005	-2.96861E-003	-3.88969E-003	1.68513E-004	2.12760E-004	-3.33256E-003	2.29834E-004
	229	229	4.99733E-002	-5.36037E-003	0.00000E+000	-2.67875E-004	-5.22137E-002	3.52812E-002	3.05511E+001	11	...........	5.88608E-002	-3.21931E-003	5.48635E-001	7.18784E-001	-3.11428E-002	-3.93486E-002	6.15934E-001	-4.24399E-002	-3.15516E-004	1.72567E-005	-2.94089E-003	-3.85295E-003	1.66937E-004	2.10923E-004	-3.30163E-003	2.27493E-004
	230	230	4.99726E-002	-5.35105E-003	0.00000E+000	-2.67406E-004	-5.21203E-002	3.50707E-002	3.02553E+001	11	...........	5.85099E-002	-3.23361E-003	5.48681E-001	7.18818E-001	-3.11633E-002	-3.93592E-002	6.16007E-001	-4.25108E-002	-3.13089E-004	1.73032E-005	-2.93602E-003	-3.84644E-003	1.66757E-004	2.10613E-004	-3.29629E-003	2.27478E-004
	231	231	4.99733E-002	-5.28568E-003	0.00000E+000	-2.64143E-004	-5.14767E-002	3.50284E-002	3.06700E+001	11	...........	5.84526E-002	-3.16917E-003	5.48651E-001	7.18793E-001	-3.11792E-002	-3.93656E-002	6.15967E-001	-4.26232E-002	-3.08962E-004	1.67512E-005	-2.89999E-003	-3.79931E-003	1.64803E-004	2.08074E-004	-3.25580E-003	2.25292E-004
	232	232	4.99724E-002	-5.25316E-003	0.00000E+000	-2.62513E-004	-5.11580E-002	3.51970E-002	3.08930E+001	11	...........	5.86992E-002	-3.23500E-003	5.48557E-001	7.18622E-001	-3.11767E-002	-3.93497E-002	6.16016E-001	-4.25324E-002	-3.08356E-004	1.69940E-005	-2.88166E-003	-3.77504E-003	1.63776E-004	2.06710E-004	-3.23603E-003	2.23429E-004
	233	233	4.99731E-002	-5.23672E-003	0.00000E+000	-2.61695E-004	-5.09937E-002	3.51672E-002	3.10862E+001	11	...........	5.86854E-002	-3.18528E-003	5.48518E-001	7.18474E-001	-3.11560E-002	-3.93629E-002	6.15996E-001	-4.24603E-002	-3.07319E-004	1.66804E-005	-2.87243E-003	-3.76245E-003	1.63155E-004	2.06133E-004	-3.22580E-003	2.22353E-004
	234	234	4.99727E-002	-5.18603E-003	0.00000E+000	-2.59160E-004	-5.04927E-002	3.52192E-002	3.04660E+001	11	...........	5.87646E-002	-3.18194E-003	5.48636E-001	7.18405E-001	-3.11576E-002	-3.93640E-002	6.15942E-001	-4.24779E-002	-3.04755E-004	1.65017E-005	-2.84524E-003	-3.72567E-003	1.61584E-004	2.04143E-004	-3.19429E-003	2.20292E-004
	235	234.213	4.99644E-002	-5.08127E-003	0.00000E+000	-2.53883E-004	-4.94547E-002	3.52414E-002	3.04434E+001	11	...........	5.88249E-002	-3.13151E-003	5.48826E-001	7.18421E-001	-3.10840E-002	-3.93750E-002	6.15993E-001	-4.25137E-002	-2.98905E-004	1.59121E-005	-2.78874E-003	-3.65049E-003	1.57946E-004	2.00075E-004	-3.13003E-003	2.16024E-004
STARTTIMEOFFSET	QUANT	413571.7	Start Time Offset (s)
