EXPLAIN
TAG	PWR800_DISCHARGE
TITLE	LABEL	PWR Discharge	Test Identifier
DATE	LABEL	10/16/2022	Date
TIME	LABEL	1:09:55	Time
NOTES	NOTES	1	Notes...
	
PSTAT	PSTAT	REF3000-21114	Potentiostat
CAPACITY	QUANT	5.30000E-002	Capacity (A-hr)
CELLTYPE	SELECTOR	1	Cell Type
WORKINGCONNECTION	SELECTOR	0	Working Connection
MAXDISCHARGETIME	VARIABLEANDUNITS	7.20000E+003	s	2.00000E+000	hour(s)	Max Discharge Time
DISCHARGEMODE	MULTIPARAM	0	1.00000E-001	Discharge Mode	Constant Current	Amp(s)
VOLTAGEFINISH	TWOPARAM	T	5.00000E-003	7.20000E+003	Voltage Finish	I (A) <	Max Time(s)
SAMPLETIME	QUANT	1.00000E+000	Sample Period (s)
DISCHARGESTOPAT1	MULTIPARAM	1	5.00000E-002	Stop At 1	|Voltage| < Limit	V
DISCHARGESTOPAT2	MULTIPARAM	0	0.00000E+000	Stop At 2	None	N/A
AESELECTOR	AESELECTOR	0x1	T	Set Limits	AE Channels
AESBHCSELECTOR	TOGGLE	F	Save Both Half Cells
IRCOMP	TOGGLE	F	IR Measure
EOC	QUANT	0.5464877	Open Circuit (V)
SEQUENCER	TOGGLE	TRUE	Run as Sequence
PSTATMODEL	IQUANT	5	Pstat Model
PSTATSECTION	LABEL	REF3000-21114	Pstat Section
PSTATSERIALNO	LABEL	21114	Pstat Serial Number
CTRLMODE	IQUANT	0	Control Mode
ELECTROMETER	IQUANT	0	RE=0 or CS=1
IESTAB	IQUANT	0	I/E Stability
CASPEED	IQUANT	4	Control Amp Speed
CONVENTION	IQUANT	1	Current Convention
ICHRANGE	IQUANT	2	Ich Range
ICHRANGEMODE	TOGGLE	T	Ich Auto Range
ICHOFFSETENABLE	TOGGLE	F	Ich Offset Enable
ICHOFFSET	QUANT	0	Ich Offset (V)
ICHFILTER	IQUANT	1	Ich Filter
VCHRANGE	IQUANT	3	Vch Range
VCHRANGEMODE	TOGGLE	T	Vch Auto Range
VCHOFFSETENABLE	TOGGLE	F	Vch Offset Enable
VCHOFFSET	QUANT	0	Vch Offset (V)
VCHFILTER	IQUANT	1	Vch Filter
ACHRANGE	IQUANT	2	Ach Range
ACHOFFSETENABLE	TOGGLE	F	Ach Offset Enable
ACHOFFSET	QUANT	0	Ach Offset (V)
ACHFILTER	IQUANT	1	Ach Filter
IERANGELOWERLIMIT	IQUANT	9	I/E Range Lower Limit
IERANGEMODE	TOGGLE	F	I/E AutoRange
IERANGE	IQUANT	9	I/E Range
POSFEEDENABLE	TOGGLE	F	Positive Feedback IR Comp
POSFEEDRESISTANCE	QUANT	0	Positive Feedback Resistance (ohm)
ACHSELECT	IQUANT	1	Ach Select
SENSECABLEID	IQUANT	13	Sense Cable ID
PWRCABLEID	IQUANT	13	Power Cable ID
DCCALDATE	LABEL		DC Calibration Date
ACCALDATE	LABEL		AC Calibration Date
THERMOSELECT	IQUANT	1	Thermo Select
FRAMEWORKVERSION	LABEL	7.8.6	Framework Version
INSTRUMENTVERSION	LABEL	4.50	Instrument Version
COMPLIANCEVOLTAGE	IQUANT	0	Compliance Voltage
CURVE	TABLE	119
	Pt	T	Vf	Im	Vu	Pwr	Sig	Ach	Temp	IERange	Over	Vf1	Vf2	Vf3	Vf4	Vf5	Vf6	Vf7	Vf8	Pwr1	Pwr2	Pwr3	Pwr4	Pwr5	Pwr6	Pwr7	Pwr8
	#	s	V	A	V	W	V	V	deg C	#	bits	V	V	V	V	V	V	V	V	W	W	W	W	W	W	W	W
	0	1	3.06096E-001	-1.00088E-001	0.00000E+000	-3.06364E-002	-9.94000E-001	3.57373E-002	2.93765E+001	11	...........	5.94307E-002	-3.94458E-003	5.74050E-001	6.18263E-001	-2.88689E-002	-3.89076E-002	6.62876E-001	-4.30793E-002	-5.94827E-003	3.94804E-004	-5.74552E-002	-6.18804E-002	2.88942E-003	3.89417E-003	-6.63457E-002	4.31170E-003
	1	2	2.10851E-001	-1.00088E-001	0.00000E+000	-2.11037E-002	-9.94000E-001	3.58102E-002	2.84193E+001	11	...........	5.95244E-002	-3.97264E-003	5.74171E-001	6.18521E-001	-2.88362E-002	-3.89193E-002	6.62951E-001	-4.30303E-002	-5.95769E-003	3.97614E-004	-5.74677E-002	-6.19066E-002	2.88617E-003	3.89536E-003	-6.63535E-002	4.30682E-003
	2	3	1.29288E-001	-1.00088E-001	0.00000E+000	-1.29402E-002	-9.94000E-001	3.57843E-002	2.78922E+001	11	...........	5.95174E-002	-3.98361E-003	5.74131E-001	6.18433E-001	-2.88879E-002	-3.88651E-002	6.62913E-001	-4.30837E-002	-5.95700E-003	3.98713E-004	-5.74639E-002	-6.18980E-002	2.89135E-003	3.88995E-003	-6.63499E-002	4.31219E-003
	3	3.57833	7.02048E-002	-1.00088E-001	0.00000E+000	-7.02668E-003	-9.94000E-001	3.57321E-002	2.67753E+001	11	...........	5.93607E-002	-3.99231E-003	5.74045E-001	6.18484E-001	-2.89397E-002	-3.88646E-002	6.62863E-001	-4.29251E-002	-5.94131E-003	3.99584E-004	-5.74552E-002	-6.19031E-002	2.89653E-003	3.88989E-003	-6.63448E-002	4.29630E-003
	4	4	4.92985E-002	-8.92224E-002	0.00000E+000	-4.39853E-003	-8.85928E-001	3.57747E-002	2.68666E+001	11	...........	5.94872E-002	-3.99374E-003	5.74097E-001	6.18567E-001	-2.88867E-002	-3.88824E-002	6.62928E-001	-4.30975E-002	-5.30759E-003	3.56331E-004	-5.12223E-002	-5.51900E-002	2.57734E-003	3.46918E-003	-5.91481E-002	3.84526E-003
	5	5	4.96300E-002	-6.67534E-002	0.00000E+000	-3.31297E-003	-6.62522E-001	3.59540E-002	2.79303E+001	11	...........	5.98126E-002	-4.06028E-003	5.74123E-001	6.18534E-001	-2.89251E-002	-3.88987E-002	6.62886E-001	-4.32807E-002	-3.99270E-003	2.71038E-004	-3.83247E-002	-4.12893E-002	1.93085E-003	2.59663E-003	-4.42499E-002	2.88913E-003
	6	6	4.97704E-002	-4.90973E-002	0.00000E+000	-2.44359E-003	-4.86975E-001	3.60153E-002	2.92153E+001	11	...........	5.99056E-002	-4.09694E-003	5.74063E-001	6.18748E-001	-2.89071E-002	-3.88989E-002	6.62809E-001	-4.32526E-002	-2.94120E-003	2.01149E-004	-2.81849E-002	-3.03788E-002	1.41926E-003	1.90983E-003	-3.25421E-002	2.12359E-003
	7	7	4.98523E-002	-3.90779E-002	0.00000E+000	-1.94812E-003	-3.87364E-001	3.60435E-002	2.96320E+001	11	...........	5.99811E-002	-4.09111E-003	5.74039E-001	6.18877E-001	-2.88710E-002	-3.88701E-002	6.62798E-001	-4.32326E-002	-2.34394E-003	1.59872E-004	-2.24322E-002	-2.41844E-002	1.12822E-003	1.51896E-003	-2.59008E-002	1.68944E-003
	8	8	4.98729E-002	-3.28889E-002	0.00000E+000	-1.64026E-003	-3.25822E-001	3.60840E-002	2.99227E+001	11	...........	6.00182E-002	-4.06958E-003	5.74202E-001	6.18808E-001	-2.88462E-002	-3.88961E-002	6.62804E-001	-4.32247E-002	-1.97393E-003	1.33844E-004	-1.88848E-002	-2.03519E-002	9.48721E-004	1.27925E-003	-2.17989E-002	1.42161E-003
	9	9	4.99033E-002	-2.87422E-002	0.00000E+000	-1.43433E-003	-2.84593E-001	3.60634E-002	3.03509E+001	11	...........	5.99871E-002	-4.33139E-003	5.74224E-001	6.18771E-001	-2.88214E-002	-3.88890E-002	6.62772E-001	-4.31318E-002	-1.72416E-003	1.24493E-004	-1.65045E-002	-1.77848E-002	8.28389E-004	1.11775E-003	-1.90495E-002	1.23970E-003
	10	10	4.99129E-002	-2.60449E-002	0.00000E+000	-1.29998E-003	-2.57786E-001	3.61507E-002	3.10450E+001	11	...........	6.01110E-002	-4.25542E-003	5.74091E-001	6.18860E-001	-2.88224E-002	-3.89004E-002	6.62849E-001	-4.31749E-002	-1.56559E-003	1.10832E-004	-1.49522E-002	-1.61182E-002	7.50677E-004	1.01316E-003	-1.72639E-002	1.12449E-003
	11	11	4.99215E-002	-2.39425E-002	0.00000E+000	-1.19524E-003	-2.36883E-001	3.61337E-002	3.06092E+001	11	...........	6.00800E-002	-4.05764E-003	5.74102E-001	6.18897E-001	-2.88665E-002	-3.88703E-002	6.62776E-001	-4.31942E-002	-1.43847E-003	9.71500E-005	-1.37454E-002	-1.48180E-002	6.91137E-004	9.30651E-004	-1.58685E-002	1.03418E-003
	12	12	4.99220E-002	-2.23221E-002	0.00000E+000	-1.11437E-003	-2.20768E-001	3.61791E-002	3.11315E+001	11	...........	6.01512E-002	-4.01083E-003	5.74173E-001	6.18932E-001	-2.88836E-002	-3.88862E-002	6.62821E-001	-4.31025E-002	-1.34270E-003	8.95303E-005	-1.28168E-002	-1.38159E-002	6.44743E-004	8.68023E-004	-1.47956E-002	9.62139E-004
	13	13	4.99287E-002	-2.10054E-002	0.00000E+000	-1.04877E-003	-2.07679E-001	3.61497E-002	3.07207E+001	11	...........	6.00962E-002	-3.98250E-003	5.74352E-001	6.18956E-001	-2.88760E-002	-3.88887E-002	6.62841E-001	-4.30851E-002	-1.26235E-003	8.36540E-005	-1.20645E-002	-1.30014E-002	6.06552E-004	8.16874E-004	-1.39232E-002	9.05021E-004
	14	14	4.99401E-002	-2.01848E-002	0.00000E+000	-1.00803E-003	-1.99514E-001	3.62415E-002	3.13235E+001	11	...........	6.02318E-002	-3.97889E-003	5.74411E-001	6.19076E-001	-2.88558E-002	-3.88743E-002	6.62860E-001	-4.32024E-002	-1.21577E-003	8.03131E-005	-1.15944E-002	-1.24959E-002	5.82449E-004	7.84670E-004	-1.33797E-002	8.72031E-004
	15	15	4.99338E-002	-1.94260E-002	0.00000E+000	-9.70012E-004	-1.91967E-001	3.62029E-002	3.12543E+001	11	...........	6.01900E-002	-3.99958E-003	5.74343E-001	6.19059E-001	-2.88618E-002	-3.88536E-002	6.62883E-001	-4.31403E-002	-1.16925E-003	7.76958E-005	-1.11572E-002	-1.20258E-002	5.60669E-004	7.54769E-004	-1.28771E-002	8.38042E-004
	16	16	4.99356E-002	-1.87546E-002	0.00000E+000	-9.36524E-004	-1.85306E-001	3.62382E-002	3.14327E+001	11	...........	6.02429E-002	-3.99083E-003	5.74298E-001	6.19097E-001	-2.88819E-002	-3.88525E-002	6.62789E-001	-4.31521E-002	-1.12983E-003	7.48467E-005	-1.07708E-002	-1.16109E-002	5.41671E-004	7.28665E-004	-1.24304E-002	8.09302E-004
	17	17	4.99374E-002	-1.80649E-002	0.00000E+000	-9.02114E-004	-1.78441E-001	3.62661E-002	3.13511E+001	11	...........	6.02814E-002	-4.03097E-003	5.74289E-001	6.19167E-001	-2.88897E-002	-3.88407E-002	6.62692E-001	-4.31624E-002	-1.08898E-003	7.28191E-005	-1.03745E-002	-1.11852E-002	5.21890E-004	7.01653E-004	-1.19715E-002	7.79724E-004
	18	18	4.99381E-002	-1.75749E-002	0.00000E+000	-8.77657E-004	-1.73561E-001	3.62106E-002	3.12432E+001	11	...........	6.01951E-002	-4.05167E-003	5.74278E-001	6.19171E-001	-2.89001E-002	-3.88567E-002	6.62699E-001	-4.31196E-002	-1.05792E-003	7.12077E-005	-1.00929E-002	-1.08819E-002	5.07918E-004	6.82903E-004	-1.16469E-002	7.57823E-004
	19	19	4.99386E-002	-1.73122E-002	0.00000E+000	-8.64544E-004	-1.70930E-001	3.64411E-002	3.16643E+001	11	...........	6.05547E-002	-4.01139E-003	5.74373E-001	6.19087E-001	-2.88956E-002	-3.88775E-002	6.62793E-001	-4.31947E-002	-1.04833E-003	6.94458E-005	-9.94364E-003	-1.07177E-002	5.00244E-004	6.73053E-004	-1.14744E-002	7.47794E-004
	20	20	4.99399E-002	-1.68183E-002	0.00000E+000	-8.39907E-004	-1.65991E-001	3.62445E-002	3.20024E+001	11	...........	6.03821E-002	-3.97708E-003	5.74309E-001	6.18912E-001	-2.89072E-002	-3.88722E-002	6.62816E-001	-4.31736E-002	-1.01553E-003	6.68880E-005	-9.65893E-003	-1.04091E-002	4.86172E-004	6.53766E-004	-1.11475E-002	7.26109E-004
	21	21	4.99398E-002	-1.64420E-002	0.00000E+000	-8.21112E-004	-1.62305E-001	3.61864E-002	3.18340E+001	11	...........	6.03803E-002	-3.98681E-003	5.74305E-001	6.18915E-001	-2.89197E-002	-3.88751E-002	6.62826E-001	-4.31092E-002	-9.92774E-004	6.55512E-005	-9.44274E-003	-1.01762E-002	4.75499E-004	6.39186E-004	-1.08982E-002	7.08802E-004
	22	22	4.99377E-002	-1.60330E-002	0.00000E+000	-8.00652E-004	-1.58229E-001	3.62274E-002	3.15917E+001	11	...........	6.04531E-002	-4.00333E-003	5.74279E-001	6.19063E-001	-2.89007E-002	-3.88767E-002	6.62831E-001	-4.31585E-002	-9.69244E-004	6.41855E-005	-9.20742E-003	-9.92544E-003	4.63365E-004	6.23310E-004	-1.06272E-002	6.91960E-004
	23	23	4.99393E-002	-1.56508E-002	0.00000E+000	-7.81590E-004	-1.54422E-001	3.61782E-002	3.13727E+001	11	...........	6.03450E-002	-4.01417E-003	5.74232E-001	6.19178E-001	-2.88762E-002	-3.88914E-002	6.62763E-001	-4.32428E-002	-9.44447E-004	6.28249E-005	-8.98720E-003	-9.69063E-003	4.51936E-004	6.08681E-004	-1.03728E-002	6.76784E-004
	24	24	4.99388E-002	-1.54758E-002	0.00000E+000	-7.72843E-004	-1.52682E-001	3.63116E-002	3.16869E+001	11	...........	6.05982E-002	-4.04375E-003	5.74216E-001	6.19297E-001	-2.88883E-002	-3.89196E-002	6.62719E-001	-4.31997E-002	-9.37806E-004	6.25803E-005	-8.88645E-003	-9.58412E-003	4.47070E-004	6.02312E-004	-1.02561E-002	6.68550E-004
	25	25	4.99416E-002	-1.51846E-002	0.00000E+000	-7.58343E-004	-1.49787E-001	3.62963E-002	3.17608E+001	11	...........	6.05621E-002	-4.03556E-003	5.74390E-001	6.19288E-001	-2.88515E-002	-3.89003E-002	6.62737E-001	-4.32032E-002	-9.19610E-004	6.12782E-005	-8.72187E-003	-9.40363E-003	4.38099E-004	5.90685E-004	-1.00634E-002	6.56023E-004
	26	26	4.99442E-002	-1.48838E-002	0.00000E+000	-7.43362E-004	-1.46788E-001	3.62554E-002	3.18998E+001	11	...........	6.04897E-002	-3.96931E-003	5.74445E-001	6.19314E-001	-2.88282E-002	-3.89137E-002	6.62832E-001	-4.31465E-002	-9.00320E-004	5.90785E-005	-8.54996E-003	-9.21778E-003	4.29074E-004	5.79186E-004	-9.86549E-003	6.42186E-004
	27	27	4.99403E-002	-1.46386E-002	0.00000E+000	-7.31056E-004	-1.44348E-001	3.62810E-002	3.19526E+001	11	...........	6.05400E-002	-4.02097E-003	5.74500E-001	6.19202E-001	-2.88229E-002	-3.89329E-002	6.62904E-001	-4.31960E-002	-8.86221E-004	5.88614E-005	-8.40988E-003	-9.06425E-003	4.21927E-004	5.69924E-004	-9.70399E-003	6.32329E-004
	28	28	4.99400E-002	-1.43767E-002	0.00000E+000	-7.17974E-004	-1.41694E-001	3.62758E-002	3.18450E+001	11	...........	6.05267E-002	-4.06847E-003	5.74585E-001	6.19111E-001	-2.88049E-002	-3.89169E-002	6.62812E-001	-4.32329E-002	-8.70175E-004	5.84913E-005	-8.26064E-003	-8.90079E-003	4.14119E-004	5.59498E-004	-9.52905E-003	6.21547E-004
	29	29	4.99426E-002	-1.41352E-002	0.00000E+000	-7.05949E-004	-1.39361E-001	3.63234E-002	3.17108E+001	11	...........	6.06224E-002	-4.01917E-003	5.74510E-001	6.19151E-001	-2.87769E-002	-3.88910E-002	6.62807E-001	-4.31562E-002	-8.56909E-004	5.68117E-005	-8.12081E-003	-8.75183E-003	4.06768E-004	5.49732E-004	-9.36891E-003	6.10022E-004
	30	30	4.99429E-002	-1.39461E-002	0.00000E+000	-6.96508E-004	-1.37485E-001	3.62914E-002	3.22689E+001	11	...........	6.05797E-002	-4.01375E-003	5.74508E-001	6.19080E-001	-2.87982E-002	-3.88599E-002	6.62834E-001	-4.32182E-002	-8.44851E-004	5.59762E-005	-8.01215E-003	-8.63375E-003	4.01622E-004	5.41943E-004	-9.24395E-003	6.02725E-004
	31	31	4.99400E-002	-1.37214E-002	0.00000E+000	-6.85245E-004	-1.35245E-001	3.63166E-002	3.23198E+001	11	...........	6.05997E-002	-4.00736E-003	5.74752E-001	6.19025E-001	-2.87829E-002	-3.88585E-002	6.62854E-001	-4.31924E-002	-8.31511E-004	5.49865E-005	-7.88638E-003	-8.49387E-003	3.94941E-004	5.33191E-004	-9.09526E-003	5.92658E-004
	32	32	4.99387E-002	-1.34272E-002	0.00000E+000	-6.70537E-004	-1.32316E-001	3.63927E-002	3.20512E+001	11	...........	6.07304E-002	-3.99847E-003	5.74935E-001	6.18963E-001	-2.87911E-002	-3.88686E-002	6.62857E-001	-4.32112E-002	-8.15439E-004	5.36883E-005	-7.71977E-003	-8.31093E-003	3.86584E-004	5.21896E-004	-8.90032E-003	5.80206E-004
	33	33	4.99439E-002	-1.32029E-002	0.00000E+000	-6.59405E-004	-1.30082E-001	3.62730E-002	3.15046E+001	11	...........	6.05240E-002	-3.99000E-003	5.74958E-001	6.18905E-001	-2.88206E-002	-3.88553E-002	6.62849E-001	-4.32654E-002	-7.99093E-004	5.26796E-005	-7.59112E-003	-8.17134E-003	3.80515E-004	5.13003E-004	-8.75153E-003	5.71229E-004
	34	34	4.99403E-002	-1.31523E-002	0.00000E+000	-6.56828E-004	-1.29586E-001	3.64362E-002	3.23547E+001	11	...........	6.08054E-002	-4.03986E-003	5.74909E-001	6.18903E-001	-2.88371E-002	-3.88375E-002	6.62862E-001	-4.32603E-002	-7.99729E-004	5.31333E-005	-7.56136E-003	-8.13997E-003	3.79273E-004	5.10801E-004	-8.71814E-003	5.68970E-004
	35	35	4.99437E-002	-1.28702E-002	0.00000E+000	-6.42786E-004	-1.26786E-001	3.63718E-002	3.24886E+001	11	...........	6.06867E-002	-3.99042E-003	5.74703E-001	6.18900E-001	-2.88462E-002	-3.88512E-002	6.62834E-001	-4.32374E-002	-7.81051E-004	5.13575E-005	-7.39656E-003	-7.96538E-003	3.71258E-004	5.00024E-004	-8.53082E-003	5.56474E-004
	36	36	4.99407E-002	-1.26715E-002	0.00000E+000	-6.32825E-004	-1.24804E-001	3.63454E-002	3.25993E+001	11	...........	6.06376E-002	-3.97319E-003	5.74800E-001	6.18875E-001	-2.88561E-002	-3.88336E-002	6.62929E-001	-4.32250E-002	-7.68372E-004	5.03465E-005	-7.28360E-003	-7.84210E-003	3.65651E-004	4.92081E-004	-8.40032E-003	5.47727E-004
	37	37	4.99396E-002	-1.25321E-002	0.00000E+000	-6.25848E-004	-1.23410E-001	3.64637E-002	3.25234E+001	11	...........	6.08442E-002	-3.96792E-003	5.74880E-001	6.18824E-001	-2.88636E-002	-3.88512E-002	6.62898E-001	-4.33035E-002	-7.62505E-004	4.97263E-005	-7.20445E-003	-7.75516E-003	3.61722E-004	4.86888E-004	-8.30750E-003	5.42683E-004
	38	38	4.99450E-002	-1.23199E-002	0.00000E+000	-6.15317E-004	-1.21300E-001	3.64287E-002	3.23219E+001	11	...........	6.07886E-002	-3.97750E-003	5.74565E-001	6.18716E-001	-2.88785E-002	-3.88507E-002	6.62848E-001	-4.32778E-002	-7.48908E-004	4.90023E-005	-7.07857E-003	-7.62251E-003	3.55779E-004	4.78636E-004	-8.16621E-003	5.33177E-004
	39	39	4.99411E-002	-1.21089E-002	0.00000E+000	-6.04731E-004	-1.19202E-001	3.63401E-002	3.19180E+001	11	...........	6.06354E-002	-3.98986E-003	5.74573E-001	6.18796E-001	-2.88721E-002	-3.88928E-002	6.62819E-001	-4.33093E-002	-7.34227E-004	4.83127E-005	-6.95744E-003	-7.49292E-003	3.49609E-004	4.70948E-004	-8.02600E-003	5.24427E-004
	40	40	4.99431E-002	-1.19799E-002	0.00000E+000	-5.98311E-004	-1.17880E-001	3.64533E-002	3.22499E+001	11	...........	6.08299E-002	-4.00903E-003	5.74606E-001	6.18776E-001	-2.88608E-002	-3.88922E-002	6.62711E-001	-4.33485E-002	-7.28733E-004	4.80276E-005	-6.88370E-003	-7.41285E-003	3.45749E-004	4.65923E-004	-7.93919E-003	5.19308E-004
	41	41	4.99423E-002	-1.18142E-002	0.00000E+000	-5.90028E-004	-1.16233E-001	3.64186E-002	3.24637E+001	11	...........	6.07669E-002	-4.02458E-003	5.74560E-001	6.18695E-001	-2.88333E-002	-3.88774E-002	6.62683E-001	-4.33126E-002	-7.17913E-004	4.75472E-005	-6.78796E-003	-7.30939E-003	3.40643E-004	4.59305E-004	-7.82907E-003	5.11704E-004
	42	42	4.99414E-002	-1.16052E-002	0.00000E+000	-5.79578E-004	-1.14168E-001	3.63871E-002	3.23621E+001	11	...........	6.07221E-002	-4.06097E-003	5.74539E-001	6.18779E-001	-2.88421E-002	-3.88836E-002	6.62850E-001	-4.31896E-002	-7.04690E-004	4.71283E-005	-6.66762E-003	-7.18103E-003	3.34717E-004	4.51251E-004	-7.69248E-003	5.01222E-004
	43	43	4.99418E-002	-1.14403E-002	0.00000E+000	-5.71350E-004	-1.12569E-001	3.65212E-002	3.18635E+001	11	...........	6.09425E-002	-4.11486E-003	5.74579E-001	6.18807E-001	-2.88676E-002	-3.88881E-002	6.62918E-001	-4.32604E-002	-6.97202E-004	4.70753E-005	-6.57337E-003	-7.07935E-003	3.30255E-004	4.44892E-004	-7.58400E-003	4.94913E-004
	44	44	4.99460E-002	-1.13152E-002	0.00000E+000	-5.65151E-004	-1.11318E-001	3.64278E-002	3.26616E+001	11	...........	6.07974E-002	-4.08500E-003	5.74712E-001	6.18762E-001	-2.89104E-002	-3.88765E-002	6.62985E-001	-4.32860E-002	-6.87937E-004	4.62228E-005	-6.50301E-003	-7.00144E-003	3.27128E-004	4.39897E-004	-7.50184E-003	4.89791E-004
	45	45	4.99399E-002	-1.11879E-002	0.00000E+000	-5.58722E-004	-1.10051E-001	3.64183E-002	3.22075E+001	11	...........	6.07768E-002	-4.06986E-003	5.74728E-001	6.18613E-001	-2.89262E-002	-3.88700E-002	6.62898E-001	-4.32889E-002	-6.79964E-004	4.55332E-005	-6.42999E-003	-6.92098E-003	3.23624E-004	4.34873E-004	-7.41643E-003	4.84311E-004
	46	46	4.99426E-002	-1.10539E-002	0.00000E+000	-5.52061E-004	-1.08713E-001	3.66279E-002	3.28224E+001	11	...........	6.11378E-002	-4.09361E-003	5.74639E-001	6.18724E-001	-2.89362E-002	-3.88603E-002	6.62867E-001	-4.32136E-002	-6.75812E-004	4.52504E-005	-6.35201E-003	-6.83932E-003	3.19859E-004	4.29558E-004	-7.32728E-003	4.77679E-004
	47	47	4.99425E-002	-1.08303E-002	0.00000E+000	-5.40890E-004	-1.06493E-001	3.64916E-002	3.26376E+001	11	...........	6.08817E-002	-4.11792E-003	5.74730E-001	6.18709E-001	-2.89562E-002	-3.88544E-002	6.62992E-001	-4.32407E-002	-6.59364E-004	4.45981E-005	-6.22448E-003	-6.70078E-003	3.13604E-004	4.20804E-004	-7.18038E-003	4.68308E-004
	48	48	4.99406E-002	-1.07175E-002	0.00000E+000	-5.35241E-004	-1.05369E-001	3.64778E-002	3.19380E+001	11	...........	6.08881E-002	-4.02736E-003	5.74793E-001	6.18603E-001	-2.89456E-002	-3.88518E-002	6.62983E-001	-4.32701E-002	-6.52570E-004	4.31634E-005	-6.16037E-003	-6.62990E-003	3.10225E-004	4.16396E-004	-7.10554E-003	4.63750E-004
	49	49	4.99460E-002	-1.05748E-002	0.00000E+000	-5.28169E-004	-1.03951E-001	3.65179E-002	3.27384E+001	11	...........	6.09483E-002	-4.04944E-003	5.74805E-001	6.18661E-001	-2.89376E-002	-3.88847E-002	6.63053E-001	-4.33322E-002	-6.44516E-004	4.28221E-005	-6.07845E-003	-6.54222E-003	3.06010E-004	4.11198E-004	-7.01165E-003	4.58230E-004
	50	50	4.99410E-002	-1.04351E-002	0.00000E+000	-5.21140E-004	-1.02569E-001	3.64396E-002	3.25352E+001	11	...........	6.07992E-002	-4.06653E-003	5.74902E-001	6.18906E-001	-2.89382E-002	-3.88989E-002	6.62990E-001	-4.32901E-002	-6.34446E-004	4.24347E-005	-5.99917E-003	-6.45835E-003	3.01973E-004	4.05914E-004	-6.91837E-003	4.51738E-004
	51	51	4.99430E-002	-1.03461E-002	0.00000E+000	-5.16714E-004	-1.01711E-001	3.65613E-002	3.29671E+001	11	...........	6.10172E-002	-4.03292E-003	5.74889E-001	6.18847E-001	-2.89569E-002	-3.88926E-002	6.62961E-001	-4.32629E-002	-6.31288E-004	4.17248E-005	-5.94784E-003	-6.40263E-003	2.99590E-004	4.02386E-004	-6.85903E-003	4.47601E-004
	52	52	4.99417E-002	-1.02355E-002	0.00000E+000	-5.11180E-004	-1.00623E-001	3.65707E-002	3.23795E+001	11	...........	6.10326E-002	-4.02667E-003	5.74812E-001	6.18682E-001	-2.89308E-002	-3.89224E-002	6.62929E-001	-4.32932E-002	-6.24701E-004	4.12151E-005	-5.88351E-003	-6.33254E-003	2.96122E-004	3.98391E-004	-6.78543E-003	4.43129E-004
	53	53	4.99430E-002	-1.00242E-002	0.00000E+000	-5.00638E-004	-9.85010E-002	3.65103E-002	3.21387E+001	11	...........	6.09226E-002	-4.03111E-003	5.74766E-001	6.18750E-001	-2.89283E-002	-3.89201E-002	6.62995E-001	-4.32228E-002	-6.10700E-004	4.04086E-005	-5.76156E-003	-6.20246E-003	2.89983E-004	3.90143E-004	-6.64599E-003	4.33273E-004
	54	54	4.99425E-002	-9.89101E-003	0.00000E+000	-4.93982E-004	-9.71783E-002	3.65223E-002	3.24559E+001	11	...........	6.09487E-002	-4.02903E-003	5.74866E-001	6.18959E-001	-2.89229E-002	-3.88987E-002	6.62974E-001	-4.32976E-002	-6.02845E-004	3.98511E-005	-5.68600E-003	-6.12213E-003	2.86077E-004	3.84748E-004	-6.55748E-003	4.28257E-004
	55	55	4.99422E-002	-9.82741E-003	0.00000E+000	-4.90803E-004	-9.65263E-002	3.65849E-002	3.26277E+001	11	...........	6.10567E-002	-4.00944E-003	5.74822E-001	6.19059E-001	-2.89215E-002	-3.88825E-002	6.62941E-001	-4.33049E-002	-6.00029E-004	3.94024E-005	-5.64901E-003	-6.08374E-003	2.84224E-004	3.82114E-004	-6.51499E-003	4.25574E-004
	56	56	4.99436E-002	-9.71422E-003	0.00000E+000	-4.85163E-004	-9.53883E-002	3.66748E-002	3.26263E+001	11	...........	6.11862E-002	-4.00681E-003	5.74694E-001	6.19073E-001	-2.89072E-002	-3.88606E-002	6.63012E-001	-4.33500E-002	-5.94376E-004	3.89230E-005	-5.58270E-003	-6.01380E-003	2.80811E-004	3.77500E-004	-6.44064E-003	4.21111E-004
	57	57	4.99429E-002	-9.50529E-003	0.00000E+000	-4.74722E-004	-9.33333E-002	3.64727E-002	3.21027E+001	11	...........	6.08653E-002	-4.03667E-003	5.74642E-001	6.19167E-001	-2.89275E-002	-3.88257E-002	6.63276E-001	-4.33485E-002	-5.78542E-004	3.83697E-005	-5.46214E-003	-5.88536E-003	2.74964E-004	3.69049E-004	-6.30462E-003	4.12040E-004
	58	58	4.99435E-002	-9.47030E-003	0.00000E+000	-4.72980E-004	-9.29870E-002	3.66080E-002	3.26950E+001	11	...........	6.10794E-002	-4.06972E-003	5.74702E-001	6.19206E-001	-2.89512E-002	-3.88079E-002	6.63240E-001	-4.33450E-002	-5.78441E-004	3.85415E-005	-5.44260E-003	-5.86407E-003	2.74177E-004	3.67523E-004	-6.28108E-003	4.10490E-004
	59	59	4.99423E-002	-9.35389E-003	0.00000E+000	-4.67155E-004	-9.18113E-002	3.66020E-002	3.30879E+001	11	...........	6.10897E-002	-4.04569E-003	5.74743E-001	6.19183E-001	-2.89690E-002	-3.87904E-002	6.63278E-001	-4.33008E-002	-5.71426E-004	3.78430E-005	-5.37608E-003	-5.79177E-003	2.70973E-004	3.62841E-004	-6.20423E-003	4.05031E-004
	60	60	4.99398E-002	-9.22128E-003	0.00000E+000	-4.60508E-004	-9.04873E-002	3.66909E-002	3.25471E+001	11	...........	6.12410E-002	-4.04917E-003	5.74616E-001	6.19168E-001	-2.89783E-002	-3.88354E-002	6.63250E-001	-4.32926E-002	-5.64720E-004	3.73385E-005	-5.29869E-003	-5.70952E-003	2.67217E-004	3.58112E-004	-6.11601E-003	3.99213E-004
	61	61	4.99448E-002	-9.02991E-003	0.00000E+000	-4.50997E-004	-8.86017E-002	3.65513E-002	3.19914E+001	11	...........	6.09985E-002	-4.01458E-003	5.74617E-001	6.19148E-001	-2.89794E-002	-3.88653E-002	6.63171E-001	-4.32131E-002	-5.50811E-004	3.62513E-005	-5.18875E-003	-5.59086E-003	2.61682E-004	3.50950E-004	-5.98838E-003	3.90210E-004
	62	62	4.99439E-002	-9.00109E-003	0.00000E+000	-4.49550E-004	-8.83200E-002	3.66819E-002	3.28685E+001	11	...........	6.12156E-002	-3.99556E-003	5.74577E-001	6.19140E-001	-2.89822E-002	-3.88624E-002	6.63082E-001	-4.32662E-002	-5.51007E-004	3.59643E-005	-5.17182E-003	-5.57294E-003	2.60872E-004	3.49804E-004	-5.96846E-003	3.89443E-004
	63	63	4.99432E-002	-8.94638E-003	0.00000E+000	-4.46810E-004	-8.77957E-002	3.66620E-002	3.31093E+001	11	...........	6.11906E-002	-4.02625E-003	5.74552E-001	6.18935E-001	-2.89697E-002	-3.88803E-002	6.63140E-001	-4.33407E-002	-5.47434E-004	3.60203E-005	-5.14016E-003	-5.53723E-003	2.59174E-004	3.47838E-004	-5.93270E-003	3.87742E-004
	64	64	4.99434E-002	-8.58598E-003	0.00000E+000	-4.28813E-004	-8.42057E-002	3.66407E-002	3.19501E+001	11	...........	6.11431E-002	-4.02833E-003	5.74485E-001	6.19116E-001	-2.89406E-002	-3.89042E-002	6.63159E-001	-4.32531E-002	-5.24973E-004	3.45872E-005	-4.93252E-003	-5.31571E-003	2.48483E-004	3.34030E-004	-5.69387E-003	3.71370E-004
	65	65	4.99429E-002	-8.54959E-003	0.00000E+000	-4.26991E-004	-8.38403E-002	3.64715E-002	3.19666E+001	11	...........	6.08774E-002	-4.01611E-003	5.74487E-001	6.19332E-001	-2.89049E-002	-3.89072E-002	6.63143E-001	-4.32053E-002	-5.20477E-004	3.43361E-005	-4.91163E-003	-5.29504E-003	2.47125E-004	3.32641E-004	-5.66960E-003	3.69388E-004
	66	66	4.99422E-002	-8.62028E-003	0.00000E+000	-4.30516E-004	-8.45530E-002	3.68794E-002	3.25315E+001	11	...........	6.15526E-002	-4.04181E-003	5.74819E-001	6.19427E-001	-2.89256E-002	-3.88862E-002	6.63209E-001	-4.31918E-002	-5.30601E-004	3.48415E-005	-4.95510E-003	-5.33964E-003	2.49346E-004	3.35210E-004	-5.71705E-003	3.72325E-004
	67	67	4.99434E-002	-8.47045E-003	0.00000E+000	-4.23043E-004	-8.30510E-002	3.67360E-002	3.24148E+001	11	...........	6.13126E-002	-3.97833E-003	5.74973E-001	6.19309E-001	-2.89521E-002	-3.88862E-002	6.63146E-001	-4.32106E-002	-5.19346E-004	3.36983E-005	-4.87028E-003	-5.24583E-003	2.45237E-004	3.29384E-004	-5.61715E-003	3.66013E-004
	68	68	4.99428E-002	-8.30693E-003	0.00000E+000	-4.14871E-004	-8.14260E-002	3.66177E-002	3.22026E+001	11	...........	6.10972E-002	-3.98347E-003	5.74982E-001	6.19327E-001	-2.89247E-002	-3.88724E-002	6.63083E-001	-4.32067E-002	-5.07530E-004	3.30904E-005	-4.77633E-003	-5.14470E-003	2.40276E-004	3.22910E-004	-5.50818E-003	3.58915E-004
	69	69	4.99441E-002	-8.24614E-003	0.00000E+000	-4.11846E-004	-8.08247E-002	3.68073E-002	3.23310E+001	11	...........	6.14340E-002	-3.99264E-003	5.74944E-001	6.19426E-001	-2.88965E-002	-3.88403E-002	6.63189E-001	-4.31483E-002	-5.06594E-004	3.29239E-005	-4.74107E-003	-5.10787E-003	2.38285E-004	3.20283E-004	-5.46875E-003	3.55807E-004
	70	70	4.99426E-002	-8.14707E-003	0.00000E+000	-4.06886E-004	-7.98373E-002	3.66008E-002	3.26762E+001	11	...........	6.10765E-002	-3.96278E-003	5.74928E-001	6.19604E-001	-2.89174E-002	-3.88229E-002	6.63216E-001	-4.31611E-002	-4.97595E-004	3.22850E-005	-4.68398E-003	-5.04796E-003	2.35592E-004	3.16293E-004	-5.40327E-003	3.51636E-004
	71	71	4.99425E-002	-8.11693E-003	0.00000E+000	-4.05380E-004	-7.95257E-002	3.68213E-002	3.28479E+001	11	...........	6.14504E-002	-3.95556E-003	5.74961E-001	6.19627E-001	-2.89393E-002	-3.88279E-002	6.63286E-001	-4.32293E-002	-4.98789E-004	3.21070E-005	-4.66692E-003	-5.02947E-003	2.34898E-004	3.15163E-004	-5.38385E-003	3.50889E-004
	72	72	4.99434E-002	-7.96917E-003	0.00000E+000	-3.98007E-004	-7.80713E-002	3.66648E-002	3.24130E+001	11	...........	6.11724E-002	-3.94333E-003	5.75099E-001	6.19618E-001	-2.89237E-002	-3.88111E-002	6.63365E-001	-4.32222E-002	-4.87493E-004	3.14251E-005	-4.58306E-003	-4.93784E-003	2.30498E-004	3.09292E-004	-5.28647E-003	3.44445E-004
	73	73	4.99429E-002	-7.89918E-003	0.00000E+000	-3.94508E-004	-7.73723E-002	3.67358E-002	3.21521E+001	11	...........	6.13289E-002	-3.93097E-003	5.75283E-001	6.19721E-001	-2.88740E-002	-3.88100E-002	6.63333E-001	-4.32619E-002	-4.84448E-004	3.10514E-005	-4.54426E-003	-4.89529E-003	2.28081E-004	3.06567E-004	-5.23979E-003	3.41734E-004
	74	74	4.99437E-002	-7.85230E-003	0.00000E+000	-3.92173E-004	-7.69187E-002	3.67463E-002	3.32568E+001	11	...........	6.13360E-002	-3.91333E-003	5.75364E-001	6.19733E-001	-2.89043E-002	-3.88271E-002	6.63312E-001	-4.32146E-002	-4.81628E-004	3.07287E-005	-4.51793E-003	-4.86633E-003	2.26965E-004	3.04882E-004	-5.20853E-003	3.39334E-004
	75	75	4.99426E-002	-7.73787E-003	0.00000E+000	-3.86450E-004	-7.57720E-002	3.66445E-002	3.29459E+001	11	...........	6.11685E-002	-3.92806E-003	5.75251E-001	6.19812E-001	-2.88724E-002	-3.88235E-002	6.63242E-001	-4.31922E-002	-4.73314E-004	3.03948E-005	-4.45122E-003	-4.79603E-003	2.23411E-004	3.00411E-004	-5.13208E-003	3.34216E-004
	76	76	4.99428E-002	-7.60356E-003	0.00000E+000	-3.79743E-004	-7.44217E-002	3.67401E-002	3.20202E+001	11	...........	6.13086E-002	-3.96986E-003	5.75176E-001	6.19852E-001	-2.88692E-002	-3.88543E-002	6.63272E-001	-4.32349E-002	-4.66164E-004	3.01851E-005	-4.37338E-003	-4.71308E-003	2.19508E-004	2.95431E-004	-5.04322E-003	3.28739E-004
	77	77	4.99441E-002	-7.52325E-003	0.00000E+000	-3.75742E-004	-7.36393E-002	3.67327E-002	3.27318E+001	11	...........	6.13339E-002	-3.99500E-003	5.75244E-001	6.19775E-001	-2.89199E-002	-3.88703E-002	6.63228E-001	-4.32496E-002	-4.61430E-004	3.00554E-005	-4.32770E-003	-4.66272E-003	2.17571E-004	2.92431E-004	-4.98963E-003	3.25377E-004
	78	78	4.99441E-002	-7.54989E-003	0.00000E+000	-3.77072E-004	-7.39140E-002	3.67886E-002	3.31538E+001	11	...........	6.13856E-002	-4.00569E-003	5.75256E-001	6.19603E-001	-2.89262E-002	-3.88743E-002	6.63219E-001	-4.32107E-002	-4.63454E-004	3.02425E-005	-4.34312E-003	-4.67793E-003	2.18390E-004	2.93497E-004	-5.00723E-003	3.26236E-004
	79	79	4.99425E-002	-7.37613E-003	0.00000E+000	-3.68382E-004	-7.21700E-002	3.66360E-002	3.28146E+001	11	...........	6.11226E-002	-4.06944E-003	5.75238E-001	6.19613E-001	-2.88685E-002	-3.88451E-002	6.63244E-001	-4.33558E-002	-4.50849E-004	3.00168E-005	-4.24303E-003	-4.57035E-003	2.12938E-004	2.86527E-004	-4.89218E-003	3.19798E-004
	80	80	4.99427E-002	-7.31166E-003	0.00000E+000	-3.65164E-004	-7.15197E-002	3.68476E-002	3.26418E+001	11	...........	6.15167E-002	-4.04222E-003	5.75381E-001	6.19638E-001	-2.88510E-002	-3.88240E-002	6.63330E-001	-4.33643E-002	-4.49789E-004	2.95553E-005	-4.20699E-003	-4.53058E-003	2.10948E-004	2.83868E-004	-4.85004E-003	3.17065E-004
	81	81	4.99437E-002	-7.19838E-003	0.00000E+000	-3.59513E-004	-7.03910E-002	3.67390E-002	3.23866E+001	11	...........	6.13229E-002	-4.01528E-003	5.75390E-001	6.19648E-001	-2.88546E-002	-3.88083E-002	6.63393E-001	-4.33114E-002	-4.41426E-004	2.89035E-005	-4.14187E-003	-4.46046E-003	2.07706E-004	2.79357E-004	-4.77536E-003	3.11772E-004
	82	82	4.99437E-002	-7.11922E-003	0.00000E+000	-3.55560E-004	-6.95967E-002	3.66366E-002	3.23523E+001	11	...........	6.11367E-002	-3.99361E-003	5.75562E-001	6.19706E-001	-2.88499E-002	-3.87971E-002	6.63334E-001	-4.33293E-002	-4.35246E-004	2.84314E-005	-4.09755E-003	-4.41183E-003	2.05389E-004	2.76205E-004	-4.72242E-003	3.08471E-004
	83	83	4.99443E-002	-7.14411E-003	0.00000E+000	-3.56808E-004	-6.98263E-002	3.69647E-002	3.29760E+001	11	...........	6.17325E-002	-4.03278E-003	5.75831E-001	6.19645E-001	-2.89110E-002	-3.88006E-002	6.63348E-001	-4.34144E-002	-4.41024E-004	2.88106E-005	-4.11380E-003	-4.42681E-003	2.06543E-004	2.77195E-004	-4.73903E-003	3.10158E-004
	84	84	4.99430E-002	-7.02636E-003	0.00000E+000	-3.50918E-004	-6.86753E-002	3.67407E-002	3.33654E+001	11	...........	6.13315E-002	-4.02917E-003	5.75956E-001	6.19546E-001	-2.89400E-002	-3.88040E-002	6.63346E-001	-4.36000E-002	-4.30937E-004	2.83104E-005	-4.04688E-003	-4.35315E-003	2.03343E-004	2.72651E-004	-4.66091E-003	3.06349E-004
	85	85	4.99431E-002	-6.96364E-003	0.00000E+000	-3.47786E-004	-6.80497E-002	3.68452E-002	3.30073E+001	11	...........	6.15178E-002	-3.99778E-003	5.76008E-001	6.19570E-001	-2.89151E-002	-3.88047E-002	6.63237E-001	-4.34397E-002	-4.28388E-004	2.78391E-005	-4.01111E-003	-4.31446E-003	2.01355E-004	2.70222E-004	-4.61854E-003	3.02499E-004
	86	86	4.99429E-002	-6.88164E-003	0.00000E+000	-3.43689E-004	-6.72337E-002	3.67951E-002	3.26952E+001	11	...........	6.14112E-002	-3.99667E-003	5.75971E-001	6.19673E-001	-2.88712E-002	-3.88165E-002	6.63184E-001	-4.33111E-002	-4.22610E-004	2.75036E-005	-3.96362E-003	-4.26436E-003	1.98681E-004	2.67121E-004	-4.56379E-003	2.98051E-004
	87	87	4.99440E-002	-6.81023E-003	0.00000E+000	-3.40130E-004	-6.64893E-002	3.67872E-002	3.32706E+001	11	...........	6.13886E-002	-3.99722E-003	5.75781E-001	6.19680E-001	-2.89315E-002	-3.88133E-002	6.63279E-001	-4.32618E-002	-4.18071E-004	2.72220E-005	-3.92120E-003	-4.22017E-003	1.97030E-004	2.64328E-004	-4.51708E-003	2.94623E-004
	88	88	4.99433E-002	-6.75734E-003	0.00000E+000	-3.37484E-004	-6.59983E-002	3.67867E-002	3.32849E+001	11	...........	6.14115E-002	-3.97611E-003	5.75590E-001	6.19549E-001	-2.89272E-002	-3.88251E-002	6.63212E-001	-4.32987E-002	-4.14979E-004	2.68679E-005	-3.88946E-003	-4.18651E-003	1.95471E-004	2.62355E-004	-4.48155E-003	2.92584E-004
	89	89	4.99434E-002	-6.69024E-003	0.00000E+000	-3.34133E-004	-6.53123E-002	3.67956E-002	3.33882E+001	11	...........	6.14218E-002	-4.00292E-003	5.75427E-001	6.19399E-001	-2.88640E-002	-3.88158E-002	6.63218E-001	-4.33851E-002	-4.10926E-004	2.67805E-005	-3.84975E-003	-4.14392E-003	1.93107E-004	2.59687E-004	-4.43708E-003	2.90257E-004
	90	90	4.99436E-002	-6.60953E-003	0.00000E+000	-3.30104E-004	-6.45090E-002	3.68484E-002	3.29168E+001	11	...........	6.14986E-002	-3.99250E-003	5.75359E-001	6.19514E-001	-2.88971E-002	-3.88061E-002	6.63180E-001	-4.34244E-002	-4.06477E-004	2.63886E-005	-3.80286E-003	-4.09469E-003	1.90996E-004	2.56490E-004	-4.38331E-003	2.87015E-004
	91	91	4.99432E-002	-6.54667E-003	0.00000E+000	-3.26962E-004	-6.38717E-002	3.68494E-002	3.32776E+001	11	...........	6.15057E-002	-4.00653E-003	5.75401E-001	6.19446E-001	-2.89242E-002	-3.88065E-002	6.63173E-001	-4.33208E-002	-4.02658E-004	2.62294E-005	-3.76696E-003	-4.05531E-003	1.89357E-004	2.54054E-004	-4.34158E-003	2.83607E-004
	92	92	4.99447E-002	-6.52807E-003	0.00000E+000	-3.26043E-004	-6.36480E-002	3.68593E-002	3.36037E+001	11	...........	6.15579E-002	-4.03278E-003	5.75537E-001	6.19374E-001	-2.89161E-002	-3.87936E-002	6.63302E-001	-4.33457E-002	-4.01854E-004	2.63263E-005	-3.75715E-003	-4.04332E-003	1.88766E-004	2.53247E-004	-4.33008E-003	2.82964E-004
	93	93	4.99428E-002	-6.40062E-003	0.00000E+000	-3.19665E-004	-6.24510E-002	3.67202E-002	3.28201E+001	11	...........	6.12782E-002	-3.99528E-003	5.75697E-001	6.19367E-001	-2.89292E-002	-3.88289E-002	6.63398E-001	-4.33932E-002	-3.92219E-004	2.55723E-005	-3.68482E-003	-3.96433E-003	1.85165E-004	2.48529E-004	-4.24616E-003	2.77743E-004
	94	94	4.99433E-002	-6.33777E-003	0.00000E+000	-3.16529E-004	-6.18540E-002	3.67954E-002	3.30586E+001	11	...........	6.14287E-002	-3.95972E-003	5.75767E-001	6.19534E-001	-2.89112E-002	-3.88236E-002	6.63419E-001	-4.34214E-002	-3.89321E-004	2.50958E-005	-3.64908E-003	-3.92647E-003	1.83233E-004	2.46055E-004	-4.20460E-003	2.75195E-004
	95	95	4.99436E-002	-6.28571E-003	0.00000E+000	-3.13931E-004	-6.13380E-002	3.69464E-002	3.33072E+001	11	...........	6.17137E-002	-4.00222E-003	5.75644E-001	6.19560E-001	-2.88979E-002	-3.88194E-002	6.63464E-001	-4.34040E-002	-3.87915E-004	2.51568E-005	-3.61833E-003	-3.89437E-003	1.81644E-004	2.44008E-004	-4.17034E-003	2.72825E-004
	96	96	4.99415E-002	-6.21879E-003	0.00000E+000	-3.10576E-004	-6.06727E-002	3.68587E-002	3.37771E+001	11	...........	6.15517E-002	-4.00111E-003	5.75626E-001	6.19464E-001	-2.88807E-002	-3.88079E-002	6.63414E-001	-4.32357E-002	-3.82777E-004	2.48821E-005	-3.57970E-003	-3.85232E-003	1.79603E-004	2.41338E-004	-4.12564E-003	2.68874E-004
	97	97	4.99428E-002	-6.08196E-003	0.00000E+000	-3.03750E-004	-5.93010E-002	3.69101E-002	3.20456E+001	11	...........	6.16282E-002	-3.99056E-003	5.75761E-001	6.19329E-001	-2.88833E-002	-3.88465E-002	6.63353E-001	-4.31947E-002	-3.74820E-004	2.42704E-005	-3.50176E-003	-3.76674E-003	1.75667E-004	2.36263E-004	-4.03449E-003	2.62709E-004
	98	98	4.99456E-002	-6.03669E-003	0.00000E+000	-3.01506E-004	-5.88527E-002	3.68458E-002	3.21883E+001	11	...........	6.14801E-002	-4.01528E-003	5.75697E-001	6.19305E-001	-2.88612E-002	-3.88340E-002	6.63176E-001	-4.32207E-002	-3.71137E-004	2.42390E-005	-3.47530E-003	-3.73855E-003	1.74226E-004	2.34429E-004	-4.00339E-003	2.60910E-004
	99	99	4.99439E-002	-6.01772E-003	0.00000E+000	-3.00548E-004	-5.86597E-002	3.68977E-002	3.27969E+001	11	...........	6.16096E-002	-4.01083E-003	5.75608E-001	6.19288E-001	-2.88817E-002	-3.88569E-002	6.63055E-001	-4.32386E-002	-3.70749E-004	2.41361E-005	-3.46385E-003	-3.72670E-003	1.73802E-004	2.33830E-004	-3.99008E-003	2.60198E-004
	100	100	4.99434E-002	-5.95500E-003	0.00000E+000	-2.97413E-004	-5.80483E-002	3.69681E-002	3.29307E+001	11	...........	6.17090E-002	-4.00222E-003	5.75587E-001	6.19447E-001	-2.88825E-002	-3.88685E-002	6.63174E-001	-4.33464E-002	-3.67477E-004	2.38332E-005	-3.42762E-003	-3.68880E-003	1.71995E-004	2.31462E-004	-3.94920E-003	2.58128E-004
	101	101	4.99435E-002	-5.89239E-003	0.00000E+000	-2.94286E-004	-5.74013E-002	3.68730E-002	3.23579E+001	11	...........	6.15529E-002	-4.01417E-003	5.75858E-001	6.19571E-001	-2.89153E-002	-3.88504E-002	6.63205E-001	-4.33751E-002	-3.62694E-004	2.36530E-005	-3.39318E-003	-3.65075E-003	1.70380E-004	2.28922E-004	-3.90786E-003	2.55583E-004
	102	102	4.99448E-002	-5.85904E-003	0.00000E+000	-2.92628E-004	-5.70660E-002	3.69495E-002	3.33409E+001	11	...........	6.17074E-002	-3.97583E-003	5.75930E-001	6.19698E-001	-2.89435E-002	-3.88537E-002	6.63278E-001	-4.33535E-002	-3.61546E-004	2.32946E-005	-3.37440E-003	-3.63084E-003	1.69581E-004	2.27646E-004	-3.88617E-003	2.54010E-004
	103	103	4.99434E-002	-5.80958E-003	0.00000E+000	-2.90150E-004	-5.65920E-002	3.68570E-002	3.31194E+001	11	...........	6.15275E-002	-3.98764E-003	5.75959E-001	6.19861E-001	-2.89889E-002	-3.88571E-002	6.63129E-001	-4.32268E-002	-3.57449E-004	2.31665E-005	-3.34608E-003	-3.60113E-003	1.68413E-004	2.25743E-004	-3.85250E-003	2.51129E-004
	104	104	4.99430E-002	-5.74367E-003	0.00000E+000	-2.86857E-004	-5.59310E-002	3.69312E-002	3.28030E+001	11	...........	6.16485E-002	-3.99375E-003	5.75895E-001	6.19819E-001	-2.90208E-002	-3.88615E-002	6.63074E-001	-4.32124E-002	-3.54089E-004	2.29388E-005	-3.30775E-003	-3.56004E-003	1.66686E-004	2.23208E-004	-3.80848E-003	2.48198E-004
	105	105	4.99442E-002	-5.65694E-003	0.00000E+000	-2.82531E-004	-5.50740E-002	3.68682E-002	3.24080E+001	11	...........	6.15515E-002	-4.04500E-003	5.75917E-001	6.19793E-001	-2.90194E-002	-3.88519E-002	6.63172E-001	-4.32268E-002	-3.48193E-004	2.28823E-005	-3.25793E-003	-3.50613E-003	1.64161E-004	2.19783E-004	-3.75153E-003	2.44532E-004
	106	106	4.99441E-002	-5.64417E-003	0.00000E+000	-2.81893E-004	-5.49523E-002	3.69212E-002	3.27285E+001	11	...........	6.16364E-002	-4.03333E-003	5.75826E-001	6.19739E-001	-2.90293E-002	-3.88696E-002	6.63156E-001	-4.32117E-002	-3.47886E-004	2.27648E-005	-3.25006E-003	-3.49791E-003	1.63846E-004	2.19386E-004	-3.74296E-003	2.43894E-004
	107	107	4.99434E-002	-5.59594E-003	0.00000E+000	-2.79480E-004	-5.44690E-002	3.69263E-002	3.34703E+001	11	...........	6.16301E-002	-4.00319E-003	5.75870E-001	6.19759E-001	-2.90292E-002	-3.88687E-002	6.63137E-001	-4.32576E-002	-3.44879E-004	2.24016E-005	-3.22253E-003	-3.46814E-003	1.62446E-004	2.17507E-004	-3.71087E-003	2.42067E-004
	108	108	4.99426E-002	-5.53312E-003	0.00000E+000	-2.76338E-004	-5.38323E-002	3.70357E-002	3.31765E+001	11	...........	6.18358E-002	-4.04472E-003	5.75831E-001	6.19857E-001	-2.90471E-002	-3.88615E-002	6.63098E-001	-4.33633E-002	-3.42145E-004	2.23799E-005	-3.18614E-003	-3.42974E-003	1.60721E-004	2.15025E-004	-3.66900E-003	2.39934E-004
	109	109	4.99443E-002	-5.46840E-003	0.00000E+000	-2.73115E-004	-5.32103E-002	3.69263E-002	3.25633E+001	11	...........	6.16521E-002	-4.03792E-003	5.75841E-001	6.19867E-001	-2.90457E-002	-3.88810E-002	6.63175E-001	-4.33087E-002	-3.37138E-004	2.20809E-005	-3.14893E-003	-3.38968E-003	1.58834E-004	2.12617E-004	-3.62650E-003	2.36830E-004
	110	110	4.99443E-002	-5.43217E-003	0.00000E+000	-2.71306E-004	-5.28393E-002	3.69897E-002	3.38079E+001	11	...........	6.17437E-002	-3.96861E-003	5.75867E-001	6.19910E-001	-2.90442E-002	-3.88649E-002	6.63316E-001	-4.31999E-002	-3.35402E-004	2.15582E-005	-3.12821E-003	-3.36745E-003	1.57773E-004	2.11120E-004	-3.60324E-003	2.34669E-004
	111	111	4.99436E-002	-5.40135E-003	0.00000E+000	-2.69763E-004	-5.25270E-002	3.69790E-002	3.32723E+001	11	...........	6.17176E-002	-3.95944E-003	5.76038E-001	6.19844E-001	-2.90560E-002	-3.88744E-002	6.63230E-001	-4.31193E-002	-3.33359E-004	2.13863E-005	-3.11138E-003	-3.34799E-003	1.56941E-004	2.09974E-004	-3.58234E-003	2.32902E-004
	112	112	4.99430E-002	-5.33688E-003	0.00000E+000	-2.66540E-004	-5.18873E-002	3.69787E-002	3.29858E+001	11	...........	6.17362E-002	-3.98944E-003	5.76139E-001	6.19833E-001	-2.90624E-002	-3.88742E-002	6.63288E-001	-4.32686E-002	-3.29479E-004	2.12912E-005	-3.07478E-003	-3.30797E-003	1.55102E-004	2.07467E-004	-3.53989E-003	2.30919E-004
	113	113	4.99439E-002	-5.27690E-003	0.00000E+000	-2.63549E-004	-5.13000E-002	3.70330E-002	3.30428E+001	11	...........	6.18411E-002	-4.02736E-003	5.76307E-001	6.20065E-001	-2.90700E-002	-3.88692E-002	6.63363E-001	-4.32632E-002	-3.26329E-004	2.12520E-005	-3.04111E-003	-3.27202E-003	1.53399E-004	2.05109E-004	-3.50050E-003	2.28296E-004
	114	114	4.99442E-002	-5.22888E-003	0.00000E+000	-2.61152E-004	-5.07920E-002	3.68788E-002	3.31721E+001	11	...........	6.15437E-002	-4.02611E-003	5.76109E-001	6.20190E-001	-2.90715E-002	-3.88439E-002	6.63297E-001	-4.31690E-002	-3.21805E-004	2.10521E-005	-3.01241E-003	-3.24290E-003	1.52012E-004	2.03110E-004	-3.46830E-003	2.25726E-004
	115	115	4.99439E-002	-5.22054E-003	0.00000E+000	-2.60734E-004	-5.07070E-002	3.70772E-002	3.32464E+001	11	...........	6.19376E-002	-4.00944E-003	5.76128E-001	6.20145E-001	-2.91039E-002	-3.88335E-002	6.63139E-001	-4.31724E-002	-3.23348E-004	2.09315E-005	-3.00770E-003	-3.23749E-003	1.51938E-004	2.02732E-004	-3.46194E-003	2.25383E-004
	116	116	4.99435E-002	-5.15113E-003	0.00000E+000	-2.57265E-004	-5.00693E-002	3.69292E-002	3.36977E+001	11	...........	6.16537E-002	-3.99611E-003	5.76141E-001	6.20037E-001	-2.91072E-002	-3.88375E-002	6.63207E-001	-4.31394E-002	-3.17587E-004	2.05845E-005	-2.96778E-003	-3.19389E-003	1.49935E-004	2.00057E-004	-3.41627E-003	2.22217E-004
	117	117	4.99436E-002	-5.10559E-003	0.00000E+000	-2.54991E-004	-4.95997E-002	3.70546E-002	3.28605E+001	11	...........	6.19065E-002	-3.98833E-003	5.76177E-001	6.19962E-001	-2.90617E-002	-3.88485E-002	6.63220E-001	-4.31344E-002	-3.16069E-004	2.03628E-005	-2.94172E-003	-3.16527E-003	1.48377E-004	1.98344E-004	-3.38613E-003	2.20227E-004
	118	117.043	4.99221E-002	-5.02638E-003	0.00000E+000	-2.50928E-004	-4.88154E-002	3.69096E-002	3.33062E+001	11	...........	6.15962E-002	-4.00320E-003	5.76353E-001	6.19994E-001	-2.86186E-002	-3.89231E-002	6.63099E-001	-4.32404E-002	-3.09606E-004	2.01216E-005	-2.89697E-003	-3.11632E-003	1.43848E-004	1.95642E-004	-3.33299E-003	2.17343E-004
STARTTIMEOFFSET	QUANT	795526.8	Start Time Offset (s)
