EXPLAIN
TAG	PWR800_DISCHARGE
TITLE	LABEL	PWR Discharge	Test Identifier
DATE	LABEL	10/11/2022	Date
TIME	LABEL	22:45:03	Time
NOTES	NOTES	1	Notes...
	
PSTAT	PSTAT	REF3000-21114	Potentiostat
CAPACITY	QUANT	5.30000E-002	Capacity (A-hr)
CELLTYPE	SELECTOR	1	Cell Type
WORKINGCONNECTION	SELECTOR	0	Working Connection
MAXDISCHARGETIME	VARIABLEANDUNITS	7.20000E+003	s	2.00000E+000	hour(s)	Max Discharge Time
DISCHARGEMODE	MULTIPARAM	0	1.00000E-001	Discharge Mode	Constant Current	Amp(s)
VOLTAGEFINISH	TWOPARAM	T	5.00000E-003	7.20000E+003	Voltage Finish	I (A) <	Max Time(s)
SAMPLETIME	QUANT	1.00000E+000	Sample Period (s)
DISCHARGESTOPAT1	MULTIPARAM	1	5.00000E-002	Stop At 1	|Voltage| < Limit	V
DISCHARGESTOPAT2	MULTIPARAM	0	0.00000E+000	Stop At 2	None	N/A
AESELECTOR	AESELECTOR	0x1	T	Set Limits	AE Channels
AESBHCSELECTOR	TOGGLE	F	Save Both Half Cells
IRCOMP	TOGGLE	F	IR Measure
EOC	QUANT	0.5648881	Open Circuit (V)
SEQUENCER	TOGGLE	TRUE	Run as Sequence
PSTATMODEL	IQUANT	5	Pstat Model
PSTATSECTION	LABEL	REF3000-21114	Pstat Section
PSTATSERIALNO	LABEL	21114	Pstat Serial Number
CTRLMODE	IQUANT	0	Control Mode
ELECTROMETER	IQUANT	0	RE=0 or CS=1
IESTAB	IQUANT	0	I/E Stability
CASPEED	IQUANT	4	Control Amp Speed
CONVENTION	IQUANT	1	Current Convention
ICHRANGE	IQUANT	2	Ich Range
ICHRANGEMODE	TOGGLE	T	Ich Auto Range
ICHOFFSETENABLE	TOGGLE	F	Ich Offset Enable
ICHOFFSET	QUANT	0	Ich Offset (V)
ICHFILTER	IQUANT	1	Ich Filter
VCHRANGE	IQUANT	3	Vch Range
VCHRANGEMODE	TOGGLE	T	Vch Auto Range
VCHOFFSETENABLE	TOGGLE	F	Vch Offset Enable
VCHOFFSET	QUANT	0	Vch Offset (V)
VCHFILTER	IQUANT	1	Vch Filter
ACHRANGE	IQUANT	2	Ach Range
ACHOFFSETENABLE	TOGGLE	F	Ach Offset Enable
ACHOFFSET	QUANT	0	Ach Offset (V)
ACHFILTER	IQUANT	1	Ach Filter
IERANGELOWERLIMIT	IQUANT	9	I/E Range Lower Limit
IERANGEMODE	TOGGLE	F	I/E AutoRange
IERANGE	IQUANT	9	I/E Range
POSFEEDENABLE	TOGGLE	F	Positive Feedback IR Comp
POSFEEDRESISTANCE	QUANT	0	Positive Feedback Resistance (ohm)
ACHSELECT	IQUANT	1	Ach Select
SENSECABLEID	IQUANT	13	Sense Cable ID
PWRCABLEID	IQUANT	13	Power Cable ID
DCCALDATE	LABEL		DC Calibration Date
ACCALDATE	LABEL		AC Calibration Date
THERMOSELECT	IQUANT	1	Thermo Select
FRAMEWORKVERSION	LABEL	7.8.6	Framework Version
INSTRUMENTVERSION	LABEL	4.50	Instrument Version
COMPLIANCEVOLTAGE	IQUANT	0	Compliance Voltage
CURVE	TABLE	177
	Pt	T	Vf	Im	Vu	Pwr	Sig	Ach	Temp	IERange	Over	Vf1	Vf2	Vf3	Vf4	Vf5	Vf6	Vf7	Vf8	Pwr1	Pwr2	Pwr3	Pwr4	Pwr5	Pwr6	Pwr7	Pwr8
	#	s	V	A	V	W	V	V	deg C	#	bits	V	V	V	V	V	V	V	V	W	W	W	W	W	W	W	W
	0	1	3.48843E-001	-1.00097E-001	0.00000E+000	-3.49180E-002	-9.94000E-001	3.18966E-002	2.78360E+001	11	...........	5.33282E-002	-4.19250E-003	5.53505E-001	6.69563E-001	-3.10667E-002	-4.03200E-002	6.36476E-001	-4.38169E-002	-5.33797E-003	4.19655E-004	-5.54040E-002	-6.70210E-002	3.10967E-003	4.03590E-003	-6.37091E-002	4.38593E-003
	1	2	2.55536E-001	-1.00097E-001	0.00000E+000	-2.55783E-002	-9.94000E-001	3.18803E-002	2.69860E+001	11	...........	5.32839E-002	-4.23431E-003	5.53437E-001	6.69628E-001	-3.10414E-002	-4.03454E-002	6.36545E-001	-4.38039E-002	-5.33355E-003	4.23840E-004	-5.53973E-002	-6.70276E-002	3.10714E-003	4.03845E-003	-6.37162E-002	4.38463E-003
	2	3	1.82430E-001	-1.00098E-001	0.00000E+000	-1.82608E-002	-9.94000E-001	3.19607E-002	2.68687E+001	11	...........	5.34187E-002	-4.32514E-003	5.53268E-001	6.69771E-001	-3.10703E-002	-4.03608E-002	6.36590E-001	-4.37368E-002	-5.34709E-003	4.32936E-004	-5.53808E-002	-6.70426E-002	3.11006E-003	4.04003E-003	-6.37212E-002	4.37795E-003
	3	4	1.18019E-001	-1.00098E-001	0.00000E+000	-1.18134E-002	-9.94000E-001	3.17688E-002	2.62325E+001	11	...........	5.31236E-002	-4.28014E-003	5.53199E-001	6.69755E-001	-3.10532E-002	-4.03429E-002	6.36588E-001	-4.37325E-002	-5.31755E-003	4.28432E-004	-5.53739E-002	-6.70409E-002	3.10835E-003	4.03823E-003	-6.37210E-002	4.37752E-003
	4	4.75833	6.91231E-002	-1.00098E-001	0.00000E+000	-6.91908E-003	-9.94000E-001	3.18419E-002	2.59461E+001	11	...........	5.32353E-002	-4.24579E-003	5.53175E-001	6.69658E-001	-3.10676E-002	-4.03152E-002	6.36499E-001	-4.36610E-002	-5.32875E-003	4.24994E-004	-5.53717E-002	-6.70314E-002	3.10980E-003	4.03547E-003	-6.37122E-002	4.37037E-003
	5	5	4.93564E-002	-9.44698E-002	0.00000E+000	-4.66268E-003	-9.38034E-001	3.18941E-002	2.59347E+001	11	...........	5.33040E-002	-4.24483E-003	5.53305E-001	6.69670E-001	-3.08845E-002	-4.03126E-002	6.36563E-001	-4.36638E-002	-5.03562E-003	4.01008E-004	-5.22706E-002	-6.32636E-002	2.91765E-003	3.80833E-003	-6.01360E-002	4.12491E-003
	6	6	4.96249E-002	-7.77766E-002	0.00000E+000	-3.85966E-003	-7.72072E-001	3.20822E-002	2.63224E+001	11	...........	5.35972E-002	-4.22056E-003	5.53272E-001	6.69678E-001	-3.09506E-002	-4.02378E-002	6.36540E-001	-4.36864E-002	-4.16861E-003	3.28260E-004	-4.30316E-002	-5.20853E-002	2.40723E-003	3.12956E-003	-4.95079E-002	3.39778E-003
	7	7	4.97614E-002	-6.22427E-002	0.00000E+000	-3.09728E-003	-6.17632E-001	3.21545E-002	2.68527E+001	11	...........	5.37635E-002	-4.28153E-003	5.53410E-001	6.69634E-001	-3.09057E-002	-4.02410E-002	6.36758E-001	-4.37362E-002	-3.34638E-003	2.66494E-004	-3.44457E-002	-4.16798E-002	1.92365E-003	2.50471E-003	-3.96335E-002	2.72226E-003
	8	8	4.98426E-002	-5.39360E-002	0.00000E+000	-2.68832E-003	-5.35041E-001	3.22577E-002	2.70810E+001	11	...........	5.39342E-002	-4.30931E-003	5.53658E-001	6.69722E-001	-3.08853E-002	-4.01862E-002	6.36844E-001	-4.37085E-002	-2.90900E-003	2.32427E-004	-2.98621E-002	-3.61222E-002	1.66583E-003	2.16749E-003	-3.43489E-002	2.35746E-003
	9	9	4.98541E-002	-4.89778E-002	0.00000E+000	-2.44174E-003	-4.85769E-001	3.23159E-002	2.72066E+001	11	...........	5.39826E-002	-4.36083E-003	5.53690E-001	6.69582E-001	-3.08443E-002	-4.01939E-002	6.36659E-001	-4.36012E-002	-2.64395E-003	2.13584E-004	-2.71185E-002	-3.27947E-002	1.51069E-003	1.96861E-003	-3.11821E-002	2.13549E-003
	10	10	4.98687E-002	-4.53637E-002	0.00000E+000	-2.26223E-003	-4.49822E-001	3.23626E-002	2.73787E+001	11	...........	5.40922E-002	-4.30194E-003	5.53589E-001	6.69486E-001	-3.08322E-002	-4.01551E-002	6.36686E-001	-4.37172E-002	-2.45382E-003	1.95152E-004	-2.51128E-002	-3.03703E-002	1.39866E-003	1.82158E-003	-2.88824E-002	1.98317E-003
	11	11	4.98991E-002	-4.34599E-002	0.00000E+000	-2.16861E-003	-4.30894E-001	3.24100E-002	2.78301E+001	11	...........	5.41581E-002	-4.34528E-003	5.53652E-001	6.69562E-001	-3.08476E-002	-4.01526E-002	6.36592E-001	-4.36847E-002	-2.35370E-003	1.88845E-004	-2.40616E-002	-2.90990E-002	1.34063E-003	1.74503E-003	-2.76662E-002	1.89853E-003
	12	12	4.98726E-002	-4.16922E-002	0.00000E+000	-2.07930E-003	-4.13321E-001	3.25532E-002	2.79062E+001	11	...........	5.44229E-002	-4.39792E-003	5.53762E-001	6.69654E-001	-3.08474E-002	-4.01296E-002	6.36654E-001	-4.38410E-002	-2.26901E-003	1.83359E-004	-2.30876E-002	-2.79194E-002	1.28610E-003	1.67309E-003	-2.65435E-002	1.82783E-003
	13	13	4.98899E-002	-3.99427E-002	0.00000E+000	-1.99274E-003	-3.95942E-001	3.25257E-002	2.79278E+001	11	...........	5.43481E-002	-4.25500E-003	5.53712E-001	6.69549E-001	-3.08397E-002	-4.00992E-002	6.36664E-001	-4.36656E-002	-2.17081E-003	1.69956E-004	-2.21168E-002	-2.67436E-002	1.23182E-003	1.60167E-003	-2.54301E-002	1.74412E-003
	14	14	4.98884E-002	-3.83662E-002	0.00000E+000	-1.91403E-003	-3.80264E-001	3.23977E-002	2.76238E+001	11	...........	5.41667E-002	-4.13917E-003	5.53629E-001	6.69507E-001	-3.08353E-002	-4.01071E-002	6.36685E-001	-4.36608E-002	-2.07817E-003	1.58804E-004	-2.12406E-002	-2.56864E-002	1.18303E-003	1.53876E-003	-2.44272E-002	1.67510E-003
	15	15	4.99190E-002	-3.81778E-002	0.00000E+000	-1.90579E-003	-3.78394E-001	3.27083E-002	2.80716E+001	11	...........	5.46499E-002	-4.33333E-003	5.53495E-001	6.69540E-001	-3.08157E-002	-4.01328E-002	6.36629E-001	-4.37150E-002	-2.08641E-003	1.65437E-004	-2.11312E-002	-2.55615E-002	1.17647E-003	1.53218E-003	-2.43051E-002	1.66894E-003
	16	16	4.98792E-002	-3.69767E-002	0.00000E+000	-1.84437E-003	-3.66448E-001	3.24233E-002	2.85216E+001	11	...........	5.41619E-002	-4.32333E-003	5.53561E-001	6.69577E-001	-3.08221E-002	-4.01039E-002	6.36630E-001	-4.36999E-002	-2.00273E-003	1.59863E-004	-2.04688E-002	-2.47587E-002	1.13970E-003	1.48291E-003	-2.35405E-002	1.61588E-003
	17	17	4.99008E-002	-3.59934E-002	0.00000E+000	-1.79610E-003	-3.56663E-001	3.27762E-002	2.79096E+001	11	...........	5.47499E-002	-4.35389E-003	5.53589E-001	6.69508E-001	-3.08699E-002	-4.01042E-002	6.36573E-001	-4.37328E-002	-1.97064E-003	1.56711E-004	-1.99256E-002	-2.40979E-002	1.11111E-003	1.44349E-003	-2.29125E-002	1.57409E-003
	18	18	4.99121E-002	-3.53636E-002	0.00000E+000	-1.76507E-003	-3.50395E-001	3.25672E-002	2.81851E+001	11	...........	5.44429E-002	-4.18597E-003	5.53657E-001	6.69523E-001	-3.08892E-002	-4.01162E-002	6.36545E-001	-4.37315E-002	-1.92530E-003	1.48031E-004	-1.95793E-002	-2.36767E-002	1.09235E-003	1.41865E-003	-2.25105E-002	1.54650E-003
	19	19	4.98841E-002	-3.49436E-002	0.00000E+000	-1.74313E-003	-3.46218E-001	3.26017E-002	2.82845E+001	11	...........	5.44804E-002	-4.17694E-003	5.53715E-001	6.69586E-001	-3.09046E-002	-4.00918E-002	6.36633E-001	-4.37332E-002	-1.90374E-003	1.45957E-004	-1.93488E-002	-2.33977E-002	1.07992E-003	1.40095E-003	-2.22462E-002	1.52819E-003
	20	20	4.99059E-002	-3.44343E-002	0.00000E+000	-1.71847E-003	-3.41158E-001	3.28050E-002	2.81181E+001	11	...........	5.49754E-002	-4.17417E-003	5.53822E-001	6.69563E-001	-3.09067E-002	-4.00872E-002	6.36791E-001	-4.37697E-002	-1.89304E-003	1.43735E-004	-1.90705E-002	-2.30559E-002	1.06425E-003	1.38038E-003	-2.19275E-002	1.50718E-003
	21	21	4.99089E-002	-3.34668E-002	0.00000E+000	-1.67029E-003	-3.31538E-001	3.25092E-002	2.84857E+001	11	...........	5.45854E-002	-4.10736E-003	5.53721E-001	6.69615E-001	-3.09258E-002	-4.00808E-002	6.36936E-001	-4.37503E-002	-1.82680E-003	1.37460E-004	-1.85313E-002	-2.24099E-002	1.03499E-003	1.34138E-003	-2.13162E-002	1.46418E-003
	22	22	4.98988E-002	-3.32202E-002	0.00000E+000	-1.65765E-003	-3.29084E-001	3.25753E-002	2.81514E+001	11	...........	5.46971E-002	-4.22778E-003	5.53863E-001	6.69693E-001	-3.08872E-002	-4.01024E-002	6.36915E-001	-4.37899E-002	-1.81705E-003	1.40448E-004	-1.83995E-002	-2.22474E-002	1.02608E-003	1.33221E-003	-2.11585E-002	1.45471E-003
	23	23	4.98993E-002	-3.26224E-002	0.00000E+000	-1.62783E-003	-3.23132E-001	3.26943E-002	2.85502E+001	11	...........	5.48725E-002	-4.14292E-003	5.53938E-001	6.69732E-001	-3.09078E-002	-4.01185E-002	6.36877E-001	-4.37814E-002	-1.79007E-003	1.35152E-004	-1.80708E-002	-2.18482E-002	1.00828E-003	1.30876E-003	-2.07764E-002	1.42825E-003
	24	24	4.98956E-002	-3.20684E-002	0.00000E+000	-1.60007E-003	-3.17626E-001	3.27007E-002	2.85694E+001	11	...........	5.49018E-002	-4.10208E-003	5.53921E-001	6.69753E-001	-3.09186E-002	-4.01226E-002	6.36694E-001	-4.37978E-002	-1.76061E-003	1.31547E-004	-1.77634E-002	-2.14779E-002	9.91511E-004	1.28667E-003	-2.04178E-002	1.40453E-003
	25	25	4.99128E-002	-3.16842E-002	0.00000E+000	-1.58145E-003	-3.13807E-001	3.26687E-002	2.86462E+001	11	...........	5.48231E-002	-4.14528E-003	5.53846E-001	6.69786E-001	-3.08943E-002	-4.01279E-002	6.36732E-001	-4.38249E-002	-1.73703E-003	1.31340E-004	-1.75482E-002	-2.12216E-002	9.78862E-004	1.27142E-003	-2.01743E-002	1.38856E-003
	26	26	4.99001E-002	-3.14828E-002	0.00000E+000	-1.57100E-003	-3.11801E-001	3.27627E-002	2.88497E+001	11	...........	5.49782E-002	-4.08486E-003	5.53872E-001	6.69777E-001	-3.09039E-002	-4.01503E-002	6.36841E-001	-4.37736E-002	-1.73087E-003	1.28603E-004	-1.74374E-002	-2.10864E-002	9.72940E-004	1.26404E-003	-2.00495E-002	1.37812E-003
	27	27	4.99052E-002	-3.09463E-002	0.00000E+000	-1.54438E-003	-3.06493E-001	3.27764E-002	2.89620E+001	11	...........	5.50200E-002	-4.11389E-003	5.53814E-001	6.69595E-001	-3.08940E-002	-4.01783E-002	6.36815E-001	-4.38724E-002	-1.70266E-003	1.27310E-004	-1.71385E-002	-2.07215E-002	9.56055E-004	1.24337E-003	-1.97071E-002	1.35769E-003
	28	28	4.98983E-002	-3.01582E-002	0.00000E+000	-1.50484E-003	-2.98669E-001	3.27622E-002	2.88143E+001	11	...........	5.49742E-002	-4.23153E-003	5.54036E-001	6.69551E-001	-3.08282E-002	-4.01497E-002	6.36773E-001	-4.38562E-002	-1.65792E-003	1.27615E-004	-1.67087E-002	-2.01924E-002	9.29722E-004	1.21084E-003	-1.92039E-002	1.32262E-003
	29	29	4.98884E-002	-2.89667E-002	0.00000E+000	-1.44510E-003	-2.86821E-001	3.26379E-002	2.87170E+001	11	...........	5.47622E-002	-4.17389E-003	5.54315E-001	6.69469E-001	-3.08196E-002	-4.01636E-002	6.36718E-001	-4.37599E-002	-1.58628E-003	1.20904E-004	-1.60567E-002	-1.93923E-002	8.92742E-004	1.16341E-003	-1.84436E-002	1.26758E-003
	30	30	4.99123E-002	-2.90752E-002	0.00000E+000	-1.45121E-003	-2.87896E-001	3.28903E-002	2.86319E+001	11	...........	5.51994E-002	-4.18208E-003	5.54265E-001	6.69559E-001	-3.08544E-002	-4.01681E-002	6.36741E-001	-4.38174E-002	-1.60493E-003	1.21595E-004	-1.61153E-002	-1.94675E-002	8.97098E-004	1.16789E-003	-1.85134E-002	1.27400E-003
	31	31	4.99000E-002	-2.88900E-002	0.00000E+000	-1.44161E-003	-2.86060E-001	3.29265E-002	2.89587E+001	11	...........	5.52578E-002	-4.10333E-003	5.54215E-001	6.69479E-001	-3.08178E-002	-4.01519E-002	6.36869E-001	-4.38660E-002	-1.59640E-003	1.18545E-004	-1.60112E-002	-1.93412E-002	8.90325E-004	1.15999E-003	-1.83991E-002	1.26729E-003
	32	32	4.98947E-002	-2.77735E-002	0.00000E+000	-1.38575E-003	-2.74958E-001	3.27664E-002	2.86576E+001	11	...........	5.49935E-002	-4.12583E-003	5.54320E-001	6.69564E-001	-3.08046E-002	-4.01515E-002	6.36799E-001	-4.38696E-002	-1.52736E-003	1.14589E-004	-1.53954E-002	-1.85962E-002	8.55553E-004	1.11515E-003	-1.76862E-002	1.21841E-003
	33	33	4.99074E-002	-2.77498E-002	0.00000E+000	-1.38492E-003	-2.74720E-001	3.29287E-002	2.87401E+001	11	...........	5.52647E-002	-4.20847E-003	5.54502E-001	6.69689E-001	-3.07669E-002	-4.01392E-002	6.36970E-001	-4.37850E-002	-1.53359E-003	1.16784E-004	-1.53873E-002	-1.85838E-002	8.53778E-004	1.11386E-003	-1.76758E-002	1.21503E-003
	34	34	4.99101E-002	-2.73330E-002	0.00000E+000	-1.36419E-003	-2.70568E-001	3.29076E-002	2.90057E+001	11	...........	5.51968E-002	-4.15306E-003	5.54421E-001	6.69702E-001	-3.07629E-002	-4.01625E-002	6.36928E-001	-4.36644E-002	-1.50869E-003	1.13515E-004	-1.51540E-002	-1.83049E-002	8.40841E-004	1.09776E-003	-1.74091E-002	1.19348E-003
	35	35	4.99102E-002	-2.70123E-002	0.00000E+000	-1.34819E-003	-2.67384E-001	3.28975E-002	2.89351E+001	11	...........	5.51701E-002	-4.00500E-003	5.54357E-001	6.69714E-001	-3.07385E-002	-4.01465E-002	6.36885E-001	-4.36164E-002	-1.49027E-003	1.08184E-004	-1.49744E-002	-1.80905E-002	8.30316E-004	1.08445E-003	-1.72037E-002	1.17818E-003
	36	36	4.98948E-002	-2.66643E-002	0.00000E+000	-1.33041E-003	-2.63925E-001	3.30065E-002	2.90674E+001	11	...........	5.54000E-002	-3.96944E-003	5.54261E-001	6.69632E-001	-3.07347E-002	-4.01419E-002	6.36807E-001	-4.36332E-002	-1.47720E-003	1.05843E-004	-1.47790E-002	-1.78553E-002	8.19521E-004	1.07036E-003	-1.69801E-002	1.16345E-003
	37	37	4.98990E-002	-2.61909E-002	0.00000E+000	-1.30690E-003	-2.59220E-001	3.29212E-002	2.91243E+001	11	...........	5.52318E-002	-3.93167E-003	5.54189E-001	6.69555E-001	-3.07154E-002	-4.01364E-002	6.36886E-001	-4.36821E-002	-1.44657E-003	1.02974E-004	-1.45147E-002	-1.75363E-002	8.04465E-004	1.05121E-003	-1.66806E-002	1.14407E-003
	38	38	4.99127E-002	-2.59340E-002	0.00000E+000	-1.29444E-003	-2.56659E-001	3.29815E-002	2.92029E+001	11	...........	5.53304E-002	-4.01222E-003	5.54128E-001	6.69696E-001	-3.07808E-002	-4.01693E-002	6.36763E-001	-4.37993E-002	-1.43494E-003	1.04053E-004	-1.43707E-002	-1.73679E-002	7.98270E-004	1.04175E-003	-1.65138E-002	1.13589E-003
	39	39	4.98953E-002	-2.52831E-002	0.00000E+000	-1.26151E-003	-2.50188E-001	3.29300E-002	2.87511E+001	11	...........	5.52572E-002	-4.12306E-003	5.53998E-001	6.69656E-001	-3.08044E-002	-4.01996E-002	6.36811E-001	-4.37357E-002	-1.39707E-003	1.04244E-004	-1.40068E-002	-1.69310E-002	7.78832E-004	1.01637E-003	-1.61006E-002	1.10577E-003
	40	40	4.99092E-002	-2.50080E-002	0.00000E+000	-1.24813E-003	-2.47457E-001	3.29702E-002	2.89477E+001	11	...........	5.52996E-002	-4.16750E-003	5.54011E-001	6.69666E-001	-3.07842E-002	-4.02007E-002	6.36757E-001	-4.37060E-002	-1.38293E-003	1.04221E-004	-1.38547E-002	-1.67470E-002	7.69851E-004	1.00534E-003	-1.59240E-002	1.09300E-003
	41	41	4.99011E-002	-2.48251E-002	0.00000E+000	-1.23880E-003	-2.45627E-001	3.30672E-002	2.92304E+001	11	...........	5.54890E-002	-4.15236E-003	5.54001E-001	6.69730E-001	-3.07964E-002	-4.01740E-002	6.36650E-001	-4.37206E-002	-1.37752E-003	1.03083E-004	-1.37531E-002	-1.66261E-002	7.64523E-004	9.97324E-004	-1.58049E-002	1.08537E-003
	42	42	4.98959E-002	-2.43544E-002	0.00000E+000	-1.21518E-003	-2.40951E-001	3.30215E-002	2.92489E+001	11	...........	5.54050E-002	-4.21431E-003	5.53970E-001	6.69753E-001	-3.07893E-002	-4.01411E-002	6.36705E-001	-4.37661E-002	-1.34935E-003	1.02637E-004	-1.34916E-002	-1.63114E-002	7.49854E-004	9.77612E-004	-1.55066E-002	1.06590E-003
	43	43	4.99012E-002	-2.40070E-002	0.00000E+000	-1.19798E-003	-2.37505E-001	3.30711E-002	2.87647E+001	11	...........	5.54854E-002	-4.17792E-003	5.53903E-001	6.69808E-001	-3.08032E-002	-4.01818E-002	6.36668E-001	-4.36656E-002	-1.33204E-003	1.00299E-004	-1.32975E-002	-1.60801E-002	7.39491E-004	9.64643E-004	-1.52845E-002	1.04828E-003
	44	44	4.99096E-002	-2.36289E-002	0.00000E+000	-1.17931E-003	-2.33741E-001	3.30122E-002	2.91854E+001	11	...........	5.53797E-002	-4.07319E-003	5.53910E-001	6.69860E-001	-3.08112E-002	-4.01743E-002	6.36655E-001	-4.35451E-002	-1.30856E-003	9.62452E-005	-1.30883E-002	-1.58281E-002	7.28037E-004	9.49275E-004	-1.50435E-002	1.02892E-003
	45	45	4.99064E-002	-2.34750E-002	0.00000E+000	-1.17155E-003	-2.32216E-001	3.30785E-002	2.92652E+001	11	...........	5.54924E-002	-4.11264E-003	5.53892E-001	6.69771E-001	-3.07910E-002	-4.01607E-002	6.36705E-001	-4.35315E-002	-1.30268E-003	9.65440E-005	-1.30026E-002	-1.57229E-002	7.22817E-004	9.42771E-004	-1.49466E-002	1.02190E-003
	46	46	4.99023E-002	-2.31506E-002	0.00000E+000	-1.15527E-003	-2.29001E-001	3.30807E-002	2.95707E+001	11	...........	5.55050E-002	-4.21944E-003	5.54029E-001	6.69850E-001	-3.07781E-002	-4.01303E-002	6.36713E-001	-4.35351E-002	-1.28497E-003	9.76827E-005	-1.28261E-002	-1.55074E-002	7.12531E-004	9.29040E-004	-1.47403E-002	1.00786E-003
	47	47	4.98989E-002	-2.25726E-002	0.00000E+000	-1.12635E-003	-2.23242E-001	3.30275E-002	2.93506E+001	11	...........	5.54346E-002	-4.13250E-003	5.54036E-001	6.70091E-001	-3.08000E-002	-4.01469E-002	6.36645E-001	-4.35049E-002	-1.25130E-003	9.32811E-005	-1.25060E-002	-1.51257E-002	6.95235E-004	9.06219E-004	-1.43707E-002	9.82016E-004
	48	48	4.99125E-002	-2.23799E-002	0.00000E+000	-1.11704E-003	-2.21323E-001	3.31075E-002	2.96622E+001	11	...........	5.55600E-002	-4.08014E-003	5.53995E-001	6.70065E-001	-3.07724E-002	-4.01354E-002	6.36591E-001	-4.36250E-002	-1.24343E-003	9.13130E-005	-1.23983E-002	-1.49960E-002	6.88682E-004	8.98226E-004	-1.42468E-002	9.76322E-004
	49	49	4.98876E-002	-2.20610E-002	0.00000E+000	-1.10057E-003	-2.18159E-001	3.31794E-002	2.90295E+001	11	...........	5.56608E-002	-4.02361E-003	5.53973E-001	6.70006E-001	-3.07581E-002	-4.01156E-002	6.36657E-001	-4.36011E-002	-1.22793E-003	8.87649E-005	-1.22212E-002	-1.47810E-002	6.78554E-004	8.84990E-004	-1.40453E-002	9.61884E-004
	50	50	4.99089E-002	-2.08637E-002	0.00000E+000	-1.04128E-003	-2.06258E-001	3.31393E-002	2.82506E+001	11	...........	5.56018E-002	-4.04681E-003	5.54026E-001	6.69916E-001	-3.08006E-002	-4.01293E-002	6.36793E-001	-4.36572E-002	-1.16006E-003	8.44313E-005	-1.15590E-002	-1.39769E-002	6.42614E-004	8.37246E-004	-1.32859E-002	9.10851E-004
	51	51	4.99203E-002	-2.08886E-002	0.00000E+000	-1.04277E-003	-2.06508E-001	3.30053E-002	2.93226E+001	11	...........	5.53915E-002	-4.12986E-003	5.54051E-001	6.69925E-001	-3.07457E-002	-4.01079E-002	6.36861E-001	-4.36126E-002	-1.15705E-003	8.62671E-005	-1.15734E-002	-1.39938E-002	6.42235E-004	8.37799E-004	-1.33031E-002	9.11008E-004
	52	52	4.98933E-002	-2.12186E-002	0.00000E+000	-1.05866E-003	-2.09781E-001	3.32896E-002	3.00302E+001	11	...........	5.58489E-002	-4.19597E-003	5.54168E-001	6.69968E-001	-3.07246E-002	-4.01119E-002	6.36828E-001	-4.36722E-002	-1.18503E-003	8.90325E-005	-1.17587E-002	-1.42158E-002	6.51932E-004	8.51118E-004	-1.35126E-002	9.26662E-004
	53	53	4.99000E-002	-2.04740E-002	0.00000E+000	-1.02165E-003	-2.02378E-001	3.32187E-002	2.89298E+001	11	...........	5.57250E-002	-4.26917E-003	5.54006E-001	6.69910E-001	-3.07921E-002	-4.01242E-002	6.36741E-001	-4.36506E-002	-1.14091E-003	8.74070E-005	-1.13427E-002	-1.37157E-002	6.30438E-004	8.21503E-004	-1.30366E-002	8.93702E-004
	54	54	4.99178E-002	-2.00987E-002	0.00000E+000	-1.00328E-003	-1.98649E-001	3.31179E-002	2.92241E+001	11	...........	5.55810E-002	-4.20972E-003	5.53959E-001	6.70076E-001	-3.08165E-002	-4.01061E-002	6.36631E-001	-4.36740E-002	-1.11711E-003	8.46100E-005	-1.11339E-002	-1.34677E-002	6.19373E-004	8.06081E-004	-1.27955E-002	8.77792E-004
	55	55	4.99006E-002	-2.01331E-002	0.00000E+000	-1.00466E-003	-1.98990E-001	3.31380E-002	2.96440E+001	11	...........	5.56169E-002	-4.08778E-003	5.53974E-001	6.70122E-001	-3.07993E-002	-4.01158E-002	6.36562E-001	-4.38062E-002	-1.11974E-003	8.22998E-005	-1.11532E-002	-1.34916E-002	6.20086E-004	8.07657E-004	-1.28160E-002	8.81957E-004
	56	56	4.99012E-002	-1.98811E-002	0.00000E+000	-9.92090E-004	-1.96478E-001	3.32240E-002	2.95016E+001	11	...........	5.57696E-002	-4.06903E-003	5.53987E-001	6.70106E-001	-3.08087E-002	-4.00919E-002	6.36641E-001	-4.38235E-002	-1.10876E-003	8.08968E-005	-1.10139E-002	-1.33224E-002	6.12512E-004	7.97072E-004	-1.26571E-002	8.71259E-004
	57	57	4.99004E-002	-1.94748E-002	0.00000E+000	-9.71803E-004	-1.92441E-001	3.32244E-002	2.93916E+001	11	...........	5.57254E-002	-4.09125E-003	5.54142E-001	6.70093E-001	-3.07990E-002	-4.00858E-002	6.36804E-001	-4.38390E-002	-1.08524E-003	7.96764E-005	-1.07918E-002	-1.30500E-002	5.99806E-004	7.80665E-004	-1.24017E-002	8.53758E-004
	58	58	4.99077E-002	-1.91519E-002	0.00000E+000	-9.55829E-004	-1.89241E-001	3.32270E-002	2.94380E+001	11	...........	5.57575E-002	-4.03264E-003	5.54053E-001	6.70126E-001	-3.07661E-002	-4.00512E-002	6.36785E-001	-4.38215E-002	-1.06786E-003	7.72328E-005	-1.06112E-002	-1.28342E-002	5.89230E-004	7.67058E-004	-1.21957E-002	8.39266E-004
	59	59	4.99052E-002	-1.90754E-002	0.00000E+000	-9.51963E-004	-1.88478E-001	3.33255E-002	2.93061E+001	11	...........	5.59193E-002	-4.04292E-003	5.54054E-001	6.70011E-001	-3.08001E-002	-4.00244E-002	6.36821E-001	-4.38453E-002	-1.06669E-003	7.71204E-005	-1.05688E-002	-1.27808E-002	5.87526E-004	7.63484E-004	-1.21476E-002	8.36368E-004
	60	60	4.99057E-002	-1.87782E-002	0.00000E+000	-9.37138E-004	-1.85522E-001	3.32361E-002	3.00353E+001	11	...........	5.57712E-002	-3.95972E-003	5.53936E-001	6.70107E-001	-3.07526E-002	-4.00253E-002	6.36820E-001	-4.38206E-002	-1.04728E-003	7.43563E-005	-1.04019E-002	-1.25834E-002	5.77478E-004	7.51601E-004	-1.19583E-002	8.22870E-004
	61	61	4.99010E-002	-1.83749E-002	0.00000E+000	-9.16926E-004	-1.81516E-001	3.31227E-002	2.88410E+001	11	...........	5.57100E-002	-3.92944E-003	5.53973E-001	6.70149E-001	-3.07789E-002	-4.00201E-002	6.36757E-001	-4.38642E-002	-1.02367E-003	7.22032E-005	-1.01792E-002	-1.23139E-002	5.65559E-004	7.35366E-004	-1.17003E-002	8.06000E-004
	62	62	4.99134E-002	-1.80932E-002	0.00000E+000	-9.03093E-004	-1.78714E-001	3.33093E-002	2.97554E+001	11	...........	5.58581E-002	-4.06014E-003	5.53831E-001	6.70130E-001	-3.07743E-002	-4.00303E-002	6.36616E-001	-4.38711E-002	-1.01065E-003	7.34609E-005	-1.00206E-002	-1.21248E-002	5.56806E-004	7.24276E-004	-1.15184E-002	7.93769E-004
	63	63	4.99004E-002	-1.80828E-002	0.00000E+000	-9.02338E-004	-1.78611E-001	3.33398E-002	2.95871E+001	11	...........	5.59124E-002	-4.18319E-003	5.53902E-001	6.70132E-001	-3.07656E-002	-4.00221E-002	6.36618E-001	-4.39411E-002	-1.01105E-003	7.56438E-005	-1.00161E-002	-1.21179E-002	5.56327E-004	7.23710E-004	-1.15118E-002	7.94577E-004
	64	64	4.99044E-002	-1.77439E-002	0.00000E+000	-8.85500E-004	-1.75239E-001	3.32910E-002	2.97230E+001	11	...........	5.58579E-002	-4.09361E-003	5.53804E-001	6.70131E-001	-3.07597E-002	-3.99968E-002	6.36549E-001	-4.38837E-002	-9.91138E-004	7.26367E-005	-9.82666E-003	-1.18907E-002	5.45798E-004	7.09700E-004	-1.12949E-002	7.78669E-004
	65	65	4.99047E-002	-1.73942E-002	0.00000E+000	-8.68053E-004	-1.71753E-001	3.33505E-002	2.94268E+001	11	...........	5.59347E-002	-4.10931E-003	5.53770E-001	6.70047E-001	-3.08414E-002	-3.99779E-002	6.36596E-001	-4.40489E-002	-9.72941E-004	7.14782E-005	-9.63240E-003	-1.16550E-002	5.36462E-004	6.95385E-004	-1.10731E-002	7.66196E-004
	66	66	4.99030E-002	-1.71190E-002	0.00000E+000	-8.54289E-004	-1.69019E-001	3.32652E-002	2.98665E+001	11	...........	5.58000E-002	-4.07653E-003	5.53838E-001	6.70208E-001	-3.08457E-002	-3.99890E-002	6.36697E-001	-4.39108E-002	-9.55239E-004	6.97860E-005	-9.48115E-003	-1.14733E-002	5.28047E-004	6.84571E-004	-1.08996E-002	7.51708E-004
	67	67	4.99032E-002	-1.70598E-002	0.00000E+000	-8.51337E-004	-1.68423E-001	3.34210E-002	2.96581E+001	11	...........	5.60700E-002	-4.05444E-003	5.53878E-001	6.70018E-001	-3.08824E-002	-4.00379E-002	6.36732E-001	-4.39457E-002	-9.56540E-004	6.91678E-005	-9.44902E-003	-1.14303E-002	5.26845E-004	6.83037E-004	-1.08625E-002	7.49703E-004
	68	68	4.99067E-002	-1.66451E-002	0.00000E+000	-8.30705E-004	-1.64298E-001	3.32753E-002	2.96686E+001	11	...........	5.58293E-002	-3.99986E-003	5.53870E-001	6.70087E-001	-3.09353E-002	-4.00742E-002	6.36644E-001	-4.38012E-002	-9.29287E-004	6.65783E-005	-9.21924E-003	-1.11537E-002	5.14922E-004	6.67040E-004	-1.05970E-002	7.29078E-004
	69	69	4.99066E-002	-1.64017E-002	0.00000E+000	-8.18550E-004	-1.61882E-001	3.32872E-002	2.96375E+001	11	...........	5.58499E-002	-4.01958E-003	5.53882E-001	6.70222E-001	-3.09257E-002	-4.00507E-002	6.36567E-001	-4.37661E-002	-9.16030E-004	6.59278E-005	-9.08458E-003	-1.09928E-002	5.07233E-004	6.56898E-004	-1.04408E-002	7.17837E-004
	70	70	4.99052E-002	-1.63049E-002	0.00000E+000	-8.13698E-004	-1.60915E-001	3.33751E-002	2.98768E+001	11	...........	5.60174E-002	-4.04972E-003	5.53988E-001	6.70232E-001	-3.09236E-002	-4.00667E-002	6.36624E-001	-4.37679E-002	-9.13355E-004	6.60301E-005	-9.03270E-003	-1.09280E-002	5.04205E-004	6.53281E-004	-1.03801E-002	7.13629E-004
	71	71	4.99043E-002	-1.60341E-002	0.00000E+000	-8.00170E-004	-1.58215E-001	3.33677E-002	2.96195E+001	11	...........	5.59817E-002	-4.06417E-003	5.54040E-001	6.70215E-001	-3.09635E-002	-4.00842E-002	6.36676E-001	-4.36904E-002	-8.97615E-004	6.51652E-005	-8.88352E-003	-1.07463E-002	4.96471E-004	6.42713E-004	-1.02085E-002	7.00536E-004
	72	72	4.99051E-002	-1.54842E-002	0.00000E+000	-7.72739E-004	-1.52750E-001	3.32812E-002	2.94370E+001	11	...........	5.58629E-002	-4.02208E-003	5.54067E-001	6.70245E-001	-3.09843E-002	-4.00811E-002	6.36790E-001	-4.36969E-002	-8.64991E-004	6.22786E-005	-8.57927E-003	-1.03782E-002	4.79766E-004	6.20623E-004	-9.86017E-003	6.76611E-004
	73	73	4.99080E-002	-1.55225E-002	0.00000E+000	-7.74696E-004	-1.53133E-001	3.34113E-002	2.95831E+001	11	...........	5.60554E-002	-4.04181E-003	5.54114E-001	6.70147E-001	-3.09819E-002	-4.00550E-002	6.36805E-001	-4.37285E-002	-8.70119E-004	6.27389E-005	-8.60122E-003	-1.04023E-002	4.80917E-004	6.21753E-004	-9.88479E-003	6.78774E-004
	74	74	4.99079E-002	-1.54821E-002	0.00000E+000	-7.72677E-004	-1.52728E-001	3.34387E-002	2.96312E+001	11	...........	5.61297E-002	-4.12486E-003	5.53980E-001	6.70079E-001	-3.09672E-002	-4.00615E-002	6.36862E-001	-4.37764E-002	-8.69003E-004	6.38613E-005	-8.57674E-003	-1.03742E-002	4.79436E-004	6.20235E-004	-9.85993E-003	6.77748E-004
	75	75	4.99033E-002	-1.50278E-002	0.00000E+000	-7.49939E-004	-1.48208E-001	3.34133E-002	3.01778E+001	11	...........	5.60592E-002	-4.08958E-003	5.53941E-001	6.70074E-001	-3.09394E-002	-4.00850E-002	6.36959E-001	-4.38039E-002	-8.42449E-004	6.14576E-005	-8.32453E-003	-1.00698E-002	4.64953E-004	6.02391E-004	-9.57212E-003	6.58278E-004
	76	76	4.98994E-002	-1.49091E-002	0.00000E+000	-7.43955E-004	-1.47031E-001	3.33938E-002	2.94741E+001	11	...........	5.60458E-002	-3.98056E-003	5.53886E-001	6.69984E-001	-3.09087E-002	-4.00575E-002	6.36944E-001	-4.37299E-002	-8.35592E-004	5.93465E-005	-8.25793E-003	-9.98885E-003	4.60821E-004	5.97221E-004	-9.49626E-003	6.51972E-004
	77	77	4.99092E-002	-1.47534E-002	0.00000E+000	-7.36328E-004	-1.45478E-001	3.34236E-002	2.94667E+001	11	...........	5.61007E-002	-3.98972E-003	5.53814E-001	6.70046E-001	-3.09086E-002	-4.00387E-002	6.36961E-001	-4.36946E-002	-8.27674E-004	5.88618E-005	-8.17062E-003	-9.88543E-003	4.56006E-004	5.90706E-004	-9.39731E-003	6.44642E-004
	78	78	4.99104E-002	-1.46040E-002	0.00000E+000	-7.28892E-004	-1.43992E-001	3.34512E-002	2.98551E+001	11	...........	5.61022E-002	-4.01694E-003	5.53729E-001	6.69993E-001	-3.09132E-002	-4.00710E-002	6.36926E-001	-4.35506E-002	-8.19318E-004	5.86636E-005	-8.08667E-003	-9.78460E-003	4.51457E-004	5.85198E-004	-9.30169E-003	6.36014E-004
	79	79	4.99052E-002	-1.45224E-002	0.00000E+000	-7.24741E-004	-1.43184E-001	3.33952E-002	2.98921E+001	11	...........	5.60318E-002	-4.02042E-003	5.53738E-001	6.70020E-001	-3.09047E-002	-4.00747E-002	6.36830E-001	-4.36239E-002	-8.13714E-004	5.83859E-005	-8.04158E-003	-9.73026E-003	4.48809E-004	5.81979E-004	-9.24827E-003	6.33521E-004
	80	80	4.99025E-002	-1.41556E-002	0.00000E+000	-7.06399E-004	-1.39541E-001	3.35087E-002	2.97443E+001	11	...........	5.62376E-002	-3.97139E-003	5.53677E-001	6.70039E-001	-3.08942E-002	-4.00883E-002	6.36827E-001	-4.36807E-002	-7.96076E-004	5.62173E-005	-7.83762E-003	-9.48479E-003	4.37325E-004	5.67474E-004	-9.01466E-003	6.18326E-004
	81	81	4.99066E-002	-1.38937E-002	0.00000E+000	-6.93387E-004	-1.36936E-001	3.33513E-002	2.96836E+001	11	...........	5.59997E-002	-4.02056E-003	5.53663E-001	6.70033E-001	-3.09472E-002	-4.01028E-002	6.36748E-001	-4.35612E-002	-7.78042E-004	5.58603E-005	-7.69242E-003	-9.30922E-003	4.29971E-004	5.57175E-004	-8.84677E-003	6.05226E-004
	82	82	4.99037E-002	-1.35418E-002	0.00000E+000	-6.75785E-004	-1.33430E-001	3.34846E-002	2.93327E+001	11	...........	5.61875E-002	-4.01972E-003	5.53499E-001	6.70036E-001	-3.09397E-002	-4.01685E-002	6.36817E-001	-4.35182E-002	-7.60879E-004	5.44342E-005	-7.49537E-003	-9.07348E-003	4.18979E-004	5.43953E-004	-8.62364E-003	5.89314E-004
	83	83	4.99033E-002	-1.35277E-002	0.00000E+000	-6.75075E-004	-1.33291E-001	3.34443E-002	2.98624E+001	11	...........	5.61262E-002	-4.04972E-003	5.53469E-001	6.69927E-001	-3.08956E-002	-4.01526E-002	6.36722E-001	-4.35218E-002	-7.59257E-004	5.47833E-005	-7.48714E-003	-9.06255E-003	4.17945E-004	5.43171E-004	-8.61336E-003	5.88748E-004
	84	84	4.99114E-002	-1.35288E-002	0.00000E+000	-6.75240E-004	-1.33302E-001	3.35942E-002	2.99162E+001	11	...........	5.63800E-002	-4.13500E-003	5.53524E-001	6.69972E-001	-3.08533E-002	-4.01228E-002	6.36810E-001	-4.36372E-002	-7.62752E-004	5.59415E-005	-7.48850E-003	-9.06390E-003	4.17408E-004	5.42812E-004	-8.61526E-003	5.90358E-004
	85	85	4.99021E-002	-1.32921E-002	0.00000E+000	-6.63304E-004	-1.30945E-001	3.34290E-002	2.98863E+001	11	...........	5.61018E-002	-4.14764E-003	5.53280E-001	6.69919E-001	-3.08367E-002	-4.01306E-002	6.36987E-001	-4.37286E-002	-7.45711E-004	5.51308E-005	-7.35425E-003	-8.90463E-003	4.09884E-004	5.33419E-004	-8.46689E-003	5.81245E-004
	86	86	4.99107E-002	-1.31015E-002	0.00000E+000	-6.53907E-004	-1.29060E-001	3.35342E-002	3.00532E+001	11	...........	5.62585E-002	-4.02500E-003	5.53184E-001	6.69911E-001	-3.08428E-002	-4.01183E-002	6.36835E-001	-4.36018E-002	-7.37072E-004	5.27337E-005	-7.24757E-003	-8.77686E-003	4.04088E-004	5.25612E-004	-8.34352E-003	5.71251E-004
	87	87	4.98998E-002	-1.29279E-002	0.00000E+000	-6.45099E-004	-1.27344E-001	3.35649E-002	2.98322E+001	11	...........	5.62994E-002	-4.10403E-003	5.53342E-001	6.69942E-001	-3.08136E-002	-4.00639E-002	6.36876E-001	-4.35497E-002	-7.27832E-004	5.30564E-005	-7.15354E-003	-8.66093E-003	3.98355E-004	5.17941E-004	-8.23346E-003	5.63006E-004
	88	88	4.99106E-002	-1.26801E-002	0.00000E+000	-6.32870E-004	-1.24876E-001	3.34473E-002	3.00562E+001	11	...........	5.61369E-002	-4.05889E-003	5.53457E-001	6.70048E-001	-3.08086E-002	-4.00590E-002	6.36864E-001	-4.36321E-002	-7.11821E-004	5.14671E-005	-7.01788E-003	-8.49627E-003	3.90656E-004	5.07952E-004	-8.07550E-003	5.53259E-004
	89	89	4.99062E-002	-1.26613E-002	0.00000E+000	-6.31876E-004	-1.24686E-001	3.35703E-002	3.00654E+001	11	...........	5.63494E-002	-4.09569E-003	5.53468E-001	6.70091E-001	-3.08525E-002	-4.00762E-002	6.36672E-001	-4.36496E-002	-7.13455E-004	5.18566E-005	-7.00761E-003	-8.48419E-003	3.90631E-004	5.07416E-004	-8.06107E-003	5.52659E-004
	90	90	4.99061E-002	-1.24693E-002	0.00000E+000	-6.22296E-004	-1.22774E-001	3.35980E-002	3.01061E+001	11	...........	5.63574E-002	-4.17819E-003	5.53316E-001	6.70002E-001	-3.08710E-002	-4.01336E-002	6.36624E-001	-4.35858E-002	-7.02738E-004	5.20993E-005	-6.89947E-003	-8.35448E-003	3.84940E-004	5.00439E-004	-7.93827E-003	5.43486E-004
	91	91	4.99040E-002	-1.21198E-002	0.00000E+000	-6.04827E-004	-1.19297E-001	3.35081E-002	3.00595E+001	11	...........	5.62085E-002	-4.13653E-003	5.53208E-001	6.70122E-001	-3.08439E-002	-4.01072E-002	6.36630E-001	-4.38169E-002	-6.81235E-004	5.01339E-005	-6.70477E-003	-8.12174E-003	3.73822E-004	4.86091E-004	-7.71583E-003	5.31052E-004
	92	92	4.99074E-002	-1.20320E-002	0.00000E+000	-6.00486E-004	-1.18414E-001	3.35012E-002	3.00098E+001	11	...........	5.62204E-002	-4.02000E-003	5.53184E-001	6.70111E-001	-3.08750E-002	-4.01462E-002	6.36704E-001	-4.38472E-002	-6.76444E-004	4.83687E-005	-6.65592E-003	-8.06277E-003	3.71488E-004	4.83040E-004	-7.66082E-003	5.27570E-004
	93	93	4.99083E-002	-1.20928E-002	0.00000E+000	-6.03531E-004	-1.19024E-001	3.37143E-002	3.04473E+001	11	...........	5.65679E-002	-4.01569E-003	5.53210E-001	6.70063E-001	-3.08710E-002	-4.01401E-002	6.36805E-001	-4.38886E-002	-6.84064E-004	4.85610E-005	-6.68986E-003	-8.10294E-003	3.73316E-004	4.85407E-004	-7.70075E-003	5.30736E-004
	94	94	4.99012E-002	-1.18221E-002	0.00000E+000	-5.89939E-004	-1.16336E-001	3.35156E-002	3.02989E+001	11	...........	5.62615E-002	-3.95486E-003	5.53299E-001	6.70046E-001	-3.08239E-002	-4.01106E-002	6.36904E-001	-4.37754E-002	-6.65132E-004	4.67549E-005	-6.54117E-003	-7.92138E-003	3.64404E-004	4.74193E-004	-7.52957E-003	5.17519E-004
	95	95	4.99073E-002	-1.15658E-002	0.00000E+000	-5.77217E-004	-1.13786E-001	3.35487E-002	2.98274E+001	11	...........	5.62860E-002	-4.05986E-003	5.53217E-001	6.70123E-001	-3.08492E-002	-4.01485E-002	6.36797E-001	-4.37863E-002	-6.50991E-004	4.69555E-005	-6.39838E-003	-7.75049E-003	3.56795E-004	4.64348E-004	-7.36505E-003	5.06422E-004
	96	96	4.99084E-002	-1.15186E-002	0.00000E+000	-5.74874E-004	-1.13323E-001	3.36467E-002	3.03794E+001	11	...........	5.64871E-002	-4.08333E-003	5.53205E-001	6.70156E-001	-3.07967E-002	-4.01024E-002	6.36845E-001	-4.37047E-002	-6.50651E-004	4.70342E-005	-6.37213E-003	-7.71924E-003	3.54734E-004	4.61922E-004	-7.33554E-003	5.03416E-004
	97	97	4.99010E-002	-1.14277E-002	0.00000E+000	-5.70252E-004	-1.12418E-001	3.36425E-002	3.03878E+001	11	...........	5.64639E-002	-4.05597E-003	5.53221E-001	6.70146E-001	-3.07842E-002	-4.01421E-002	6.36839E-001	-4.37306E-002	-6.45250E-004	4.63503E-005	-6.32202E-003	-7.65820E-003	3.51791E-004	4.58730E-004	-7.27758E-003	4.99738E-004
	98	98	4.99073E-002	-1.11747E-002	0.00000E+000	-5.57701E-004	-1.09898E-001	3.35861E-002	2.97651E+001	11	...........	5.63712E-002	-4.10694E-003	5.53405E-001	6.69983E-001	-3.08386E-002	-4.01712E-002	6.36813E-001	-4.37706E-002	-6.29934E-004	4.58940E-005	-6.18415E-003	-7.48688E-003	3.44613E-004	4.48903E-004	-7.11622E-003	4.89124E-004
	99	99	4.99087E-002	-1.10261E-002	0.00000E+000	-5.50297E-004	-1.08420E-001	3.36155E-002	3.03451E+001	11	...........	5.63992E-002	-4.11000E-003	5.53446E-001	6.69846E-001	-3.08319E-002	-4.01233E-002	6.36825E-001	-4.36879E-002	-6.21862E-004	4.53172E-005	-6.10234E-003	-7.38578E-003	3.39956E-004	4.42403E-004	-7.02169E-003	4.81707E-004
	100	100	4.99048E-002	-1.08914E-002	0.00000E+000	-5.43535E-004	-1.07079E-001	3.35621E-002	2.98569E+001	11	...........	5.63085E-002	-4.01014E-003	5.53508E-001	6.69903E-001	-3.07800E-002	-4.01065E-002	6.36935E-001	-4.37906E-002	-6.13280E-004	4.36762E-005	-6.02850E-003	-7.29621E-003	3.35238E-004	4.36818E-004	-6.93714E-003	4.76942E-004
	101	101	4.99096E-002	-1.08003E-002	0.00000E+000	-5.39039E-004	-1.06179E-001	3.36810E-002	3.04045E+001	11	...........	5.65101E-002	-4.11472E-003	5.53562E-001	6.69771E-001	-3.07603E-002	-4.00506E-002	6.36855E-001	-4.36368E-002	-6.10328E-004	4.44403E-005	-5.97865E-003	-7.23374E-003	3.32221E-004	4.32559E-004	-6.87824E-003	4.71292E-004
	102	102	4.99076E-002	-1.06996E-002	0.00000E+000	-5.33990E-004	-1.05173E-001	3.36957E-002	3.04370E+001	11	...........	5.65412E-002	-4.10278E-003	5.53519E-001	6.69596E-001	-3.07781E-002	-4.00779E-002	6.36812E-001	-4.36299E-002	-6.04967E-004	4.38979E-005	-5.92242E-003	-7.16439E-003	3.29312E-004	4.28816E-004	-6.81361E-003	4.66821E-004
	103	103	4.99041E-002	-1.05599E-002	0.00000E+000	-5.26981E-004	-1.03778E-001	3.36327E-002	3.02337E+001	11	...........	5.64264E-002	-4.03319E-003	5.53600E-001	6.69683E-001	-3.07978E-002	-4.01122E-002	6.36831E-001	-4.37235E-002	-5.95856E-004	4.25900E-005	-5.84595E-003	-7.07177E-003	3.25221E-004	4.23580E-004	-6.72485E-003	4.61715E-004
	104	104	4.99087E-002	-1.04263E-002	0.00000E+000	-5.20365E-004	-1.02480E-001	3.36490E-002	3.08442E+001	11	...........	5.64515E-002	-4.06472E-003	5.53716E-001	6.69677E-001	-3.08165E-002	-4.00819E-002	6.36876E-001	-4.37246E-002	-5.88583E-004	4.23802E-005	-5.77323E-003	-6.98228E-003	3.21303E-004	4.17908E-004	-6.64028E-003	4.55887E-004
	105	105	4.99047E-002	-1.03476E-002	0.00000E+000	-5.16393E-004	-1.01694E-001	3.37037E-002	2.99883E+001	11	...........	5.65410E-002	-4.13972E-003	5.53693E-001	6.69725E-001	-3.08114E-002	-4.00828E-002	6.36776E-001	-4.36374E-002	-5.85063E-004	4.28362E-005	-5.72939E-003	-6.93005E-003	3.18824E-004	4.14760E-004	-6.58910E-003	4.51542E-004
	106	106	4.99090E-002	-1.01416E-002	0.00000E+000	-5.06159E-004	-9.96643E-002	3.35785E-002	3.04771E+001	11	...........	5.63408E-002	-4.07625E-003	5.53724E-001	6.69702E-001	-3.08421E-002	-4.00974E-002	6.36836E-001	-4.36456E-002	-5.71389E-004	4.13399E-005	-5.61568E-003	-6.79188E-003	3.12790E-004	4.06653E-004	-6.45857E-003	4.42638E-004
	107	107	4.99045E-002	-1.01428E-002	0.00000E+000	-5.06170E-004	-9.96673E-002	3.37612E-002	3.11012E+001	11	...........	5.66461E-002	-4.18639E-003	5.53714E-001	6.69651E-001	-3.08893E-002	-4.01299E-002	6.36889E-001	-4.39082E-002	-5.74548E-004	4.24616E-005	-5.61620E-003	-6.79212E-003	3.13303E-004	4.07028E-004	-6.45982E-003	4.45351E-004
	108	108	4.99064E-002	-9.92108E-003	0.00000E+000	-4.95126E-004	-9.74617E-002	3.35710E-002	3.03938E+001	11	...........	5.63404E-002	-4.13931E-003	5.53659E-001	6.69724E-001	-3.08993E-002	-4.01354E-002	6.36791E-001	-4.39349E-002	-5.58958E-004	4.10664E-005	-5.49290E-003	-6.64439E-003	3.06554E-004	3.98187E-004	-6.31766E-003	4.35881E-004
	109	109	4.99085E-002	-9.82279E-003	0.00000E+000	-4.90241E-004	-9.64873E-002	3.36302E-002	3.03585E+001	11	...........	5.64581E-002	-4.13875E-003	5.53637E-001	6.69887E-001	-3.09047E-002	-4.01603E-002	6.36858E-001	-4.40081E-002	-5.54575E-004	4.06541E-005	-5.43825E-003	-6.58016E-003	3.03571E-004	3.94486E-004	-6.25572E-003	4.32282E-004
	110	110	4.99040E-002	-9.68518E-003	0.00000E+000	-4.83329E-004	-9.51110E-002	3.36693E-002	3.08102E+001	11	...........	5.65239E-002	-4.05125E-003	5.53523E-001	6.69929E-001	-3.09360E-002	-4.01912E-002	6.36765E-001	-4.38596E-002	-5.47444E-004	3.92371E-005	-5.36097E-003	-6.48838E-003	2.99620E-004	3.89259E-004	-6.16718E-003	4.24788E-004
	111	111	4.99069E-002	-9.58225E-003	0.00000E+000	-4.78220E-004	-9.40930E-002	3.37900E-002	3.04219E+001	11	...........	5.66921E-002	-4.06583E-003	5.53460E-001	6.70017E-001	-3.08681E-002	-4.01304E-002	6.36726E-001	-4.38150E-002	-5.43238E-004	3.89598E-005	-5.30339E-003	-6.42027E-003	2.95785E-004	3.84540E-004	-6.10127E-003	4.19846E-004
	112	112	4.99071E-002	-9.44411E-003	0.00000E+000	-4.71329E-004	-9.27157E-002	3.37349E-002	3.04939E+001	11	...........	5.65939E-002	-4.05736E-003	5.53486E-001	6.70047E-001	-3.08561E-002	-4.01215E-002	6.36829E-001	-4.37182E-002	-5.34479E-004	3.83182E-005	-5.22718E-003	-6.32799E-003	2.91408E-004	3.78912E-004	-6.01429E-003	4.12879E-004
	113	113	4.99061E-002	-9.32893E-003	0.00000E+000	-4.65571E-004	-9.15693E-002	3.36502E-002	3.03670E+001	11	...........	5.64612E-002	-3.97944E-003	5.53622E-001	6.70063E-001	-3.08433E-002	-4.01028E-002	6.36819E-001	-4.38100E-002	-5.26723E-004	3.71240E-005	-5.16470E-003	-6.25097E-003	2.87735E-004	3.74116E-004	-5.94084E-003	4.08700E-004
	114	114	4.99074E-002	-9.12887E-003	0.00000E+000	-4.55598E-004	-8.95830E-002	3.36909E-002	2.99458E+001	11	...........	5.65307E-002	-3.98292E-003	5.53569E-001	6.70141E-001	-3.08524E-002	-4.00974E-002	6.36809E-001	-4.37425E-002	-5.16062E-004	3.63595E-005	-5.05346E-003	-6.11763E-003	2.81647E-004	3.66044E-004	-5.81335E-003	3.99320E-004
	115	115	4.99090E-002	-9.06878E-003	0.00000E+000	-4.52614E-004	-8.89803E-002	3.36809E-002	3.02087E+001	11	...........	5.65211E-002	-4.11056E-003	5.53363E-001	6.70073E-001	-3.08408E-002	-4.01389E-002	6.36790E-001	-4.36693E-002	-5.12578E-004	3.72777E-005	-5.01833E-003	-6.07675E-003	2.79689E-004	3.64011E-004	-5.77491E-003	3.96027E-004
	116	116	4.99047E-002	-9.07326E-003	0.00000E+000	-4.52798E-004	-8.90240E-002	3.38381E-002	3.08578E+001	11	...........	5.67750E-002	-4.11222E-003	5.53269E-001	6.69860E-001	-3.08500E-002	-4.01319E-002	6.36908E-001	-4.36939E-002	-5.15134E-004	3.73112E-005	-5.01995E-003	-6.07781E-003	2.79910E-004	3.64127E-004	-5.77883E-003	3.96446E-004
	117	117	4.99053E-002	-8.81710E-003	0.00000E+000	-4.40019E-004	-8.64813E-002	3.38177E-002	3.03534E+001	11	...........	5.67264E-002	-4.06000E-003	5.53191E-001	6.69710E-001	-3.08704E-002	-4.01422E-002	6.36979E-001	-4.37679E-002	-5.00162E-004	3.57974E-005	-4.87754E-003	-5.90490E-003	2.72187E-004	3.53938E-004	-5.61630E-003	3.85906E-004
	118	118	4.99091E-002	-8.80384E-003	0.00000E+000	-4.39392E-004	-8.63537E-002	3.36821E-002	3.00934E+001	11	...........	5.65221E-002	-4.05833E-003	5.53368E-001	6.69767E-001	-3.08325E-002	-4.01449E-002	6.37055E-001	-4.37565E-002	-4.97611E-004	3.57289E-005	-4.87176E-003	-5.89652E-003	2.71444E-004	3.53429E-004	-5.60853E-003	3.85225E-004
	119	119	4.99085E-002	-8.77964E-003	0.00000E+000	-4.38179E-004	-8.61080E-002	3.37900E-002	3.07438E+001	11	...........	5.66912E-002	-4.08639E-003	5.53344E-001	6.69763E-001	-3.08507E-002	-4.01661E-002	6.37083E-001	-4.38792E-002	-4.97729E-004	3.58770E-005	-4.85816E-003	-5.88028E-003	2.70858E-004	3.52644E-004	-5.59336E-003	3.85243E-004
	120	120	4.99037E-002	-8.68383E-003	0.00000E+000	-4.33355E-004	-8.51573E-002	3.37582E-002	3.06644E+001	11	...........	5.66383E-002	-3.97750E-003	5.53478E-001	6.69722E-001	-3.08160E-002	-4.01229E-002	6.37025E-001	-4.37932E-002	-4.91838E-004	3.45399E-005	-4.80631E-003	-5.81575E-003	2.67601E-004	3.48420E-004	-5.53182E-003	3.80293E-004
	121	121	4.99087E-002	-8.44885E-003	0.00000E+000	-4.21671E-004	-8.28170E-002	3.37951E-002	3.00823E+001	11	...........	5.66626E-002	-3.98819E-003	5.53504E-001	6.69584E-001	-3.08103E-002	-4.00961E-002	6.37043E-001	-4.36671E-002	-4.78734E-004	3.36957E-005	-4.67647E-003	-5.65721E-003	2.60311E-004	3.38766E-004	-5.38228E-003	3.68937E-004
	122	122	4.99085E-002	-8.46834E-003	0.00000E+000	-4.22642E-004	-8.30080E-002	3.37644E-002	3.10213E+001	11	...........	5.66517E-002	-4.04194E-003	5.53741E-001	6.69674E-001	-3.08326E-002	-4.01032E-002	6.36836E-001	-4.36622E-002	-4.79745E-004	3.42285E-005	-4.68927E-003	-5.67102E-003	2.61101E-004	3.39607E-004	-5.39294E-003	3.69746E-004
	123	123	4.99040E-002	-8.43530E-003	0.00000E+000	-4.20955E-004	-8.26823E-002	3.37928E-002	3.09362E+001	11	...........	5.67072E-002	-4.12569E-003	5.53700E-001	6.69815E-001	-3.07686E-002	-4.00862E-002	6.36942E-001	-4.38283E-002	-4.78342E-004	3.48015E-005	-4.67062E-003	-5.65009E-003	2.59542E-004	3.38139E-004	-5.37279E-003	3.69705E-004
	124	124	4.99075E-002	-8.23855E-003	0.00000E+000	-4.11165E-004	-8.07243E-002	3.37074E-002	3.04673E+001	11	...........	5.65714E-002	-4.07042E-003	5.53696E-001	6.69736E-001	-3.07861E-002	-4.00637E-002	6.36842E-001	-4.38299E-002	-4.66066E-004	3.35343E-005	-4.56166E-003	-5.51766E-003	2.53633E-004	3.30067E-004	-5.24665E-003	3.61095E-004
	125	125	4.99066E-002	-8.23545E-003	0.00000E+000	-4.11003E-004	-8.06913E-002	3.38899E-002	3.04799E+001	11	...........	5.68751E-002	-4.03125E-003	5.53467E-001	6.69834E-001	-3.08081E-002	-4.01421E-002	6.36936E-001	-4.39087E-002	-4.68392E-004	3.31992E-005	-4.55805E-003	-5.51639E-003	2.53718E-004	3.30588E-004	-5.24545E-003	3.61608E-004
	126	126	4.99081E-002	-8.14430E-003	0.00000E+000	-4.06466E-004	-7.97813E-002	3.36198E-002	3.04906E+001	11	...........	5.64037E-002	-4.03903E-003	5.53256E-001	6.69725E-001	-3.08010E-002	-4.01104E-002	6.36912E-001	-4.37658E-002	-4.59369E-004	3.28951E-005	-4.50589E-003	-5.45444E-003	2.50852E-004	3.26671E-004	-5.18720E-003	3.56442E-004
	127	127	4.99071E-002	-8.04361E-003	0.00000E+000	-4.01433E-004	-7.87830E-002	3.38136E-002	3.12057E+001	11	...........	5.67415E-002	-4.02694E-003	5.53268E-001	6.69853E-001	-3.07742E-002	-4.00993E-002	6.37011E-001	-4.36624E-002	-4.56406E-004	3.23912E-005	-4.45027E-003	-5.38803E-003	2.47535E-004	3.22543E-004	-5.12386E-003	3.51203E-004
	128	128	4.99023E-002	-7.87083E-003	0.00000E+000	-3.92773E-004	-7.70660E-002	3.37877E-002	3.02593E+001	11	...........	5.66965E-002	-4.02597E-003	5.53085E-001	6.70064E-001	-3.08094E-002	-4.01240E-002	6.36820E-001	-4.38083E-002	-4.46249E-004	3.16877E-005	-4.35324E-003	-5.27396E-003	2.42496E-004	3.15809E-004	-5.01230E-003	3.44808E-004
	129	129	4.99098E-002	-7.72338E-003	0.00000E+000	-3.85473E-004	-7.56133E-002	3.36959E-002	2.95877E+001	11	...........	5.65464E-002	-4.04153E-003	5.53081E-001	6.70108E-001	-3.08169E-002	-4.01412E-002	6.36771E-001	-4.39085E-002	-4.36729E-004	3.12143E-005	-4.27165E-003	-5.17550E-003	2.38011E-004	3.10026E-004	-4.91803E-003	3.39122E-004
	130	130	4.99086E-002	-7.74462E-003	0.00000E+000	-3.86523E-004	-7.58290E-002	3.38837E-002	3.07904E+001	11	...........	5.68454E-002	-4.20056E-003	5.53105E-001	6.70078E-001	-3.08240E-002	-4.01426E-002	6.36863E-001	-4.38362E-002	-4.40246E-004	3.25317E-005	-4.28359E-003	-5.18950E-003	2.38720E-004	3.10890E-004	-4.93227E-003	3.39495E-004
	131	131	4.99072E-002	-7.63596E-003	0.00000E+000	-3.81089E-004	-7.47430E-002	3.38111E-002	3.08369E+001	11	...........	5.67383E-002	-4.19139E-003	5.53087E-001	6.70108E-001	-3.08200E-002	-4.01094E-002	6.36945E-001	-4.37349E-002	-4.33251E-004	3.20053E-005	-4.22335E-003	-5.11692E-003	2.35340E-004	3.06274E-004	-4.86369E-003	3.33957E-004
	132	132	4.99052E-002	-7.57808E-003	0.00000E+000	-3.78186E-004	-7.41587E-002	3.37322E-002	3.02787E+001	11	...........	5.66079E-002	-4.12250E-003	5.53096E-001	6.70232E-001	-3.08218E-002	-4.01339E-002	6.36924E-001	-4.37494E-002	-4.28980E-004	3.12406E-005	-4.19141E-003	-5.07907E-003	2.33570E-004	3.04138E-004	-4.82667E-003	3.31537E-004
	133	133	4.99091E-002	-7.53231E-003	0.00000E+000	-3.75931E-004	-7.37033E-002	3.39030E-002	3.06622E+001	11	...........	5.69185E-002	-4.00514E-003	5.53222E-001	6.70390E-001	-3.07918E-002	-4.01231E-002	6.36877E-001	-4.37083E-002	-4.28728E-004	3.01679E-005	-4.16704E-003	-5.04959E-003	2.31933E-004	3.02219E-004	-4.79716E-003	3.29225E-004
	134	134	4.99080E-002	-7.44591E-003	0.00000E+000	-3.71610E-004	-7.28407E-002	3.37364E-002	3.09411E+001	11	...........	5.66167E-002	-3.98611E-003	5.53385E-001	6.70449E-001	-3.08000E-002	-4.01271E-002	6.36905E-001	-4.37469E-002	-4.21562E-004	2.96802E-005	-4.12046E-003	-4.99210E-003	2.29334E-004	2.98782E-004	-4.74234E-003	3.25736E-004
	135	135	4.99037E-002	-7.31529E-003	0.00000E+000	-3.65060E-004	-7.15460E-002	3.38587E-002	3.00412E+001	11	...........	5.68269E-002	-3.97361E-003	5.53597E-001	6.70564E-001	-3.07893E-002	-4.01300E-002	6.36991E-001	-4.36701E-002	-4.15706E-004	2.90681E-005	-4.04972E-003	-4.90537E-003	2.25233E-004	2.93563E-004	-4.65977E-003	3.19460E-004
	136	136	4.99093E-002	-7.26163E-003	0.00000E+000	-3.62423E-004	-7.10123E-002	3.38417E-002	3.08307E+001	11	...........	5.67956E-002	-3.96639E-003	5.53571E-001	6.70541E-001	-3.07722E-002	-4.01265E-002	6.36909E-001	-4.35914E-002	-4.12428E-004	2.88025E-005	-4.01983E-003	-4.86922E-003	2.23457E-004	2.91384E-004	-4.62500E-003	3.16545E-004
	137	137	4.99064E-002	-7.22276E-003	0.00000E+000	-3.60462E-004	-7.06247E-002	3.38353E-002	3.07612E+001	11	...........	5.67665E-002	-3.96542E-003	5.53575E-001	6.70532E-001	-3.08151E-002	-4.00869E-002	6.36938E-001	-4.36367E-002	-4.10011E-004	2.86412E-005	-3.99834E-003	-4.84309E-003	2.22570E-004	2.89538E-004	-4.60045E-003	3.15177E-004
	138	138	4.99074E-002	-7.13786E-003	0.00000E+000	-3.56232E-004	-6.97793E-002	3.39357E-002	3.05682E+001	11	...........	5.69254E-002	-4.08875E-003	5.53504E-001	6.70626E-001	-3.08111E-002	-4.00757E-002	6.36854E-001	-4.36601E-002	-4.06326E-004	2.91849E-005	-3.95084E-003	-4.78684E-003	2.19925E-004	2.86055E-004	-4.54577E-003	3.11640E-004
	139	139	4.99095E-002	-7.02438E-003	0.00000E+000	-3.50583E-004	-6.86477E-002	3.37397E-002	3.08283E+001	11	...........	5.66031E-002	-4.07903E-003	5.53416E-001	6.70733E-001	-3.08346E-002	-4.01029E-002	6.36878E-001	-4.36951E-002	-3.97601E-004	2.86526E-005	-3.88740E-003	-4.71148E-003	2.16594E-004	2.81698E-004	-4.47367E-003	3.06931E-004
	140	140	4.99057E-002	-7.05182E-003	0.00000E+000	-3.51926E-004	-6.89270E-002	3.40105E-002	3.09416E+001	11	...........	5.70612E-002	-4.08139E-003	5.53305E-001	6.70705E-001	-3.08194E-002	-4.00757E-002	6.36987E-001	-4.37187E-002	-4.02386E-004	2.87812E-005	-3.90181E-003	-4.72969E-003	2.17333E-004	2.82607E-004	-4.49192E-003	3.08297E-004
	141	141	4.99075E-002	-6.95616E-003	0.00000E+000	-3.47165E-004	-6.79690E-002	3.38364E-002	3.04934E+001	11	...........	5.67732E-002	-4.06194E-003	5.53218E-001	6.70595E-001	-3.08703E-002	-4.01135E-002	6.37025E-001	-4.37861E-002	-3.94924E-004	2.82555E-005	-3.84828E-003	-4.66476E-003	2.14739E-004	2.79036E-004	-4.43125E-003	3.04583E-004
	142	142	4.99068E-002	-6.88360E-003	0.00000E+000	-3.43539E-004	-6.72417E-002	3.38074E-002	3.04699E+001	11	...........	5.67310E-002	-3.98903E-003	5.53192E-001	6.70520E-001	-3.08524E-002	-4.01167E-002	6.36958E-001	-4.36849E-002	-3.90514E-004	2.74589E-005	-3.80796E-003	-4.61559E-003	2.12375E-004	2.76147E-004	-4.38457E-003	3.00709E-004
	143	143	4.99074E-002	-6.81071E-003	0.00000E+000	-3.39905E-004	-6.65187E-002	3.38726E-002	3.09160E+001	11	...........	5.68144E-002	-3.92153E-003	5.53369E-001	6.70529E-001	-3.08519E-002	-4.00907E-002	6.37010E-001	-4.37514E-002	-3.86947E-004	2.67084E-005	-3.76884E-003	-4.56678E-003	2.10124E-004	2.73046E-004	-4.33849E-003	2.97978E-004
	144	144	4.99059E-002	-6.70971E-003	0.00000E+000	-3.34854E-004	-6.55057E-002	3.39077E-002	3.04033E+001	11	...........	5.68707E-002	-3.90944E-003	5.53433E-001	6.70376E-001	-3.09011E-002	-4.01054E-002	6.37019E-001	-4.37301E-002	-3.81586E-004	2.62312E-005	-3.71338E-003	-4.49802E-003	2.07337E-004	2.69096E-004	-4.27421E-003	2.93416E-004
	145	145	4.99078E-002	-6.68525E-003	0.00000E+000	-3.33646E-004	-6.52690E-002	3.38819E-002	3.06690E+001	11	...........	5.68540E-002	-3.97653E-003	5.53537E-001	6.70345E-001	-3.08810E-002	-4.00833E-002	6.37001E-001	-4.37065E-002	-3.80084E-004	2.65841E-005	-3.70053E-003	-4.48142E-003	2.06447E-004	2.67967E-004	-4.25851E-003	2.92189E-004
	146	146	4.99070E-002	-6.57670E-003	0.00000E+000	-3.28224E-004	-6.41927E-002	3.38227E-002	3.05880E+001	11	...........	5.67617E-002	-3.91986E-003	5.53630E-001	6.70423E-001	-3.08547E-002	-4.00735E-002	6.36968E-001	-4.38606E-002	-3.73304E-004	2.57797E-005	-3.64106E-003	-4.40917E-003	2.02922E-004	2.63551E-004	-4.18915E-003	2.88458E-004
	147	147	4.99077E-002	-6.53233E-003	0.00000E+000	-3.26014E-004	-6.37487E-002	3.39158E-002	3.07081E+001	11	...........	5.69154E-002	-4.00486E-003	5.53700E-001	6.70410E-001	-3.08075E-002	-4.00136E-002	6.36970E-001	-4.37300E-002	-3.71790E-004	2.61611E-005	-3.61695E-003	-4.37934E-003	2.01245E-004	2.61382E-004	-4.16090E-003	2.85659E-004
	148	148	4.99069E-002	-6.52067E-003	0.00000E+000	-3.25427E-004	-6.36400E-002	3.39967E-002	3.05980E+001	11	...........	5.70337E-002	-4.12694E-003	5.53719E-001	6.70437E-001	-3.08340E-002	-4.00006E-002	6.37002E-001	-4.36987E-002	-3.71898E-004	2.69104E-005	-3.61062E-003	-4.37170E-003	2.01059E-004	2.60830E-004	-4.15368E-003	2.84945E-004
	149	149	4.99075E-002	-6.40949E-003	0.00000E+000	-3.19882E-004	-6.25437E-002	3.39357E-002	3.03572E+001	11	...........	5.69193E-002	-4.02292E-003	5.53935E-001	6.70403E-001	-3.08243E-002	-4.00128E-002	6.37074E-001	-4.37283E-002	-3.64824E-004	2.57849E-005	-3.55044E-003	-4.29695E-003	1.97568E-004	2.56462E-004	-4.08332E-003	2.80277E-004
	150	150	4.99086E-002	-6.37738E-003	0.00000E+000	-3.18286E-004	-6.22323E-002	3.37854E-002	3.10812E+001	11	...........	5.67025E-002	-3.97056E-003	5.54025E-001	6.70559E-001	-3.08139E-002	-3.99987E-002	6.36992E-001	-4.36746E-002	-3.61613E-004	2.53217E-005	-3.53323E-003	-4.27641E-003	1.96512E-004	2.55087E-004	-4.06234E-003	2.78529E-004
	151	151	4.99083E-002	-6.35295E-003	0.00000E+000	-3.17065E-004	-6.19853E-002	3.40443E-002	3.10502E+001	11	...........	5.70986E-002	-3.94694E-003	5.54045E-001	6.70541E-001	-3.08469E-002	-3.99644E-002	6.36966E-001	-4.35928E-002	-3.62745E-004	2.50747E-005	-3.51982E-003	-4.25991E-003	1.95969E-004	2.53892E-004	-4.04662E-003	2.76943E-004
	152	152	4.99060E-002	-6.32849E-003	0.00000E+000	-3.15830E-004	-6.17383E-002	3.39414E-002	3.04338E+001	11	...........	5.69511E-002	-4.08736E-003	5.54205E-001	6.70539E-001	-3.08656E-002	-4.00242E-002	6.36970E-001	-4.35212E-002	-3.60415E-004	2.58668E-005	-3.50728E-003	-4.24350E-003	1.95332E-004	2.53292E-004	-4.03106E-003	2.75424E-004
	153	153	4.99076E-002	-6.18015E-003	0.00000E+000	-3.08436E-004	-6.02567E-002	3.37862E-002	3.06357E+001	11	...........	5.67004E-002	-4.15625E-003	5.54184E-001	6.70535E-001	-3.08572E-002	-4.00222E-002	6.36941E-001	-4.37204E-002	-3.50417E-004	2.56862E-005	-3.42494E-003	-4.14400E-003	1.90702E-004	2.47343E-004	-3.93639E-003	2.70199E-004
	154	154	4.99088E-002	-6.20169E-003	0.00000E+000	-3.09519E-004	-6.04717E-002	3.40753E-002	3.10442E+001	11	...........	5.71533E-002	-4.08903E-003	5.54170E-001	6.70635E-001	-3.08325E-002	-4.00187E-002	6.37019E-001	-4.36187E-002	-3.54447E-004	2.53589E-005	-3.43679E-003	-4.15907E-003	1.91214E-004	2.48184E-004	-3.95060E-003	2.70510E-004
	155	155	4.99052E-002	-6.02958E-003	0.00000E+000	-3.00907E-004	-5.87590E-002	3.38322E-002	3.03577E+001	11	...........	5.67578E-002	-4.07111E-003	5.54158E-001	6.70501E-001	-3.08279E-002	-4.00243E-002	6.37078E-001	-4.37494E-002	-3.42225E-004	2.45471E-005	-3.34134E-003	-4.04284E-003	1.85879E-004	2.41330E-004	-3.84131E-003	2.63791E-004
	156	156	4.99073E-002	-5.99058E-003	0.00000E+000	-2.98974E-004	-5.83677E-002	3.38756E-002	3.02254E+001	11	...........	5.68369E-002	-4.12319E-003	5.54100E-001	6.70626E-001	-3.08797E-002	-4.00476E-002	6.37026E-001	-4.37310E-002	-3.40487E-004	2.47003E-005	-3.31938E-003	-4.01744E-003	1.84988E-004	2.39909E-004	-3.81616E-003	2.61974E-004
	157	157	4.99096E-002	-6.03193E-003	0.00000E+000	-3.01051E-004	-5.87773E-002	3.41232E-002	3.09362E+001	11	...........	5.72646E-002	-4.10653E-003	5.54207E-001	6.70511E-001	-3.09235E-002	-4.00833E-002	6.37037E-001	-4.36615E-002	-3.45416E-004	2.47703E-005	-3.34294E-003	-4.04448E-003	1.86528E-004	2.41780E-004	-3.84256E-003	2.63363E-004
	158	158	4.99058E-002	-5.90816E-003	0.00000E+000	-2.94851E-004	-5.75473E-002	3.37768E-002	3.04938E+001	11	...........	5.67042E-002	-4.12181E-003	5.54055E-001	6.70559E-001	-3.09035E-002	-4.00637E-002	6.37083E-001	-4.36607E-002	-3.35017E-004	2.43523E-005	-3.27344E-003	-3.96176E-003	1.82583E-004	2.36703E-004	-3.76398E-003	2.57954E-004
	159	159	4.99088E-002	-5.90985E-003	0.00000E+000	-2.94953E-004	-5.75677E-002	3.41772E-002	3.08806E+001	11	...........	5.73629E-002	-4.09167E-003	5.54103E-001	6.70654E-001	-3.08732E-002	-4.00349E-002	6.37100E-001	-4.36214E-002	-3.39006E-004	2.41811E-005	-3.27467E-003	-3.96346E-003	1.82456E-004	2.36600E-004	-3.76516E-003	2.57796E-004
	160	160	4.99060E-002	-5.78046E-003	0.00000E+000	-2.88480E-004	-5.62823E-002	3.39537E-002	3.07417E+001	11	...........	5.69612E-002	-4.08639E-003	5.54040E-001	6.70762E-001	-3.08615E-002	-4.00303E-002	6.37162E-001	-4.37169E-002	-3.29262E-004	2.36212E-005	-3.20261E-003	-3.87731E-003	1.78394E-004	2.31393E-004	-3.68309E-003	2.52704E-004
	161	161	4.99080E-002	-5.70602E-003	0.00000E+000	-2.84776E-004	-5.55507E-002	3.38502E-002	3.02330E+001	11	...........	5.67911E-002	-4.04306E-003	5.54138E-001	6.70897E-001	-3.08276E-002	-3.99971E-002	6.37112E-001	-4.36907E-002	-3.24051E-004	2.30698E-005	-3.16192E-003	-3.82815E-003	1.75903E-004	2.28224E-004	-3.63537E-003	2.49300E-004
	162	162	4.99075E-002	-5.75004E-003	0.00000E+000	-2.86970E-004	-5.59890E-002	3.41013E-002	3.10836E+001	11	...........	5.72367E-002	-4.04069E-003	5.54147E-001	6.70958E-001	-3.08057E-002	-4.00236E-002	6.37040E-001	-4.38893E-002	-3.29113E-004	2.32341E-005	-3.18637E-003	-3.85803E-003	1.77134E-004	2.30137E-004	-3.66301E-003	2.52365E-004
	163	163	4.99079E-002	-5.65517E-003	0.00000E+000	-2.82238E-004	-5.50377E-002	3.40147E-002	3.06262E+001	11	...........	5.70679E-002	-4.14639E-003	5.54250E-001	6.70962E-001	-3.08193E-002	-4.00225E-002	6.37034E-001	-4.37211E-002	-3.22729E-004	2.34485E-005	-3.13438E-003	-3.79440E-003	1.74288E-004	2.26334E-004	-3.60254E-003	2.47250E-004
	164	164	4.99061E-002	-5.60393E-003	0.00000E+000	-2.79670E-004	-5.45237E-002	3.38981E-002	3.03974E+001	11	...........	5.68831E-002	-4.12458E-003	5.54333E-001	6.70965E-001	-3.08476E-002	-4.00569E-002	6.37054E-001	-4.37981E-002	-3.18769E-004	2.31139E-005	-3.10645E-003	-3.76004E-003	1.72868E-004	2.24476E-004	-3.57001E-003	2.45441E-004
	165	165	4.99086E-002	-5.60598E-003	0.00000E+000	-2.79786E-004	-5.45433E-002	3.41848E-002	3.10174E+001	11	...........	5.73850E-002	-4.08569E-003	5.54371E-001	6.70912E-001	-3.08347E-002	-4.00431E-002	6.37056E-001	-4.39417E-002	-3.21699E-004	2.29043E-005	-3.10779E-003	-3.76111E-003	1.72859E-004	2.24480E-004	-3.57132E-003	2.46336E-004
	166	166	4.99069E-002	-5.53656E-003	0.00000E+000	-2.76313E-004	-5.38503E-002	3.39026E-002	3.06949E+001	11	...........	5.68947E-002	-4.05597E-003	5.54393E-001	6.70958E-001	-3.08206E-002	-4.00294E-002	6.37250E-001	-4.37560E-002	-3.15001E-004	2.24561E-005	-3.06943E-003	-3.71480E-003	1.70640E-004	2.21625E-004	-3.52817E-003	2.42257E-004
	167	167	4.99085E-002	-5.50518E-003	0.00000E+000	-2.74755E-004	-5.35430E-002	3.40086E-002	3.10136E+001	11	...........	5.70683E-002	-3.94972E-003	5.54193E-001	6.71030E-001	-3.08049E-002	-4.00189E-002	6.37293E-001	-4.37543E-002	-3.14172E-004	2.17439E-005	-3.05093E-003	-3.69414E-003	1.69586E-004	2.20311E-004	-3.50841E-003	2.40875E-004
	168	168	4.99070E-002	-5.46353E-003	0.00000E+000	-2.72669E-004	-5.31227E-002	3.40229E-002	3.05784E+001	11	...........	5.70601E-002	-4.06347E-003	5.53964E-001	6.71067E-001	-3.08965E-002	-4.00107E-002	6.37273E-001	-4.37396E-002	-3.11750E-004	2.22009E-005	-3.02660E-003	-3.66639E-003	1.68804E-004	2.18600E-004	-3.48176E-003	2.38973E-004
	169	169	4.99071E-002	-5.36815E-003	0.00000E+000	-2.67909E-004	-5.21743E-002	3.39809E-002	3.05869E+001	11	...........	5.70076E-002	-4.06972E-003	5.53820E-001	6.71110E-001	-3.08440E-002	-4.00222E-002	6.37430E-001	-4.38244E-002	-3.06026E-004	2.18469E-005	-2.97299E-003	-3.60262E-003	1.65575E-004	2.14845E-004	-3.42182E-003	2.35256E-004
	170	170	4.99082E-002	-5.38754E-003	0.00000E+000	-2.68882E-004	-5.23673E-002	3.40991E-002	3.08453E+001	11	...........	5.71985E-002	-4.13431E-003	5.53878E-001	6.71176E-001	-3.08250E-002	-4.00499E-002	6.37395E-001	-4.38060E-002	-3.08159E-004	2.22737E-005	-2.98404E-003	-3.61599E-003	1.66071E-004	2.15770E-004	-3.43399E-003	2.36006E-004
	171	171	4.99070E-002	-5.28603E-003	0.00000E+000	-2.63810E-004	-5.13643E-002	3.39987E-002	3.06538E+001	11	...........	5.70336E-002	-4.05181E-003	5.53818E-001	6.71180E-001	-3.08462E-002	-4.00649E-002	6.37293E-001	-4.38807E-002	-3.01482E-004	2.14180E-005	-2.92750E-003	-3.54788E-003	1.63054E-004	2.11784E-004	-3.36875E-003	2.31955E-004
	172	172	4.99088E-002	-5.26313E-003	0.00000E+000	-2.62677E-004	-5.11450E-002	3.40194E-002	3.06139E+001	11	...........	5.70478E-002	-4.07111E-003	5.53774E-001	6.71140E-001	-3.07914E-002	-4.00742E-002	6.37296E-001	-4.38019E-002	-3.00250E-004	2.14268E-005	-2.91459E-003	-3.53230E-003	1.62059E-004	2.10916E-004	-3.35417E-003	2.30535E-004
	173	173	4.99071E-002	-5.23402E-003	0.00000E+000	-2.61215E-004	-5.08640E-002	3.41434E-002	3.07062E+001	11	...........	5.72532E-002	-4.08361E-003	5.53615E-001	6.71113E-001	-3.07399E-002	-4.00600E-002	6.37307E-001	-4.38003E-002	-2.99664E-004	2.13737E-005	-2.89763E-003	-3.51262E-003	1.60893E-004	2.09675E-004	-3.33568E-003	2.29251E-004
	174	174	4.99067E-002	-5.20042E-003	0.00000E+000	-2.59536E-004	-5.05283E-002	3.40202E-002	3.07542E+001	11	...........	5.70624E-002	-3.89181E-003	5.53616E-001	6.71052E-001	-3.08050E-002	-4.00612E-002	6.37375E-001	-4.38308E-002	-2.96748E-004	2.02390E-005	-2.87904E-003	-3.48976E-003	1.60199E-004	2.08335E-004	-3.31462E-003	2.27939E-004
	175	175	4.99092E-002	-5.11424E-003	0.00000E+000	-2.55248E-004	-4.96713E-002	3.40308E-002	3.03891E+001	11	...........	5.70810E-002	-3.85000E-003	5.53775E-001	6.71022E-001	-3.07769E-002	-4.01231E-002	6.37418E-001	-4.37743E-002	-2.91926E-004	1.96898E-005	-2.83214E-003	-3.43177E-003	1.57401E-004	2.05199E-004	-3.25991E-003	2.23872E-004
	176	175.17	4.98937E-002	-5.12445E-003	0.00000E+000	-2.55678E-004	-4.97588E-002	3.41127E-002	3.03034E+001	11	...........	5.72418E-002	-3.93301E-003	5.53761E-001	6.71020E-001	-3.09518E-002	-4.01544E-002	6.37241E-001	-4.39763E-002	-2.93333E-004	2.01545E-005	-2.83772E-003	-3.43861E-003	1.58611E-004	2.05769E-004	-3.26551E-003	2.25354E-004
STARTTIMEOFFSET	QUANT	441332	Start Time Offset (s)
