EXPLAIN
TAG	PWR800_DISCHARGE
TITLE	LABEL	PWR Discharge	Test Identifier
DATE	LABEL	10/15/2022	Date
TIME	LABEL	23:02:54	Time
NOTES	NOTES	1	Notes...
	
PSTAT	PSTAT	REF3000-21114	Potentiostat
CAPACITY	QUANT	5.30000E-002	Capacity (A-hr)
CELLTYPE	SELECTOR	1	Cell Type
WORKINGCONNECTION	SELECTOR	0	Working Connection
MAXDISCHARGETIME	VARIABLEANDUNITS	7.20000E+003	s	2.00000E+000	hour(s)	Max Discharge Time
DISCHARGEMODE	MULTIPARAM	0	1.00000E-001	Discharge Mode	Constant Current	Amp(s)
VOLTAGEFINISH	TWOPARAM	T	5.00000E-003	7.20000E+003	Voltage Finish	I (A) <	Max Time(s)
SAMPLETIME	QUANT	1.00000E+000	Sample Period (s)
DISCHARGESTOPAT1	MULTIPARAM	1	5.00000E-002	Stop At 1	|Voltage| < Limit	V
DISCHARGESTOPAT2	MULTIPARAM	0	0.00000E+000	Stop At 2	None	N/A
AESELECTOR	AESELECTOR	0x1	T	Set Limits	AE Channels
AESBHCSELECTOR	TOGGLE	F	Save Both Half Cells
IRCOMP	TOGGLE	F	IR Measure
EOC	QUANT	0.550639	Open Circuit (V)
SEQUENCER	TOGGLE	TRUE	Run as Sequence
PSTATMODEL	IQUANT	5	Pstat Model
PSTATSECTION	LABEL	REF3000-21114	Pstat Section
PSTATSERIALNO	LABEL	21114	Pstat Serial Number
CTRLMODE	IQUANT	0	Control Mode
ELECTROMETER	IQUANT	0	RE=0 or CS=1
IESTAB	IQUANT	0	I/E Stability
CASPEED	IQUANT	4	Control Amp Speed
CONVENTION	IQUANT	1	Current Convention
ICHRANGE	IQUANT	2	Ich Range
ICHRANGEMODE	TOGGLE	T	Ich Auto Range
ICHOFFSETENABLE	TOGGLE	F	Ich Offset Enable
ICHOFFSET	QUANT	0	Ich Offset (V)
ICHFILTER	IQUANT	1	Ich Filter
VCHRANGE	IQUANT	3	Vch Range
VCHRANGEMODE	TOGGLE	T	Vch Auto Range
VCHOFFSETENABLE	TOGGLE	F	Vch Offset Enable
VCHOFFSET	QUANT	0	Vch Offset (V)
VCHFILTER	IQUANT	1	Vch Filter
ACHRANGE	IQUANT	2	Ach Range
ACHOFFSETENABLE	TOGGLE	F	Ach Offset Enable
ACHOFFSET	QUANT	0	Ach Offset (V)
ACHFILTER	IQUANT	1	Ach Filter
IERANGELOWERLIMIT	IQUANT	9	I/E Range Lower Limit
IERANGEMODE	TOGGLE	F	I/E AutoRange
IERANGE	IQUANT	9	I/E Range
POSFEEDENABLE	TOGGLE	F	Positive Feedback IR Comp
POSFEEDRESISTANCE	QUANT	0	Positive Feedback Resistance (ohm)
ACHSELECT	IQUANT	1	Ach Select
SENSECABLEID	IQUANT	13	Sense Cable ID
PWRCABLEID	IQUANT	13	Power Cable ID
DCCALDATE	LABEL		DC Calibration Date
ACCALDATE	LABEL		AC Calibration Date
THERMOSELECT	IQUANT	1	Thermo Select
FRAMEWORKVERSION	LABEL	7.8.6	Framework Version
INSTRUMENTVERSION	LABEL	4.50	Instrument Version
COMPLIANCEVOLTAGE	IQUANT	0	Compliance Voltage
CURVE	TABLE	133
	Pt	T	Vf	Im	Vu	Pwr	Sig	Ach	Temp	IERange	Over	Vf1	Vf2	Vf3	Vf4	Vf5	Vf6	Vf7	Vf8	Pwr1	Pwr2	Pwr3	Pwr4	Pwr5	Pwr6	Pwr7	Pwr8
	#	s	V	A	V	W	V	V	deg C	#	bits	V	V	V	V	V	V	V	V	W	W	W	W	W	W	W	W
	0	1	3.11635E-001	-1.00082E-001	0.00000E+000	-3.11891E-002	-9.94000E-001	3.55584E-002	2.94548E+001	11	...........	5.91093E-002	-4.16500E-003	5.75493E-001	6.17068E-001	-2.88693E-002	-3.89646E-002	6.63735E-001	-4.34418E-002	-5.91579E-003	4.16842E-004	-5.75966E-002	-6.17574E-002	2.88930E-003	3.89966E-003	-6.64280E-002	4.34775E-003
	1	2	2.17629E-001	-1.00082E-001	0.00000E+000	-2.17808E-002	-9.94000E-001	3.57452E-002	2.92381E+001	11	...........	5.93975E-002	-4.18278E-003	5.75465E-001	6.17062E-001	-2.88831E-002	-3.89356E-002	6.63721E-001	-4.33010E-002	-5.94463E-003	4.18622E-004	-5.75938E-002	-6.17569E-002	2.89068E-003	3.89676E-003	-6.64267E-002	4.33366E-003
	2	3	1.38085E-001	-1.00083E-001	0.00000E+000	-1.38199E-002	-9.94000E-001	3.56282E-002	2.85256E+001	11	...........	5.91901E-002	-4.24625E-003	5.75501E-001	6.17079E-001	-2.88825E-002	-3.89282E-002	6.63673E-001	-4.32849E-002	-5.92392E-003	4.24977E-004	-5.75978E-002	-6.17590E-002	2.89064E-003	3.89605E-003	-6.64223E-002	4.33207E-003
	3	3.75167	7.46245E-002	-1.00083E-001	0.00000E+000	-7.46861E-003	-9.94000E-001	3.55487E-002	2.77825E+001	11	...........	5.90752E-002	-4.31356E-003	5.75635E-001	6.16950E-001	-2.88793E-002	-3.89198E-002	6.63674E-001	-4.32779E-002	-5.91240E-003	4.31712E-004	-5.76110E-002	-6.17459E-002	2.89032E-003	3.89519E-003	-6.64222E-002	4.33136E-003
	4	4	4.93545E-002	-9.35643E-002	0.00000E+000	-4.61781E-003	-9.29180E-001	3.56916E-002	2.77500E+001	11	...........	5.93210E-002	-4.27517E-003	5.75707E-001	6.16973E-001	-2.88691E-002	-3.88865E-002	6.63776E-001	-4.32360E-002	-5.55033E-003	4.00003E-004	-5.38656E-002	-5.77266E-002	2.70112E-003	3.63838E-003	-6.21057E-002	4.04535E-003
	5	5	4.96344E-002	-7.20419E-002	0.00000E+000	-3.57576E-003	-7.15203E-001	3.58096E-002	2.83436E+001	11	...........	5.95237E-002	-4.34292E-003	5.75725E-001	6.16906E-001	-2.88849E-002	-3.89060E-002	6.63777E-001	-4.32265E-002	-4.28821E-003	3.12872E-004	-4.14763E-002	-4.44431E-002	2.08092E-003	2.80286E-003	-4.78198E-002	3.11412E-003
	6	6	4.98168E-002	-5.28566E-002	0.00000E+000	-2.63315E-003	-5.24457E-001	3.57660E-002	2.90836E+001	11	...........	5.94436E-002	-4.39403E-003	5.75681E-001	6.16791E-001	-2.89003E-002	-3.89014E-002	6.63661E-001	-4.32310E-002	-3.14199E-003	2.32254E-004	-3.04285E-002	-3.26015E-002	1.52757E-003	2.05620E-003	-3.50789E-002	2.28504E-003
	7	7	4.98931E-002	-4.29188E-002	0.00000E+000	-2.14135E-003	-4.25649E-001	3.59724E-002	3.05211E+001	11	...........	5.97703E-002	-4.39153E-003	5.75697E-001	6.16873E-001	-2.88933E-002	-3.88644E-002	6.63750E-001	-4.32712E-002	-2.56527E-003	1.88479E-004	-2.47082E-002	-2.64754E-002	1.24007E-003	1.66801E-003	-2.84873E-002	1.85715E-003
	8	8	4.99236E-002	-3.64841E-002	0.00000E+000	-1.82142E-003	-3.61677E-001	3.59548E-002	3.07185E+001	11	...........	5.97360E-002	-4.38278E-003	5.75791E-001	6.16967E-001	-2.88949E-002	-3.88407E-002	6.63735E-001	-4.32915E-002	-2.17941E-003	1.59902E-004	-2.10072E-002	-2.25095E-002	1.05420E-003	1.41707E-003	-2.42158E-002	1.57945E-003
	9	9	4.99495E-002	-3.23200E-002	0.00000E+000	-1.61437E-003	-3.20270E-001	3.60527E-002	3.13025E+001	11	...........	5.99182E-002	-4.44431E-003	5.75766E-001	6.16935E-001	-2.88747E-002	-3.88554E-002	6.63772E-001	-4.31931E-002	-1.93656E-003	1.43640E-004	-1.86088E-002	-1.99394E-002	9.33232E-004	1.25581E-003	-2.14531E-002	1.39600E-003
	10	10	4.99506E-002	-2.92303E-002	0.00000E+000	-1.46007E-003	-2.89565E-001	3.59736E-002	3.14239E+001	11	...........	5.97800E-002	-4.33819E-003	5.75926E-001	6.17006E-001	-2.88707E-002	-3.88318E-002	6.63694E-001	-4.31931E-002	-1.74739E-003	1.26807E-004	-1.68345E-002	-1.80353E-002	8.43899E-004	1.13507E-003	-1.94000E-002	1.26255E-003
	11	11	4.99700E-002	-2.69556E-002	0.00000E+000	-1.34697E-003	-2.66941E-001	3.60647E-002	3.09897E+001	11	...........	5.99062E-002	-4.30681E-003	5.75856E-001	6.16869E-001	-2.88739E-002	-3.88365E-002	6.63722E-001	-4.31640E-002	-1.61481E-003	1.16092E-004	-1.55225E-002	-1.66281E-002	7.78313E-004	1.04686E-003	-1.78910E-002	1.16351E-003
	12	12	4.99783E-002	-2.55070E-002	0.00000E+000	-1.27480E-003	-2.52541E-001	3.61501E-002	3.16953E+001	11	...........	6.00681E-002	-4.31181E-003	5.75950E-001	6.16775E-001	-2.88768E-002	-3.88657E-002	6.63849E-001	-4.31958E-002	-1.53215E-003	1.09981E-004	-1.46907E-002	-1.57321E-002	7.36560E-004	9.91346E-004	-1.69328E-002	1.10179E-003
	13	13	4.99766E-002	-2.42659E-002	0.00000E+000	-1.21273E-003	-2.40190E-001	3.60938E-002	3.17901E+001	11	...........	5.99807E-002	-4.42806E-003	5.76008E-001	6.16781E-001	-2.88949E-002	-3.88357E-002	6.63868E-001	-4.32011E-002	-1.45549E-003	1.07451E-004	-1.39773E-002	-1.49667E-002	7.01160E-004	9.42383E-004	-1.61094E-002	1.04831E-003
	14	14	4.99801E-002	-2.33256E-002	0.00000E+000	-1.16581E-003	-2.30849E-001	3.62117E-002	3.21023E+001	11	...........	6.01790E-002	-4.52556E-003	5.75980E-001	6.16891E-001	-2.89062E-002	-3.88324E-002	6.63984E-001	-4.32912E-002	-1.40371E-003	1.05561E-004	-1.34350E-002	-1.43893E-002	6.74255E-004	9.05787E-004	-1.54878E-002	1.00979E-003
	15	15	4.99851E-002	-2.25484E-002	0.00000E+000	-1.12708E-003	-2.23113E-001	3.61811E-002	3.20349E+001	11	...........	6.01337E-002	-4.42333E-003	5.75924E-001	6.16795E-001	-2.89151E-002	-3.88139E-002	6.63859E-001	-4.33106E-002	-1.35592E-003	9.97390E-005	-1.29862E-002	-1.39077E-002	6.51989E-004	8.75190E-004	-1.49689E-002	9.76583E-004
	16	16	4.99771E-002	-2.16535E-002	0.00000E+000	-1.08218E-003	-2.14218E-001	3.61651E-002	3.19867E+001	11	...........	6.00892E-002	-4.38333E-003	5.75730E-001	6.16627E-001	-2.89064E-002	-3.88385E-002	6.63778E-001	-4.31817E-002	-1.30114E-003	9.49145E-005	-1.24666E-002	-1.33521E-002	6.25925E-004	8.40989E-004	-1.43731E-002	9.35035E-004
	17	17	4.99863E-002	-2.10044E-002	0.00000E+000	-1.04993E-003	-2.07762E-001	3.62281E-002	3.14635E+001	11	...........	6.01950E-002	-4.38694E-003	5.76094E-001	6.16396E-001	-2.89044E-002	-3.88219E-002	6.63645E-001	-4.30682E-002	-1.26436E-003	9.21450E-005	-1.21005E-002	-1.29470E-002	6.07120E-004	8.15430E-004	-1.39394E-002	9.04620E-004
	18	18	4.99892E-002	-2.07008E-002	0.00000E+000	-1.03482E-003	-2.04745E-001	3.63456E-002	3.20165E+001	11	...........	6.04122E-002	-4.36153E-003	5.76027E-001	6.16173E-001	-2.88997E-002	-3.88354E-002	6.63730E-001	-4.29697E-002	-1.25058E-003	9.02871E-005	-1.19242E-002	-1.27553E-002	5.98247E-004	8.03924E-004	-1.37397E-002	8.89508E-004
	19	19	4.99838E-002	-2.01110E-002	0.00000E+000	-1.00522E-003	-1.98884E-001	3.62522E-002	3.24470E+001	11	...........	6.02185E-002	-4.17361E-003	5.75961E-001	6.16171E-001	-2.88990E-002	-3.88326E-002	6.63729E-001	-4.31503E-002	-1.21105E-003	8.39353E-005	-1.15831E-002	-1.23918E-002	5.81187E-004	7.80961E-004	-1.33482E-002	8.67793E-004
	20	20	4.99838E-002	-1.96185E-002	0.00000E+000	-9.80605E-004	-1.93974E-001	3.61895E-002	3.20158E+001	11	...........	6.02907E-002	-4.30333E-003	5.75938E-001	6.16049E-001	-2.89069E-002	-3.88229E-002	6.63618E-001	-4.31849E-002	-1.18281E-003	8.44248E-005	-1.12990E-002	-1.20859E-002	5.67110E-004	7.61646E-004	-1.30192E-002	8.47221E-004
	21	21	4.99882E-002	-1.91851E-002	0.00000E+000	-9.59027E-004	-1.89674E-001	3.62685E-002	3.22474E+001	11	...........	6.05121E-002	-4.37083E-003	5.75711E-001	6.16042E-001	-2.89193E-002	-3.88325E-002	6.63628E-001	-4.31660E-002	-1.16093E-003	8.38547E-005	-1.10450E-002	-1.18188E-002	5.54818E-004	7.45004E-004	-1.27317E-002	8.28141E-004
	22	22	4.99862E-002	-1.87314E-002	0.00000E+000	-9.36311E-004	-1.85162E-001	3.60723E-002	3.18167E+001	11	...........	6.01993E-002	-4.41708E-003	5.75702E-001	6.16147E-001	-2.89111E-002	-3.88467E-002	6.63740E-001	-4.32604E-002	-1.12762E-003	8.27382E-005	-1.07837E-002	-1.15413E-002	5.41546E-004	7.27653E-004	-1.24328E-002	8.10328E-004
	23	23	4.99897E-002	-1.85293E-002	0.00000E+000	-9.26275E-004	-1.83154E-001	3.62842E-002	3.23758E+001	11	...........	6.05610E-002	-4.40208E-003	5.75648E-001	6.16176E-001	-2.89203E-002	-3.88501E-002	6.63710E-001	-4.32883E-002	-1.12215E-003	8.15677E-005	-1.06664E-002	-1.14173E-002	5.35873E-004	7.19867E-004	-1.22981E-002	8.02104E-004
	24	24	4.99884E-002	-1.82706E-002	0.00000E+000	-9.13315E-004	-1.80577E-001	3.62562E-002	3.25583E+001	11	...........	6.04965E-002	-4.43083E-003	5.75634E-001	6.16376E-001	-2.89475E-002	-3.88592E-002	6.63770E-001	-4.32203E-002	-1.10531E-003	8.09538E-005	-1.05171E-002	-1.12615E-002	5.28887E-004	7.09979E-004	-1.21274E-002	7.89659E-004
	25	25	4.99826E-002	-1.78872E-002	0.00000E+000	-8.94048E-004	-1.76777E-001	3.63088E-002	3.24326E+001	11	...........	6.05978E-002	-4.34708E-003	5.75528E-001	6.16417E-001	-2.89360E-002	-3.88510E-002	6.63752E-001	-4.32575E-002	-1.08392E-003	7.77571E-005	-1.02946E-002	-1.10260E-002	5.17583E-004	6.94935E-004	-1.18727E-002	7.73755E-004
	26	26	4.99874E-002	-1.74452E-002	0.00000E+000	-8.72041E-004	-1.72368E-001	3.62648E-002	3.20018E+001	11	...........	6.05014E-002	-4.30264E-003	5.75458E-001	6.16522E-001	-2.89481E-002	-3.88624E-002	6.63485E-001	-4.32474E-002	-1.05546E-003	7.50605E-005	-1.00390E-002	-1.07554E-002	5.05005E-004	6.77962E-004	-1.15746E-002	7.54459E-004
	27	27	4.99919E-002	-1.72244E-002	0.00000E+000	-8.61082E-004	-1.70167E-001	3.62774E-002	3.24778E+001	11	...........	6.05387E-002	-4.19042E-003	5.75640E-001	6.16632E-001	-2.89414E-002	-3.88532E-002	6.63587E-001	-4.32890E-002	-1.04275E-003	7.21776E-005	-9.91509E-003	-1.06212E-002	4.98499E-004	6.69225E-004	-1.14299E-002	7.45630E-004
	28	28	4.99839E-002	-1.70068E-002	0.00000E+000	-8.50067E-004	-1.68004E-001	3.61220E-002	3.25916E+001	11	...........	6.06369E-002	-4.22361E-003	5.75717E-001	6.16512E-001	-2.89249E-002	-3.88553E-002	6.63729E-001	-4.31860E-002	-1.03124E-003	7.18302E-005	-9.79112E-003	-1.04849E-002	4.91920E-004	6.60805E-004	-1.12879E-002	7.34456E-004
	29	29	4.99927E-002	-1.67442E-002	0.00000E+000	-8.37087E-004	-1.65401E-001	3.63417E-002	3.29869E+001	11	...........	6.06514E-002	-4.24708E-003	5.75617E-001	6.16379E-001	-2.89128E-002	-3.88650E-002	6.63637E-001	-4.30994E-002	-1.01556E-003	7.11139E-005	-9.63824E-003	-1.03208E-002	4.84121E-004	6.50763E-004	-1.11121E-002	7.21665E-004
	30	30	4.99878E-002	-1.64076E-002	0.00000E+000	-8.20180E-004	-1.62060E-001	3.62756E-002	3.22223E+001	11	...........	6.05206E-002	-4.27569E-003	5.75464E-001	6.16290E-001	-2.89089E-002	-3.88843E-002	6.63623E-001	-4.31789E-002	-9.92998E-004	7.01540E-005	-9.44200E-003	-1.01119E-002	4.74326E-004	6.37999E-004	-1.08885E-002	7.08463E-004
	31	31	4.99918E-002	-1.61775E-002	0.00000E+000	-8.08741E-004	-1.59764E-001	3.63857E-002	3.23421E+001	11	...........	6.07144E-002	-4.22597E-003	5.75490E-001	6.16405E-001	-2.89097E-002	-3.89000E-002	6.63483E-001	-4.31462E-002	-9.82206E-004	6.83655E-005	-9.30997E-003	-9.97187E-003	4.67686E-004	6.29304E-004	-1.07335E-002	6.97997E-004
	32	32	4.99880E-002	-1.59882E-002	0.00000E+000	-7.99217E-004	-1.57879E-001	3.63645E-002	3.31195E+001	11	...........	6.06874E-002	-4.25333E-003	5.75473E-001	6.16380E-001	-2.89010E-002	-3.88753E-002	6.63456E-001	-4.31918E-002	-9.70281E-004	6.80031E-005	-9.20077E-003	-9.85481E-003	4.62074E-004	6.21545E-004	-1.06075E-002	6.90559E-004
	33	33	4.99871E-002	-1.57170E-002	0.00000E+000	-7.85649E-004	-1.55185E-001	3.63173E-002	3.26406E+001	11	...........	6.06137E-002	-4.35889E-003	5.75577E-001	6.16329E-001	-2.88947E-002	-3.88903E-002	6.63361E-001	-4.31921E-002	-9.52669E-004	6.85088E-005	-9.04637E-003	-9.68687E-003	4.54139E-004	6.11240E-004	-1.04261E-002	6.78852E-004
	34	34	4.99874E-002	-1.53565E-002	0.00000E+000	-7.67632E-004	-1.51602E-001	3.64901E-002	3.24606E+001	11	...........	6.08747E-002	-4.36861E-003	5.75563E-001	6.16483E-001	-2.89078E-002	-3.88899E-002	6.63400E-001	-4.32332E-002	-9.34823E-004	6.70866E-005	-8.83863E-003	-9.46702E-003	4.43922E-004	5.97212E-004	-1.01875E-002	6.63911E-004
	35	35	4.99904E-002	-1.50908E-002	0.00000E+000	-7.54395E-004	-1.48954E-001	3.62771E-002	3.22475E+001	11	...........	6.05500E-002	-4.34681E-003	5.75277E-001	6.16640E-001	-2.88674E-002	-3.89114E-002	6.63361E-001	-4.31936E-002	-9.13747E-004	6.55967E-005	-8.68138E-003	-9.30558E-003	4.35631E-004	5.87204E-004	-1.00106E-002	6.51826E-004
	36	36	4.99901E-002	-1.50736E-002	0.00000E+000	-7.53533E-004	-1.48783E-001	3.64913E-002	3.27105E+001	11	...........	6.09058E-002	-4.43347E-003	5.75161E-001	6.16592E-001	-2.88451E-002	-3.89582E-002	6.63419E-001	-4.32187E-002	-9.18072E-004	6.68285E-005	-8.66976E-003	-9.29428E-003	4.34801E-004	5.87241E-004	-1.00001E-002	6.51463E-004
	37	37	4.99881E-002	-1.48086E-002	0.00000E+000	-7.40254E-004	-1.46140E-001	3.64385E-002	3.29526E+001	11	...........	6.08142E-002	-4.37556E-003	5.75102E-001	6.16498E-001	-2.88182E-002	-3.89942E-002	6.63417E-001	-4.32085E-002	-9.00573E-004	6.47959E-005	-8.51646E-003	-9.12947E-003	4.26757E-004	5.77449E-004	-9.82428E-003	6.39857E-004
	38	38	4.99893E-002	-1.45649E-002	0.00000E+000	-7.28091E-004	-1.43710E-001	3.64686E-002	3.27370E+001	11	...........	6.08454E-002	-4.43111E-003	5.75016E-001	6.16422E-001	-2.88226E-002	-3.89493E-002	6.63398E-001	-4.32328E-002	-8.86210E-004	6.45389E-005	-8.37507E-003	-8.97815E-003	4.19800E-004	5.67294E-004	-9.66235E-003	6.29683E-004
	39	39	4.99893E-002	-1.43865E-002	0.00000E+000	-7.19171E-004	-1.41933E-001	3.64686E-002	3.30573E+001	11	...........	6.08294E-002	-4.34403E-003	5.75110E-001	6.16465E-001	-2.88590E-002	-3.89203E-002	6.63398E-001	-4.32854E-002	-8.75123E-004	6.24954E-005	-8.27382E-003	-8.86877E-003	4.15180E-004	5.59927E-004	-9.54397E-003	6.22726E-004
	40	40	4.99884E-002	-1.41755E-002	0.00000E+000	-7.08613E-004	-1.39847E-001	3.65054E-002	3.30633E+001	11	...........	6.08992E-002	-4.44958E-003	5.75077E-001	6.16351E-001	-2.88833E-002	-3.89236E-002	6.63493E-001	-4.32524E-002	-8.63278E-004	6.30752E-005	-8.15202E-003	-8.73711E-003	4.09437E-004	5.51763E-004	-9.40536E-003	6.13125E-004
	41	41	4.99869E-002	-1.37764E-002	0.00000E+000	-6.88639E-004	-1.35887E-001	3.63571E-002	3.22120E+001	11	...........	6.06775E-002	-4.27083E-003	5.74995E-001	6.16246E-001	-2.88699E-002	-3.89274E-002	6.63498E-001	-4.33065E-002	-8.35918E-004	5.88367E-005	-7.92137E-003	-8.48965E-003	3.97723E-004	5.36279E-004	-9.14062E-003	5.96608E-004
	42	42	4.99926E-002	-1.36915E-002	0.00000E+000	-6.84474E-004	-1.35039E-001	3.65129E-002	3.23419E+001	11	...........	6.09179E-002	-4.34847E-003	5.75060E-001	6.16330E-001	-2.88597E-002	-3.89478E-002	6.63434E-001	-4.33629E-002	-8.34058E-004	5.95371E-005	-7.87343E-003	-8.43848E-003	3.95133E-004	5.33254E-004	-9.08341E-003	5.93703E-004
	43	43	4.99858E-002	-1.35800E-002	0.00000E+000	-6.78809E-004	-1.33931E-001	3.65433E-002	3.28451E+001	11	...........	6.09885E-002	-4.32639E-003	5.75052E-001	6.16342E-001	-2.88575E-002	-3.89618E-002	6.63560E-001	-4.34150E-002	-8.28226E-004	5.87526E-005	-7.80923E-003	-8.36995E-003	3.91886E-004	5.29103E-004	-9.01118E-003	5.89578E-004
	44	44	4.99934E-002	-1.33701E-002	0.00000E+000	-6.68416E-004	-1.31840E-001	3.65542E-002	3.34276E+001	11	...........	6.10046E-002	-4.26208E-003	5.74922E-001	6.16291E-001	-2.88946E-002	-3.89344E-002	6.63643E-001	-4.33337E-002	-8.15637E-004	5.69845E-005	-7.68676E-003	-8.23987E-003	3.86323E-004	5.20557E-004	-8.87297E-003	5.79376E-004
	45	45	4.99893E-002	-1.32058E-002	0.00000E+000	-6.60147E-004	-1.30208E-001	3.64880E-002	3.28815E+001	11	...........	6.08860E-002	-4.21625E-003	5.74972E-001	6.16208E-001	-2.89344E-002	-3.89397E-002	6.63621E-001	-4.32332E-002	-8.04047E-004	5.56789E-005	-7.59295E-003	-8.13751E-003	3.82102E-004	5.14229E-004	-8.76363E-003	5.70928E-004
	46	46	4.99889E-002	-1.30313E-002	0.00000E+000	-6.51419E-004	-1.28474E-001	3.65652E-002	3.33620E+001	11	...........	6.10196E-002	-4.34486E-003	5.74982E-001	6.16277E-001	-2.89156E-002	-3.89604E-002	6.63742E-001	-4.32550E-002	-7.95163E-004	5.66191E-005	-7.49275E-003	-8.03088E-003	3.76807E-004	5.07704E-004	-8.64941E-003	5.63668E-004
	47	47	4.99871E-002	-1.28930E-002	0.00000E+000	-6.44486E-004	-1.27116E-001	3.66297E-002	3.29227E+001	11	...........	6.11165E-002	-4.30625E-003	5.74817E-001	6.16188E-001	-2.89378E-002	-3.89646E-002	6.63695E-001	-4.32108E-002	-7.87978E-004	5.55206E-005	-7.41114E-003	-7.94453E-003	3.73096E-004	5.02372E-004	-8.55705E-003	5.57119E-004
	48	48	4.99924E-002	-1.25672E-002	0.00000E+000	-6.28267E-004	-1.23860E-001	3.64822E-002	3.27840E+001	11	...........	6.08754E-002	-4.35972E-003	5.74878E-001	6.16073E-001	-2.89471E-002	-3.89647E-002	6.63622E-001	-4.31611E-002	-7.65036E-004	5.47897E-005	-7.22464E-003	-7.74234E-003	3.63785E-004	4.89679E-004	-8.33990E-003	5.42416E-004
	49	49	4.99899E-002	-1.24824E-002	0.00000E+000	-6.23996E-004	-1.23017E-001	3.65675E-002	3.27634E+001	11	...........	6.10226E-002	-4.43500E-003	5.75063E-001	6.16290E-001	-2.89425E-002	-3.89579E-002	6.63599E-001	-4.31910E-002	-7.61712E-004	5.53596E-005	-7.17819E-003	-7.69280E-003	3.61273E-004	4.86290E-004	-8.28333E-003	5.39129E-004
	50	50	4.99898E-002	-1.23340E-002	0.00000E+000	-6.16574E-004	-1.21535E-001	3.65707E-002	3.32305E+001	11	...........	6.10374E-002	-4.40264E-003	5.74963E-001	6.16202E-001	-2.89381E-002	-3.89550E-002	6.63554E-001	-4.31692E-002	-7.52834E-004	5.43021E-005	-7.09159E-003	-7.60023E-003	3.56922E-004	4.80471E-004	-8.18427E-003	5.32448E-004
	51	51	4.99878E-002	-1.20999E-002	0.00000E+000	-6.04846E-004	-1.19201E-001	3.65536E-002	3.30437E+001	11	...........	6.09815E-002	-4.23972E-003	5.74954E-001	6.16099E-001	-2.89465E-002	-3.89369E-002	6.63684E-001	-4.31978E-002	-7.37867E-004	5.13000E-005	-6.95686E-003	-7.45470E-003	3.50249E-004	4.71131E-004	-8.03047E-003	5.22687E-004
	52	52	4.99908E-002	-1.18993E-002	0.00000E+000	-5.94857E-004	-1.17205E-001	3.66212E-002	3.22563E+001	11	...........	6.11181E-002	-4.33417E-003	5.74846E-001	6.16102E-001	-2.89503E-002	-3.89443E-002	6.63708E-001	-4.32156E-002	-7.27264E-004	5.15737E-005	-6.84028E-003	-7.33120E-003	3.44489E-004	4.63411E-004	-7.89767E-003	5.14236E-004
	53	53	4.99904E-002	-1.17753E-002	0.00000E+000	-5.88652E-004	-1.15963E-001	3.65525E-002	3.28765E+001	11	...........	6.10046E-002	-4.39069E-003	5.74625E-001	6.16213E-001	-2.89536E-002	-3.89714E-002	6.63759E-001	-4.32162E-002	-7.18348E-004	5.17018E-005	-6.76639E-003	-7.25610E-003	3.40938E-004	4.58900E-004	-7.81597E-003	5.08885E-004
	54	54	4.99911E-002	-1.17517E-002	0.00000E+000	-5.87481E-004	-1.15725E-001	3.66691E-002	3.32286E+001	11	...........	6.12225E-002	-4.43125E-003	5.74722E-001	6.16031E-001	-2.89840E-002	-3.89943E-002	6.63738E-001	-4.31560E-002	-7.19470E-004	5.20748E-005	-6.75398E-003	-7.23942E-003	3.40612E-004	4.58250E-004	-7.80007E-003	5.07157E-004
	55	55	4.99888E-002	-1.15187E-002	0.00000E+000	-5.75807E-004	-1.13439E-001	3.65660E-002	3.32119E+001	11	...........	6.10046E-002	-4.21625E-003	5.74674E-001	6.16052E-001	-2.90124E-002	-3.90065E-002	6.63692E-001	-4.32042E-002	-7.02695E-004	4.85658E-005	-6.61951E-003	-7.09614E-003	3.34186E-004	4.49306E-004	-7.64489E-003	4.97657E-004
	56	56	4.99899E-002	-1.14024E-002	0.00000E+000	-5.70007E-004	-1.12282E-001	3.66249E-002	3.30272E+001	11	...........	6.11204E-002	-4.16903E-003	5.74794E-001	6.15968E-001	-2.90181E-002	-3.89715E-002	6.63665E-001	-4.30660E-002	-6.96921E-004	4.75370E-005	-6.55405E-003	-7.02354E-003	3.30876E-004	4.44370E-004	-7.56739E-003	4.91057E-004
	57	57	4.99905E-002	-1.12700E-002	0.00000E+000	-5.63395E-004	-1.10963E-001	3.66703E-002	3.33928E+001	11	...........	6.12081E-002	-4.25944E-003	5.74727E-001	6.15874E-001	-2.90165E-002	-3.89542E-002	6.63685E-001	-4.31990E-002	-6.89817E-004	4.80041E-005	-6.47720E-003	-6.94093E-003	3.27018E-004	4.39015E-004	-7.47975E-003	4.86855E-004
	58	58	4.99889E-002	-1.10921E-002	0.00000E+000	-5.54480E-004	-1.09190E-001	3.65489E-002	3.25374E+001	11	...........	6.09840E-002	-4.33083E-003	5.74598E-001	6.15872E-001	-2.90167E-002	-3.89401E-002	6.63647E-001	-4.32778E-002	-6.76438E-004	4.80379E-005	-6.37347E-003	-6.83129E-003	3.21855E-004	4.31926E-004	-7.36121E-003	4.80040E-004
	59	59	4.99919E-002	-1.09905E-002	0.00000E+000	-5.49435E-004	-1.08175E-001	3.66588E-002	3.33764E+001	11	...........	6.11762E-002	-4.45861E-003	5.74602E-001	6.15940E-001	-2.90222E-002	-3.89246E-002	6.63725E-001	-4.33857E-002	-6.72357E-004	4.90023E-005	-6.31516E-003	-6.76948E-003	3.18968E-004	4.27800E-004	-7.29466E-003	4.76830E-004
	60	60	4.99900E-002	-1.09274E-002	0.00000E+000	-5.46263E-004	-1.07552E-001	3.66981E-002	3.29926E+001	11	...........	6.12407E-002	-4.49903E-003	5.74575E-001	6.15963E-001	-2.90444E-002	-3.89122E-002	6.63753E-001	-4.33732E-002	-6.69204E-004	4.91629E-005	-6.27864E-003	-6.73090E-003	3.17382E-004	4.25211E-004	-7.25312E-003	4.73958E-004
	61	61	4.99893E-002	-1.06552E-002	0.00000E+000	-5.32646E-004	-1.04839E-001	3.65637E-002	3.31288E+001	11	...........	6.10082E-002	-4.46042E-003	5.74625E-001	6.15864E-001	-2.90506E-002	-3.89079E-002	6.63746E-001	-4.33261E-002	-6.50054E-004	4.75266E-005	-6.12273E-003	-6.56215E-003	3.09539E-004	4.14571E-004	-7.07234E-003	4.61648E-004
	62	62	4.99905E-002	-1.06218E-002	0.00000E+000	-5.30990E-004	-1.04507E-001	3.67448E-002	3.35996E+001	11	...........	6.13267E-002	-4.39125E-003	5.74654E-001	6.15736E-001	-2.90372E-002	-3.89278E-002	6.63646E-001	-4.32364E-002	-6.51401E-004	4.66431E-005	-6.10387E-003	-6.54024E-003	3.08428E-004	4.13484E-004	-7.04913E-003	4.59249E-004
	63	63	4.99903E-002	-1.04675E-002	0.00000E+000	-5.23272E-004	-1.02980E-001	3.66653E-002	3.31590E+001	11	...........	6.11928E-002	-4.34958E-003	5.74685E-001	6.15873E-001	-2.90374E-002	-3.89212E-002	6.63629E-001	-4.31885E-002	-6.40534E-004	4.55292E-005	-6.01551E-003	-6.44664E-003	3.03948E-004	4.07407E-004	-6.94652E-003	4.52074E-004
	64	64	4.99884E-002	-1.03179E-002	0.00000E+000	-5.15777E-004	-1.01526E-001	3.67214E-002	3.34156E+001	11	...........	6.12861E-002	-4.43722E-003	5.74807E-001	6.16027E-001	-2.90465E-002	-3.89165E-002	6.63578E-001	-4.31037E-002	-6.32347E-004	4.57830E-005	-5.93083E-003	-6.35614E-003	2.99700E-004	4.01538E-004	-6.84676E-003	4.44742E-004
	65	65	4.99883E-002	-1.01316E-002	0.00000E+000	-5.06461E-004	-9.96720E-002	3.66611E-002	3.24886E+001	11	...........	6.11758E-002	-4.43000E-003	5.74998E-001	6.16191E-001	-2.90192E-002	-3.89012E-002	6.63617E-001	-4.30665E-002	-6.19809E-004	4.48829E-005	-5.82565E-003	-6.24299E-003	2.94010E-004	3.94132E-004	-6.72349E-003	4.36332E-004
	66	66	4.99946E-002	-1.00710E-002	0.00000E+000	-5.03496E-004	-9.90650E-002	3.66991E-002	3.32654E+001	11	...........	6.12536E-002	-4.40389E-003	5.75039E-001	6.16241E-001	-2.90176E-002	-3.89071E-002	6.63643E-001	-4.30786E-002	-6.16886E-004	4.43516E-005	-5.79123E-003	-6.20617E-003	2.92237E-004	3.91834E-004	-6.68356E-003	4.33845E-004
	67	67	4.99901E-002	-1.00005E-002	0.00000E+000	-4.99928E-004	-9.83713E-002	3.66945E-002	3.36544E+001	11	...........	6.12337E-002	-4.28208E-003	5.74892E-001	6.16362E-001	-2.90006E-002	-3.88997E-002	6.63537E-001	-4.30646E-002	-6.12371E-004	4.28232E-005	-5.74923E-003	-6.16396E-003	2.90021E-004	3.89019E-004	-6.63573E-003	4.30669E-004
	68	68	4.99906E-002	-9.88120E-003	0.00000E+000	-4.93967E-004	-9.71797E-002	3.67114E-002	3.34149E+001	11	...........	6.12621E-002	-4.31667E-003	5.74766E-001	6.16486E-001	-2.89924E-002	-3.88486E-002	6.63634E-001	-4.31631E-002	-6.05343E-004	4.26539E-005	-5.67938E-003	-6.09163E-003	2.86479E-004	3.83871E-004	-6.55750E-003	4.26503E-004
	69	69	4.99899E-002	-9.70837E-003	0.00000E+000	-4.85321E-004	-9.54547E-002	3.67507E-002	3.34691E+001	11	...........	6.13368E-002	-4.25194E-003	5.74608E-001	6.16420E-001	-2.89756E-002	-3.88353E-002	6.63630E-001	-4.31840E-002	-5.95481E-004	4.12795E-005	-5.57851E-003	-5.98444E-003	2.81306E-004	3.77027E-004	-6.44277E-003	4.19247E-004
	70	70	4.99914E-002	-9.65062E-003	0.00000E+000	-4.82447E-004	-9.48800E-002	3.66221E-002	3.30698E+001	11	...........	6.11282E-002	-4.33736E-003	5.74807E-001	6.16509E-001	-2.89672E-002	-3.88193E-002	6.63669E-001	-4.31794E-002	-5.89925E-004	4.18582E-005	-5.54724E-003	-5.94969E-003	2.79551E-004	3.74630E-004	-6.40481E-003	4.16708E-004
	71	71	4.99901E-002	-9.55698E-003	0.00000E+000	-4.77754E-004	-9.39483E-002	3.67297E-002	3.37164E+001	11	...........	6.12954E-002	-4.21167E-003	5.74769E-001	6.16529E-001	-2.89428E-002	-3.88308E-002	6.63625E-001	-4.31931E-002	-5.85799E-004	4.02508E-005	-5.49306E-003	-5.89215E-003	2.76606E-004	3.71106E-004	-6.34226E-003	4.12795E-004
	72	72	4.99902E-002	-9.44209E-003	0.00000E+000	-4.72012E-004	-9.28040E-002	3.68030E-002	3.32939E+001	11	...........	6.14232E-002	-4.15486E-003	5.74693E-001	6.16618E-001	-2.89572E-002	-3.88144E-002	6.63553E-001	-4.31464E-002	-5.79963E-004	3.92306E-005	-5.42630E-003	-5.82216E-003	2.73417E-004	3.66489E-004	-6.26533E-003	4.07392E-004
	73	73	4.99909E-002	-9.33433E-003	0.00000E+000	-4.66631E-004	-9.17273E-002	3.68047E-002	3.36531E+001	11	...........	6.14210E-002	-4.32042E-003	5.74782E-001	6.16718E-001	-2.89210E-002	-3.88167E-002	6.63450E-001	-4.31415E-002	-5.73324E-004	4.03282E-005	-5.36520E-003	-5.75665E-003	2.69958E-004	3.62328E-004	-6.19286E-003	4.02697E-004
	74	74	4.99890E-002	-9.20069E-003	0.00000E+000	-4.59933E-004	-9.03923E-002	3.66853E-002	3.38633E+001	11	...........	6.12214E-002	-4.42319E-003	5.74625E-001	6.16725E-001	-2.89018E-002	-3.88097E-002	6.63488E-001	-4.31097E-002	-5.63279E-004	4.06964E-005	-5.28695E-003	-5.67429E-003	2.65917E-004	3.57076E-004	-6.10455E-003	3.96639E-004
	75	75	4.99891E-002	-9.02271E-003	0.00000E+000	-4.51037E-004	-8.86323E-002	3.67953E-002	3.25103E+001	11	...........	6.14047E-002	-4.49944E-003	5.74681E-001	6.16605E-001	-2.88908E-002	-3.88187E-002	6.63397E-001	-4.31717E-002	-5.54037E-004	4.05972E-005	-5.18518E-003	-5.56345E-003	2.60674E-004	3.50250E-004	-5.98564E-003	3.89526E-004
	76	76	4.99929E-002	-8.88954E-003	0.00000E+000	-4.44414E-004	-8.73243E-002	3.66732E-002	3.28481E+001	11	...........	6.11950E-002	-4.43764E-003	5.74603E-001	6.16631E-001	-2.89074E-002	-3.88219E-002	6.63293E-001	-4.32090E-002	-5.43995E-004	3.94486E-005	-5.10795E-003	-5.48157E-003	2.56973E-004	3.45109E-004	-5.89637E-003	3.84108E-004
	77	77	4.99914E-002	-8.88948E-003	0.00000E+000	-4.44397E-004	-8.73247E-002	3.68293E-002	3.37649E+001	11	...........	6.14689E-002	-4.40222E-003	5.74734E-001	6.16684E-001	-2.89122E-002	-3.88310E-002	6.63328E-001	-4.31562E-002	-5.46427E-004	3.91335E-005	-5.10909E-003	-5.48200E-003	2.57015E-004	3.45187E-004	-5.89664E-003	3.83637E-004
	78	78	4.99896E-002	-8.80936E-003	0.00000E+000	-4.40377E-004	-8.65273E-002	3.68279E-002	3.34774E+001	11	...........	6.14615E-002	-4.33417E-003	5.74894E-001	6.16561E-001	-2.89078E-002	-3.88412E-002	6.63340E-001	-4.31696E-002	-5.41437E-004	3.81812E-005	-5.06444E-003	-5.43151E-003	2.54659E-004	3.42167E-004	-5.84360E-003	3.80296E-004
	79	79	4.99905E-002	-8.66476E-003	0.00000E+000	-4.33156E-004	-8.50877E-002	3.68084E-002	3.37301E+001	11	...........	6.14306E-002	-4.27681E-003	5.74980E-001	6.16647E-001	-2.89137E-002	-3.88614E-002	6.63347E-001	-4.31839E-002	-5.32281E-004	3.70575E-005	-4.98207E-003	-5.34310E-003	2.50531E-004	3.36725E-004	-5.74774E-003	3.74178E-004
	80	80	4.99901E-002	-8.55307E-003	0.00000E+000	-4.27569E-004	-8.39777E-002	3.67859E-002	3.32134E+001	11	...........	6.13879E-002	-4.32986E-003	5.75051E-001	6.16603E-001	-2.89396E-002	-3.88674E-002	6.63305E-001	-4.32250E-002	-5.25055E-004	3.70336E-005	-4.91845E-003	-5.27385E-003	2.47522E-004	3.32435E-004	-5.67330E-003	3.69707E-004
	81	81	4.99895E-002	-8.43101E-003	0.00000E+000	-4.21462E-004	-8.27567E-002	3.68172E-002	3.34305E+001	11	...........	6.14304E-002	-4.33931E-003	5.75160E-001	6.16430E-001	-2.89578E-002	-3.88664E-002	6.63306E-001	-4.33068E-002	-5.17920E-004	3.65847E-005	-4.84918E-003	-5.19713E-003	2.44143E-004	3.27683E-004	-5.59234E-003	3.65120E-004
	82	82	4.99897E-002	-8.30089E-003	0.00000E+000	-4.14959E-004	-8.14640E-002	3.68065E-002	3.27805E+001	11	...........	6.14078E-002	-4.36111E-003	5.75329E-001	6.16342E-001	-2.89735E-002	-3.88435E-002	6.63291E-001	-4.32464E-002	-5.09739E-004	3.62011E-005	-4.77575E-003	-5.11619E-003	2.40506E-004	3.22435E-004	-5.50591E-003	3.58984E-004
	83	83	4.99927E-002	-8.27172E-003	0.00000E+000	-4.13525E-004	-8.11730E-002	3.68492E-002	3.31178E+001	11	...........	6.14801E-002	-4.31069E-003	5.75361E-001	6.16276E-001	-2.89690E-002	-3.88608E-002	6.63413E-001	-4.31746E-002	-5.08547E-004	3.56569E-005	-4.75923E-003	-5.09767E-003	2.39624E-004	3.21446E-004	-5.48757E-003	3.57128E-004
	84	84	4.99916E-002	-8.20955E-003	0.00000E+000	-4.10409E-004	-8.05507E-002	3.68497E-002	3.36680E+001	11	...........	6.14914E-002	-4.28833E-003	5.75314E-001	6.16181E-001	-2.89699E-002	-3.88276E-002	6.63487E-001	-4.31618E-002	-5.04817E-004	3.52053E-005	-4.72307E-003	-5.05857E-003	2.37830E-004	3.18758E-004	-5.44693E-003	3.54339E-004
	85	85	4.99909E-002	-8.11900E-003	0.00000E+000	-4.05876E-004	-7.96473E-002	3.68323E-002	3.38508E+001	11	...........	6.14610E-002	-4.37097E-003	5.75416E-001	6.16274E-001	-2.89644E-002	-3.88118E-002	6.63442E-001	-4.32015E-002	-4.99001E-004	3.54879E-005	-4.67180E-003	-5.00353E-003	2.35162E-004	3.15113E-004	-5.38649E-003	3.50753E-004
	86	86	4.99895E-002	-7.99240E-003	0.00000E+000	-3.99536E-004	-7.83887E-002	3.68052E-002	3.32999E+001	11	...........	6.14121E-002	-4.35806E-003	5.75504E-001	6.16370E-001	-2.89729E-002	-3.88186E-002	6.63483E-001	-4.32471E-002	-4.90830E-004	3.48313E-005	-4.59966E-003	-4.92628E-003	2.31563E-004	3.10254E-004	-5.30282E-003	3.45648E-004
	87	87	4.99912E-002	-7.86156E-003	0.00000E+000	-3.93009E-004	-7.70917E-002	3.67044E-002	3.28473E+001	11	...........	6.12433E-002	-4.30208E-003	5.75537E-001	6.16455E-001	-2.89725E-002	-3.88656E-002	6.63397E-001	-4.32696E-002	-4.81468E-004	3.38211E-005	-4.52462E-003	-4.84630E-003	2.27769E-004	3.05544E-004	-5.21534E-003	3.40166E-004
	88	88	4.99916E-002	-7.86991E-003	0.00000E+000	-3.93429E-004	-7.71670E-002	3.70168E-002	3.38673E+001	11	...........	6.17764E-002	-4.38972E-003	5.75661E-001	6.16527E-001	-2.89912E-002	-3.88837E-002	6.63457E-001	-4.32485E-002	-4.86174E-004	3.45467E-005	-4.53040E-003	-4.85201E-003	2.28158E-004	3.06011E-004	-5.22135E-003	3.40361E-004
	89	89	4.99907E-002	-7.79206E-003	0.00000E+000	-3.89531E-004	-7.64133E-002	3.68581E-002	3.36376E+001	11	...........	6.14986E-002	-4.42000E-003	5.75577E-001	6.16532E-001	-2.89886E-002	-3.89108E-002	6.63496E-001	-4.32857E-002	-4.79201E-004	3.44409E-005	-4.48493E-003	-4.80405E-003	2.25881E-004	3.03196E-004	-5.17000E-003	3.37285E-004
	90	90	4.99897E-002	-7.67253E-003	0.00000E+000	-3.83547E-004	-7.52223E-002	3.68543E-002	3.35203E+001	11	...........	6.15067E-002	-4.49750E-003	5.75449E-001	6.16391E-001	-2.90033E-002	-3.88962E-002	6.63532E-001	-4.33118E-002	-4.71911E-004	3.45072E-005	-4.41515E-003	-4.72928E-003	2.22529E-004	2.98432E-004	-5.09097E-003	3.32311E-004
	91	91	4.99904E-002	-7.54059E-003	0.00000E+000	-3.76957E-004	-7.39073E-002	3.68822E-002	3.30783E+001	11	...........	6.15524E-002	-4.49472E-003	5.75327E-001	6.16368E-001	-2.90162E-002	-3.89056E-002	6.63667E-001	-4.33007E-002	-4.64141E-004	3.38929E-005	-4.33830E-003	-4.64778E-003	2.18800E-004	2.93371E-004	-5.00444E-003	3.26513E-004
	92	92	4.99917E-002	-7.45701E-003	0.00000E+000	-3.72788E-004	-7.30723E-002	3.68079E-002	3.33685E+001	11	...........	6.14121E-002	-4.40972E-003	5.75111E-001	6.16555E-001	-2.90222E-002	-3.88947E-002	6.63614E-001	-4.33532E-002	-4.57950E-004	3.28833E-005	-4.28861E-003	-4.59765E-003	2.16419E-004	2.90038E-004	-4.94857E-003	3.23285E-004
	93	93	4.99910E-002	-7.46284E-003	0.00000E+000	-3.73074E-004	-7.31337E-002	3.69463E-002	3.39814E+001	11	...........	6.16662E-002	-4.37583E-003	5.75186E-001	6.16692E-001	-2.90349E-002	-3.88861E-002	6.63652E-001	-4.31953E-002	-4.60205E-004	3.26561E-005	-4.29252E-003	-4.60227E-003	2.16682E-004	2.90201E-004	-4.95273E-003	3.22359E-004
	94	94	4.99916E-002	-7.38983E-003	0.00000E+000	-3.69430E-004	-7.24027E-002	3.68845E-002	3.40853E+001	11	...........	6.15710E-002	-4.38000E-003	5.75170E-001	6.16505E-001	-2.90251E-002	-3.88871E-002	6.63633E-001	-4.31346E-002	-4.54999E-004	3.23675E-005	-4.25041E-003	-4.55587E-003	2.14491E-004	2.87369E-004	-4.90414E-003	3.18757E-004
	95	95	4.99900E-002	-7.28842E-003	0.00000E+000	-3.64348E-004	-7.13947E-002	3.68231E-002	3.37750E+001	11	...........	6.14628E-002	-4.41569E-003	5.75082E-001	6.16425E-001	-2.90082E-002	-3.89004E-002	6.63623E-001	-4.31251E-002	-4.47967E-004	3.21834E-005	-4.19144E-003	-4.49277E-003	2.11424E-004	2.83523E-004	-4.83676E-003	3.14314E-004
	96	96	4.99907E-002	-7.23120E-003	0.00000E+000	-3.61493E-004	-7.08207E-002	3.70023E-002	3.34918E+001	11	...........	6.17467E-002	-4.33667E-003	5.75215E-001	6.16223E-001	-2.89914E-002	-3.89131E-002	6.63680E-001	-4.31221E-002	-4.46503E-004	3.13593E-005	-4.15950E-003	-4.45604E-003	2.09643E-004	2.81388E-004	-4.79920E-003	3.11825E-004
	97	97	4.99918E-002	-7.12915E-003	0.00000E+000	-3.56399E-004	-6.98047E-002	3.68421E-002	3.40585E+001	11	...........	6.14615E-002	-4.25597E-003	5.75262E-001	6.16088E-001	-2.89775E-002	-3.89375E-002	6.63653E-001	-4.32306E-002	-4.38168E-004	3.03415E-005	-4.10113E-003	-4.39218E-003	2.06585E-004	2.77591E-004	-4.73128E-003	3.08197E-004
	98	98	4.99909E-002	-7.08136E-003	0.00000E+000	-3.54003E-004	-6.93303E-002	3.68566E-002	3.41112E+001	11	...........	6.15001E-002	-4.27014E-003	5.75179E-001	6.16170E-001	-2.89749E-002	-3.89667E-002	6.63540E-001	-4.32544E-002	-4.35504E-004	3.02384E-005	-4.07304E-003	-4.36332E-003	2.05181E-004	2.75937E-004	-4.69877E-003	3.06300E-004
	99	99	4.99906E-002	-7.02377E-003	0.00000E+000	-3.51123E-004	-6.87557E-002	3.69922E-002	3.37855E+001	11	...........	6.17515E-002	-4.28681E-003	5.75224E-001	6.16147E-001	-2.89622E-002	-3.89860E-002	6.63505E-001	-4.34040E-002	-4.33729E-004	3.01096E-005	-4.04024E-003	-4.32768E-003	2.03424E-004	2.73829E-004	-4.66031E-003	3.04860E-004
	100	100	4.99916E-002	-6.91709E-003	0.00000E+000	-3.45797E-004	-6.76937E-002	3.69288E-002	3.35491E+001	11	...........	6.16406E-002	-4.34764E-003	5.75199E-001	6.16060E-001	-2.89651E-002	-3.89536E-002	6.63544E-001	-4.33444E-002	-4.26374E-004	3.00730E-005	-3.97870E-003	-4.26135E-003	2.00355E-004	2.69446E-004	-4.58980E-003	2.99818E-004
	101	101	4.99909E-002	-6.82014E-003	0.00000E+000	-3.40945E-004	-6.67273E-002	3.67476E-002	3.37620E+001	11	...........	6.13396E-002	-4.27278E-003	5.75121E-001	6.15915E-001	-2.89571E-002	-3.89385E-002	6.63516E-001	-4.32731E-002	-4.18345E-004	2.91410E-005	-3.92241E-003	-4.20063E-003	1.97491E-004	2.65566E-004	-4.52528E-003	2.95128E-004
	102	102	4.99905E-002	-6.80217E-003	0.00000E+000	-3.40044E-004	-6.65480E-002	3.69837E-002	3.36079E+001	11	...........	6.17108E-002	-4.47597E-003	5.75274E-001	6.15674E-001	-2.89456E-002	-3.89793E-002	6.63569E-001	-4.34326E-002	-4.19768E-004	3.04463E-005	-3.91311E-003	-4.18793E-003	1.96893E-004	2.65144E-004	-4.51371E-003	2.95436E-004
	103	103	4.99909E-002	-6.71034E-003	0.00000E+000	-3.35456E-004	-6.56300E-002	3.69690E-002	3.39009E+001	11	...........	6.16978E-002	-4.49403E-003	5.75349E-001	6.15762E-001	-2.89356E-002	-3.89911E-002	6.63432E-001	-4.33396E-002	-4.14013E-004	3.01564E-005	-3.86078E-003	-4.13197E-003	1.94167E-004	2.61644E-004	-4.45185E-003	2.90823E-004
	104	104	4.99913E-002	-6.67399E-003	0.00000E+000	-3.33642E-004	-6.52740E-002	3.70001E-002	3.40089E+001	11	...........	6.17539E-002	-4.37167E-003	5.75403E-001	6.15798E-001	-2.89290E-002	-3.89986E-002	6.63396E-001	-4.32482E-002	-4.12145E-004	2.91765E-005	-3.84024E-003	-4.10983E-003	1.93072E-004	2.60276E-004	-4.42750E-003	2.88638E-004
	105	105	4.99909E-002	-6.58346E-003	0.00000E+000	-3.29113E-004	-6.43683E-002	3.69162E-002	3.42328E+001	11	...........	6.16025E-002	-4.30819E-003	5.75298E-001	6.15702E-001	-2.89267E-002	-3.89854E-002	6.63381E-001	-4.32182E-002	-4.05558E-004	2.83628E-005	-3.78745E-003	-4.05345E-003	1.90438E-004	2.56659E-004	-4.36734E-003	2.84525E-004
	106	106	4.99896E-002	-6.49654E-003	0.00000E+000	-3.24760E-004	-6.35073E-002	3.69982E-002	3.40392E+001	11	...........	6.17411E-002	-4.39042E-003	5.75170E-001	6.15749E-001	-2.89425E-002	-3.89732E-002	6.63362E-001	-4.32893E-002	-4.01103E-004	2.85225E-005	-3.73661E-003	-4.00024E-003	1.88026E-004	2.53191E-004	-4.30956E-003	2.81231E-004
	107	107	4.99916E-002	-6.41283E-003	0.00000E+000	-3.20587E-004	-6.26953E-002	3.68832E-002	3.29066E+001	11	...........	6.15414E-002	-4.44389E-003	5.75084E-001	6.15844E-001	-2.89474E-002	-3.89461E-002	6.63276E-001	-4.33349E-002	-3.94654E-004	2.84979E-005	-3.68791E-003	-3.94930E-003	1.85634E-004	2.49755E-004	-4.25347E-003	2.77899E-004
	108	108	4.99913E-002	-6.36241E-003	0.00000E+000	-3.18065E-004	-6.21957E-002	3.70044E-002	3.37884E+001	11	...........	6.17606E-002	-4.46625E-003	5.75118E-001	6.16005E-001	-2.89383E-002	-3.89479E-002	6.63310E-001	-4.33150E-002	-3.92946E-004	2.84161E-005	-3.65913E-003	-3.91928E-003	1.84117E-004	2.47803E-004	-4.22025E-003	2.75588E-004
	109	109	4.99915E-002	-6.32557E-003	0.00000E+000	-3.16224E-004	-6.18247E-002	3.70009E-002	3.39951E+001	11	...........	6.17632E-002	-4.42403E-003	5.75088E-001	6.16136E-001	-2.89414E-002	-3.89279E-002	6.63340E-001	-4.33072E-002	-3.90687E-004	2.79845E-005	-3.63776E-003	-3.89741E-003	1.83071E-004	2.46241E-004	-4.19600E-003	2.73943E-004
	110	110	4.99909E-002	-6.25106E-003	0.00000E+000	-3.12496E-004	-6.10810E-002	3.68692E-002	3.40099E+001	11	...........	6.15267E-002	-4.25278E-003	5.74942E-001	6.16114E-001	-2.89403E-002	-3.89090E-002	6.63301E-001	-4.32531E-002	-3.84607E-004	2.65844E-005	-3.59400E-003	-3.85137E-003	1.80908E-004	2.43223E-004	-4.14633E-003	2.70378E-004
	111	111	4.99912E-002	-6.21215E-003	0.00000E+000	-3.10552E-004	-6.06943E-002	3.71088E-002	3.41357E+001	11	...........	6.19475E-002	-4.38361E-003	5.74887E-001	6.16117E-001	-2.89282E-002	-3.88958E-002	6.63354E-001	-4.32228E-002	-3.84827E-004	2.72316E-005	-3.57128E-003	-3.82741E-003	1.79706E-004	2.41627E-004	-4.12085E-003	2.68506E-004
	112	112	4.99907E-002	-6.13094E-003	0.00000E+000	-3.06490E-004	-5.98853E-002	3.68977E-002	3.37893E+001	11	...........	6.15746E-002	-4.28333E-003	5.74912E-001	6.16191E-001	-2.89303E-002	-3.88554E-002	6.63306E-001	-4.31968E-002	-3.77510E-004	2.62609E-005	-3.52475E-003	-3.77783E-003	1.77370E-004	2.38220E-004	-4.06669E-003	2.64837E-004
	113	113	4.99903E-002	-6.05290E-003	0.00000E+000	-3.02586E-004	-5.91093E-002	3.70341E-002	3.37432E+001	11	...........	6.18217E-002	-4.20194E-003	5.74906E-001	6.16521E-001	-2.89268E-002	-3.88818E-002	6.63271E-001	-4.31768E-002	-3.74200E-004	2.54339E-005	-3.47985E-003	-3.73174E-003	1.75091E-004	2.35348E-004	-4.01471E-003	2.61345E-004
	114	114	4.99916E-002	-5.97241E-003	0.00000E+000	-2.98570E-004	-5.83093E-002	3.68851E-002	3.30204E+001	11	...........	6.15561E-002	-4.33528E-003	5.74989E-001	6.16701E-001	-2.89312E-002	-3.88757E-002	6.63303E-001	-4.32162E-002	-3.67638E-004	2.58920E-005	-3.43407E-003	-3.68319E-003	1.72789E-004	2.32181E-004	-3.96151E-003	2.58105E-004
	115	115	4.99920E-002	-5.94576E-003	0.00000E+000	-2.97240E-004	-5.80387E-002	3.70988E-002	3.37603E+001	11	...........	6.19097E-002	-4.43569E-003	5.75061E-001	6.16834E-001	-2.89358E-002	-3.88814E-002	6.63309E-001	-4.32051E-002	-3.68100E-004	2.63736E-005	-3.41918E-003	-3.66754E-003	1.72045E-004	2.31179E-004	-3.94387E-003	2.56887E-004
	116	116	4.99911E-002	-5.89200E-003	0.00000E+000	-2.94548E-004	-5.75073E-002	3.69266E-002	3.36817E+001	11	...........	6.16139E-002	-4.46431E-003	5.74985E-001	6.17001E-001	-2.89315E-002	-3.88989E-002	6.63325E-001	-4.31837E-002	-3.63029E-004	2.63037E-005	-3.38781E-003	-3.63537E-003	1.70465E-004	2.29192E-004	-3.90831E-003	2.54439E-004
	117	117	4.99901E-002	-5.85515E-003	0.00000E+000	-2.92699E-004	-5.71390E-002	3.71346E-002	3.38258E+001	11	...........	6.19751E-002	-4.36361E-003	5.75044E-001	6.17032E-001	-2.89321E-002	-3.88829E-002	6.63378E-001	-4.32194E-002	-3.62874E-004	2.55496E-005	-3.36697E-003	-3.61282E-003	1.69402E-004	2.27665E-004	-3.88418E-003	2.53056E-004
	118	118	4.99918E-002	-5.77600E-003	0.00000E+000	-2.88753E-004	-5.63567E-002	3.70211E-002	3.39267E+001	11	...........	6.17947E-002	-4.19306E-003	5.74982E-001	6.17069E-001	-2.89565E-002	-3.88590E-002	6.63468E-001	-4.32014E-002	-3.56927E-004	2.42191E-005	-3.32110E-003	-3.56419E-003	1.67253E-004	2.24450E-004	-3.83219E-003	2.49531E-004
	119	119	4.99907E-002	-5.69169E-003	0.00000E+000	-2.84532E-004	-5.55213E-002	3.70009E-002	3.32378E+001	11	...........	6.17581E-002	-4.28847E-003	5.74930E-001	6.17103E-001	-2.89421E-002	-3.88418E-002	6.63315E-001	-4.32496E-002	-3.51508E-004	2.44087E-005	-3.27232E-003	-3.51236E-003	1.64729E-004	2.21076E-004	-3.77539E-003	2.46163E-004
	120	120	4.99922E-002	-5.66789E-003	0.00000E+000	-2.83351E-004	-5.52800E-002	3.69879E-002	3.35069E+001	11	...........	6.17294E-002	-4.22389E-003	5.74876E-001	6.17235E-001	-2.89731E-002	-3.88414E-002	6.63292E-001	-4.32381E-002	-3.49876E-004	2.39405E-005	-3.25833E-003	-3.49842E-003	1.64216E-004	2.20149E-004	-3.75947E-003	2.45069E-004
	121	121	4.99909E-002	-5.62694E-003	0.00000E+000	-2.81296E-004	-5.48677E-002	3.69321E-002	3.37831E+001	11	...........	6.18037E-002	-4.36514E-003	5.74837E-001	6.17209E-001	-2.89714E-002	-3.88417E-002	6.63231E-001	-4.32153E-002	-3.47766E-004	2.45624E-005	-3.23457E-003	-3.47300E-003	1.63020E-004	2.18560E-004	-3.73196E-003	2.43170E-004
	122	122	4.99916E-002	-5.60488E-003	0.00000E+000	-2.80197E-004	-5.46470E-002	3.71754E-002	3.40206E+001	11	...........	6.20304E-002	-4.29306E-003	5.74875E-001	6.17203E-001	-2.89660E-002	-3.88356E-002	6.63426E-001	-4.32246E-002	-3.47673E-004	2.40620E-005	-3.22210E-003	-3.45935E-003	1.62351E-004	2.17668E-004	-3.71842E-003	2.42268E-004
	123	123	4.99912E-002	-5.54324E-003	0.00000E+000	-2.77113E-004	-5.40377E-002	3.70419E-002	3.37463E+001	11	...........	6.18350E-002	-4.28389E-003	5.74744E-001	6.17292E-001	-2.89669E-002	-3.88356E-002	6.63410E-001	-4.31886E-002	-3.42766E-004	2.37466E-005	-3.18595E-003	-3.42180E-003	1.60571E-004	2.15275E-004	-3.67744E-003	2.39405E-004
	124	124	4.99906E-002	-5.44591E-003	0.00000E+000	-2.72244E-004	-5.30670E-002	3.69680E-002	3.36962E+001	11	...........	6.16910E-002	-4.29514E-003	5.74762E-001	6.17373E-001	-2.89731E-002	-3.88681E-002	6.63352E-001	-4.32354E-002	-3.35963E-004	2.33909E-005	-3.13010E-003	-3.36215E-003	1.57784E-004	2.11672E-004	-3.61255E-003	2.35456E-004
	125	125	4.99911E-002	-5.40144E-003	0.00000E+000	-2.70024E-004	-5.26263E-002	3.70271E-002	3.32437E+001	11	...........	6.17968E-002	-4.33042E-003	5.74889E-001	6.17337E-001	-2.89436E-002	-3.88625E-002	6.63263E-001	-4.32775E-002	-3.33792E-004	2.33905E-005	-3.10523E-003	-3.33451E-003	1.56337E-004	2.09913E-004	-3.58258E-003	2.33761E-004
	126	126	4.99920E-002	-5.39965E-003	0.00000E+000	-2.69940E-004	-5.26093E-002	3.71829E-002	3.36789E+001	11	...........	6.20443E-002	-4.25736E-003	5.75009E-001	6.17315E-001	-2.89568E-002	-3.88607E-002	6.63355E-001	-4.31857E-002	-3.35017E-004	2.29883E-005	-3.10484E-003	-3.33329E-003	1.56357E-004	2.09834E-004	-3.58189E-003	2.33188E-004
	127	127	4.99907E-002	-5.31088E-003	0.00000E+000	-2.65495E-004	-5.17240E-002	3.70306E-002	3.41843E+001	11	...........	6.18074E-002	-4.26500E-003	5.75215E-001	6.17357E-001	-2.89576E-002	-3.88604E-002	6.63455E-001	-4.31925E-002	-3.28251E-004	2.26509E-005	-3.05490E-003	-3.27871E-003	1.53790E-004	2.06383E-004	-3.52353E-003	2.29390E-004
	128	128	4.99912E-002	-5.29277E-003	0.00000E+000	-2.64592E-004	-5.15420E-002	3.71097E-002	3.38862E+001	11	...........	6.19337E-002	-4.30792E-003	5.75180E-001	6.17352E-001	-2.89435E-002	-3.88544E-002	6.63409E-001	-4.32171E-002	-3.27801E-004	2.28008E-005	-3.04430E-003	-3.26751E-003	1.53191E-004	2.05648E-004	-3.51127E-003	2.28738E-004
	129	129	4.99913E-002	-5.21821E-003	0.00000E+000	-2.60865E-004	-5.08143E-002	3.70843E-002	3.37713E+001	11	...........	6.18864E-002	-4.35944E-003	5.75249E-001	6.17437E-001	-2.89406E-002	-3.88644E-002	6.63309E-001	-4.32267E-002	-3.22936E-004	2.27485E-005	-3.00177E-003	-3.22192E-003	1.51018E-004	2.02803E-004	-3.46129E-003	2.25566E-004
	130	130	4.99911E-002	-5.14238E-003	0.00000E+000	-2.57073E-004	-5.00600E-002	3.69383E-002	3.29752E+001	11	...........	6.16318E-002	-4.30417E-003	5.75442E-001	6.17406E-001	-2.89333E-002	-3.88742E-002	6.63346E-001	-4.31892E-002	-3.16934E-004	2.21337E-005	-2.95914E-003	-3.17493E-003	1.48786E-004	1.99906E-004	-3.41118E-003	2.22095E-004
	131	131	4.99914E-002	-5.15211E-003	0.00000E+000	-2.57562E-004	-5.01580E-002	3.71807E-002	3.40104E+001	11	...........	6.20687E-002	-4.39292E-003	5.75470E-001	6.17294E-001	-2.89260E-002	-3.89054E-002	6.63250E-001	-4.31729E-002	-3.19785E-004	2.26328E-005	-2.96489E-003	-3.18037E-003	1.49030E-004	2.00445E-004	-3.41714E-003	2.22432E-004
	132	131.683	4.99903E-002	-5.10909E-003	0.00000E+000	-2.55405E-004	-4.97259E-002	3.71639E-002	3.38932E+001	11	...........	6.20211E-002	-4.34654E-003	5.75351E-001	6.17335E-001	-2.89398E-002	-3.89014E-002	6.63337E-001	-4.32829E-002	-3.16872E-004	2.22069E-005	-2.93952E-003	-3.15402E-003	1.47856E-004	1.98751E-004	-3.38905E-003	2.21136E-004
STARTTIMEOFFSET	QUANT	787908.1	Start Time Offset (s)
