EXPLAIN
TAG	PWR800_DISCHARGE
TITLE	LABEL	PWR Discharge	Test Identifier
DATE	LABEL	10/16/2022	Date
TIME	LABEL	9:32:36	Time
NOTES	NOTES	1	Notes...
	
PSTAT	PSTAT	REF3000-21114	Potentiostat
CAPACITY	QUANT	5.30000E-002	Capacity (A-hr)
CELLTYPE	SELECTOR	1	Cell Type
WORKINGCONNECTION	SELECTOR	0	Working Connection
MAXDISCHARGETIME	VARIABLEANDUNITS	7.20000E+003	s	2.00000E+000	hour(s)	Max Discharge Time
DISCHARGEMODE	MULTIPARAM	0	1.00000E-001	Discharge Mode	Constant Current	Amp(s)
VOLTAGEFINISH	TWOPARAM	T	5.00000E-003	7.20000E+003	Voltage Finish	I (A) <	Max Time(s)
SAMPLETIME	QUANT	1.00000E+000	Sample Period (s)
DISCHARGESTOPAT1	MULTIPARAM	1	5.00000E-002	Stop At 1	|Voltage| < Limit	V
DISCHARGESTOPAT2	MULTIPARAM	0	0.00000E+000	Stop At 2	None	N/A
AESELECTOR	AESELECTOR	0x1	T	Set Limits	AE Channels
AESBHCSELECTOR	TOGGLE	F	Save Both Half Cells
IRCOMP	TOGGLE	F	IR Measure
EOC	QUANT	0.5363261	Open Circuit (V)
SEQUENCER	TOGGLE	TRUE	Run as Sequence
PSTATMODEL	IQUANT	5	Pstat Model
PSTATSECTION	LABEL	REF3000-21114	Pstat Section
PSTATSERIALNO	LABEL	21114	Pstat Serial Number
CTRLMODE	IQUANT	0	Control Mode
ELECTROMETER	IQUANT	0	RE=0 or CS=1
IESTAB	IQUANT	0	I/E Stability
CASPEED	IQUANT	4	Control Amp Speed
CONVENTION	IQUANT	1	Current Convention
ICHRANGE	IQUANT	2	Ich Range
ICHRANGEMODE	TOGGLE	T	Ich Auto Range
ICHOFFSETENABLE	TOGGLE	F	Ich Offset Enable
ICHOFFSET	QUANT	0	Ich Offset (V)
ICHFILTER	IQUANT	1	Ich Filter
VCHRANGE	IQUANT	3	Vch Range
VCHRANGEMODE	TOGGLE	T	Vch Auto Range
VCHOFFSETENABLE	TOGGLE	F	Vch Offset Enable
VCHOFFSET	QUANT	0	Vch Offset (V)
VCHFILTER	IQUANT	1	Vch Filter
ACHRANGE	IQUANT	2	Ach Range
ACHOFFSETENABLE	TOGGLE	F	Ach Offset Enable
ACHOFFSET	QUANT	0	Ach Offset (V)
ACHFILTER	IQUANT	1	Ach Filter
IERANGELOWERLIMIT	IQUANT	9	I/E Range Lower Limit
IERANGEMODE	TOGGLE	F	I/E AutoRange
IERANGE	IQUANT	9	I/E Range
POSFEEDENABLE	TOGGLE	F	Positive Feedback IR Comp
POSFEEDRESISTANCE	QUANT	0	Positive Feedback Resistance (ohm)
ACHSELECT	IQUANT	1	Ach Select
SENSECABLEID	IQUANT	13	Sense Cable ID
PWRCABLEID	IQUANT	13	Power Cable ID
DCCALDATE	LABEL		DC Calibration Date
ACCALDATE	LABEL		AC Calibration Date
THERMOSELECT	IQUANT	1	Thermo Select
FRAMEWORKVERSION	LABEL	7.8.6	Framework Version
INSTRUMENTVERSION	LABEL	4.50	Instrument Version
COMPLIANCEVOLTAGE	IQUANT	0	Compliance Voltage
CURVE	TABLE	87
	Pt	T	Vf	Im	Vu	Pwr	Sig	Ach	Temp	IERange	Over	Vf1	Vf2	Vf3	Vf4	Vf5	Vf6	Vf7	Vf8	Pwr1	Pwr2	Pwr3	Pwr4	Pwr5	Pwr6	Pwr7	Pwr8
	#	s	V	A	V	W	V	V	deg C	#	bits	V	V	V	V	V	V	V	V	W	W	W	W	W	W	W	W
	0	1	2.92769E-001	-1.00093E-001	0.00000E+000	-2.93040E-002	-9.94000E-001	3.55702E-002	2.87167E+001	11	...........	5.90707E-002	-4.36347E-003	5.75833E-001	6.18106E-001	-2.94144E-002	-3.91108E-002	6.66620E-001	-4.33347E-002	-5.91254E-003	4.36751E-004	-5.76367E-002	-6.18678E-002	2.94417E-003	3.91471E-003	-6.67237E-002	4.33749E-003
	1	2	1.95834E-001	-1.00093E-001	0.00000E+000	-1.96017E-002	-9.94000E-001	3.56345E-002	2.80280E+001	11	...........	5.92069E-002	-4.38931E-003	5.75870E-001	6.18107E-001	-2.93722E-002	-3.91217E-002	6.66691E-001	-4.33312E-002	-5.92623E-003	4.39341E-004	-5.76408E-002	-6.18685E-002	2.93997E-003	3.91582E-003	-6.67314E-002	4.33717E-003
	2	3	1.11263E-001	-1.00093E-001	0.00000E+000	-1.11367E-002	-9.94000E-001	3.55098E-002	2.72355E+001	11	...........	5.90001E-002	-4.39556E-003	5.75901E-001	6.18118E-001	-2.93672E-002	-3.91390E-002	6.66758E-001	-4.33376E-002	-5.90551E-003	4.39965E-004	-5.76438E-002	-6.18693E-002	2.93946E-003	3.91755E-003	-6.67379E-002	4.33780E-003
	3	3.295	6.07855E-002	-1.00094E-001	0.00000E+000	-6.08426E-003	-9.94000E-001	3.54935E-002	2.63914E+001	11	...........	5.89802E-002	-4.43079E-003	5.76065E-001	6.18016E-001	-2.94633E-002	-3.91365E-002	6.66729E-001	-4.33117E-002	-5.90356E-003	4.43495E-004	-5.76606E-002	-6.18596E-002	2.94909E-003	3.91733E-003	-6.67355E-002	4.33523E-003
	4	4	4.93789E-002	-8.28173E-002	0.00000E+000	-4.08942E-003	-8.22234E-001	3.56280E-002	2.71236E+001	11	...........	5.92161E-002	-4.56481E-003	5.76052E-001	6.18011E-001	-2.93550E-002	-3.91316E-002	6.66718E-001	-4.33260E-002	-4.90412E-003	3.78045E-004	-4.77070E-002	-5.11820E-002	2.43110E-003	3.24077E-003	-5.52158E-002	3.58814E-003
	5	5	4.96705E-002	-5.78340E-002	0.00000E+000	-2.87264E-003	-5.73858E-001	3.57301E-002	2.77379E+001	11	...........	5.93687E-002	-4.48056E-003	5.75948E-001	6.17986E-001	-2.93814E-002	-3.91308E-002	6.66701E-001	-4.33085E-002	-3.43353E-003	2.59128E-004	-3.33094E-002	-3.57406E-002	1.69924E-003	2.26309E-003	-3.85580E-002	2.50470E-003
	6	6	4.98067E-002	-4.21789E-002	0.00000E+000	-2.10079E-003	-4.18216E-001	3.57866E-002	2.91038E+001	11	...........	5.94203E-002	-4.45583E-003	5.75950E-001	6.17970E-001	-2.93493E-002	-3.91419E-002	6.66707E-001	-4.33151E-002	-2.50628E-003	1.87942E-004	-2.42929E-002	-2.60653E-002	1.23792E-003	1.65096E-003	-2.81210E-002	1.82698E-003
	7	7	4.98670E-002	-3.31218E-002	0.00000E+000	-1.65169E-003	-3.28167E-001	3.58389E-002	3.00864E+001	11	...........	5.94857E-002	-4.50125E-003	5.76107E-001	6.18004E-001	-2.93564E-002	-3.91775E-002	6.66544E-001	-4.33267E-002	-1.97027E-003	1.49090E-004	-1.90817E-002	-2.04694E-002	9.72337E-004	1.29763E-003	-2.20771E-002	1.43506E-003
	8	8	4.98954E-002	-2.71664E-002	0.00000E+000	-1.35548E-003	-2.68969E-001	3.58473E-002	3.05970E+001	11	...........	5.94871E-002	-4.48889E-003	5.76075E-001	6.18189E-001	-2.93358E-002	-3.92451E-002	6.66578E-001	-4.33317E-002	-1.61605E-003	1.21947E-004	-1.56499E-002	-1.67939E-002	7.96948E-004	1.06615E-003	-1.81085E-002	1.17716E-003
	9	9	4.99166E-002	-2.34190E-002	0.00000E+000	-1.16899E-003	-2.31697E-001	3.58872E-002	3.01352E+001	11	...........	5.95936E-002	-4.57000E-003	5.76025E-001	6.18249E-001	-2.93853E-002	-3.92501E-002	6.66513E-001	-4.33347E-002	-1.39562E-003	1.07025E-004	-1.34899E-002	-1.44788E-002	6.88173E-004	9.19198E-004	-1.56090E-002	1.01486E-003
	10	10	4.99346E-002	-2.06713E-002	0.00000E+000	-1.03221E-003	-2.04384E-001	3.58851E-002	3.09036E+001	11	...........	5.95744E-002	-4.58403E-003	5.76036E-001	6.18076E-001	-2.93724E-002	-3.92292E-002	6.66554E-001	-4.33369E-002	-1.23148E-003	9.47579E-005	-1.19074E-002	-1.27764E-002	6.07165E-004	8.10918E-004	-1.37785E-002	8.95831E-004
	11	11	4.99395E-002	-1.87793E-002	0.00000E+000	-9.37830E-004	-1.85570E-001	3.60022E-002	3.12090E+001	11	...........	5.97633E-002	-4.64028E-003	5.75946E-001	6.18085E-001	-2.93693E-002	-3.92342E-002	6.66544E-001	-4.33290E-002	-1.12231E-003	8.71412E-005	-1.08159E-002	-1.16072E-002	5.51535E-004	7.36791E-004	-1.25172E-002	8.13689E-004
	12	12	4.99415E-002	-1.72237E-002	0.00000E+000	-8.60177E-004	-1.70095E-001	3.59452E-002	3.11766E+001	11	...........	5.96919E-002	-4.59903E-003	5.75781E-001	6.18078E-001	-2.93715E-002	-3.92574E-002	6.66467E-001	-4.33064E-002	-1.02812E-003	7.92122E-005	-9.91707E-003	-1.06456E-002	5.05886E-004	6.76156E-004	-1.14790E-002	7.45896E-004
	13	13	4.99495E-002	-1.60932E-002	0.00000E+000	-8.03847E-004	-1.58845E-001	3.60525E-002	3.06057E+001	11	...........	5.98628E-002	-4.58889E-003	5.75707E-001	6.18024E-001	-2.93544E-002	-3.92700E-002	6.66499E-001	-4.32799E-002	-9.63383E-004	7.38498E-005	-9.26496E-003	-9.94597E-003	4.72407E-004	6.31979E-004	-1.07261E-002	6.96511E-004
	14	14	4.99525E-002	-1.52575E-002	0.00000E+000	-7.62151E-004	-1.50539E-001	3.60362E-002	3.12190E+001	11	...........	5.98194E-002	-4.59500E-003	5.75587E-001	6.18066E-001	-2.93642E-002	-3.92508E-002	6.66389E-001	-4.33089E-002	-9.12696E-004	7.01083E-005	-8.78203E-003	-9.43015E-003	4.48024E-004	5.98870E-004	-1.01674E-002	6.60786E-004
	15	15	4.99520E-002	-1.44853E-002	0.00000E+000	-7.23567E-004	-1.42860E-001	3.59422E-002	3.14049E+001	11	...........	5.96874E-002	-4.59403E-003	5.75625E-001	6.18026E-001	-2.93628E-002	-3.92235E-002	6.66409E-001	-4.33236E-002	-8.64587E-004	6.65457E-005	-8.33808E-003	-8.95227E-003	4.25327E-004	5.68162E-004	-9.65311E-003	6.27553E-004
	16	16	4.99538E-002	-1.38843E-002	0.00000E+000	-6.93575E-004	-1.36880E-001	3.61120E-002	3.11951E+001	11	...........	5.99546E-002	-4.59736E-003	5.75698E-001	6.17991E-001	-2.93435E-002	-3.92447E-002	6.66473E-001	-4.33294E-002	-8.32429E-004	6.38313E-005	-7.99317E-003	-8.58039E-003	4.07414E-004	5.44887E-004	-9.25354E-003	6.01600E-004
	17	17	4.99558E-002	-1.33895E-002	0.00000E+000	-6.68885E-004	-1.31960E-001	3.61807E-002	3.18812E+001	11	...........	6.00596E-002	-4.46917E-003	5.75598E-001	6.17981E-001	-2.93032E-002	-3.92678E-002	6.66325E-001	-4.33597E-002	-8.04170E-004	5.98401E-005	-7.70700E-003	-8.27449E-003	3.92356E-004	5.25777E-004	-8.92178E-003	5.80567E-004
	18	18	4.99544E-002	-1.29031E-002	0.00000E+000	-6.44569E-004	-1.27124E-001	3.61328E-002	3.13466E+001	11	...........	5.99828E-002	-4.57903E-003	5.75618E-001	6.17959E-001	-2.93287E-002	-3.92490E-002	6.66345E-001	-4.33754E-002	-7.73967E-004	5.90839E-005	-7.42728E-003	-7.97362E-003	3.78433E-004	5.06436E-004	-8.59795E-003	5.59679E-004
	19	19	4.99577E-002	-1.24111E-002	0.00000E+000	-6.20030E-004	-1.22225E-001	3.59968E-002	3.11462E+001	11	...........	5.97543E-002	-4.53125E-003	5.75525E-001	6.17977E-001	-2.93193E-002	-3.92451E-002	6.66333E-001	-4.33501E-002	-7.41617E-004	5.62378E-005	-7.14290E-003	-7.66977E-003	3.63885E-004	4.87076E-004	-8.26993E-003	5.38023E-004
	20	20	4.99588E-002	-1.21973E-002	0.00000E+000	-6.09363E-004	-1.20094E-001	3.61498E-002	3.18485E+001	11	...........	6.01908E-002	-4.62167E-003	5.75563E-001	6.18000E-001	-2.92822E-002	-3.92475E-002	6.66407E-001	-4.33814E-002	-7.34167E-004	5.63720E-005	-7.02034E-003	-7.53794E-003	3.57165E-004	4.78715E-004	-8.12839E-003	5.29137E-004
	21	21	4.99572E-002	-1.18635E-002	0.00000E+000	-5.92668E-004	-1.16782E-001	3.59170E-002	3.14605E+001	11	...........	5.99222E-002	-4.63528E-003	5.75694E-001	6.17946E-001	-2.93064E-002	-3.92646E-002	6.66451E-001	-4.33572E-002	-7.10888E-004	5.49907E-005	-6.82975E-003	-7.33101E-003	3.47677E-004	4.65816E-004	-7.90645E-003	5.14369E-004
	22	22	4.99548E-002	-1.15378E-002	0.00000E+000	-5.76369E-004	-1.13548E-001	3.60265E-002	3.21444E+001	11	...........	6.01369E-002	-4.64944E-003	5.75753E-001	6.17880E-001	-2.93039E-002	-3.92829E-002	6.66537E-001	-4.33446E-002	-6.93849E-004	5.36444E-005	-6.64293E-003	-7.12898E-003	3.38103E-004	4.53239E-004	-7.69037E-003	5.00102E-004
	23	23	4.99579E-002	-1.12445E-002	0.00000E+000	-5.61754E-004	-1.10629E-001	3.59936E-002	3.06405E+001	11	...........	6.00721E-002	-4.66125E-003	5.75651E-001	6.17915E-001	-2.93174E-002	-3.92592E-002	6.66578E-001	-4.33204E-002	-6.75483E-004	5.24136E-005	-6.47294E-003	-6.94817E-003	3.29660E-004	4.41451E-004	-7.49536E-003	4.87118E-004
	24	24	4.99639E-002	-1.10516E-002	0.00000E+000	-5.52181E-004	-1.08710E-001	3.60492E-002	3.15473E+001	11	...........	6.01503E-002	-4.60472E-003	5.75727E-001	6.17994E-001	-2.93050E-002	-3.92083E-002	6.66607E-001	-4.33128E-002	-6.64758E-004	5.08896E-005	-6.36272E-003	-6.82983E-003	3.23868E-004	4.33315E-004	-7.36708E-003	4.78676E-004
	25	25	4.99586E-002	-1.08920E-002	0.00000E+000	-5.44148E-004	-1.07126E-001	3.60086E-002	3.17218E+001	11	...........	6.00790E-002	-4.58806E-003	5.75715E-001	6.18043E-001	-2.92915E-002	-3.91856E-002	6.66475E-001	-4.33342E-002	-6.54379E-004	4.99730E-005	-6.27067E-003	-6.73171E-003	3.19043E-004	4.26808E-004	-7.25923E-003	4.71995E-004
	26	26	4.99578E-002	-1.06181E-002	0.00000E+000	-5.30458E-004	-1.04398E-001	3.60847E-002	3.14663E+001	11	...........	6.01904E-002	-4.60333E-003	5.75811E-001	6.18025E-001	-2.93031E-002	-3.92264E-002	6.66505E-001	-4.33457E-002	-6.39109E-004	4.88787E-005	-6.11403E-003	-6.56226E-003	3.11143E-004	4.16510E-004	-7.07703E-003	4.60250E-004
	27	27	4.99595E-002	-1.04457E-002	0.00000E+000	-5.21861E-004	-1.02685E-001	3.62106E-002	3.23035E+001	11	...........	6.04235E-002	-4.56986E-003	5.75767E-001	6.18052E-001	-2.93121E-002	-3.92525E-002	6.66532E-001	-4.33229E-002	-6.31164E-004	4.77353E-005	-6.01428E-003	-6.45597E-003	3.06184E-004	4.10019E-004	-6.96238E-003	4.52537E-004
	28	28	4.99593E-002	-1.02663E-002	0.00000E+000	-5.12895E-004	-1.00947E-001	3.60195E-002	3.16487E+001	11	...........	6.01196E-002	-4.51986E-003	5.75637E-001	6.18039E-001	-2.93439E-002	-3.92607E-002	6.66679E-001	-4.33185E-002	-6.17203E-004	4.64021E-005	-5.90963E-003	-6.34495E-003	3.01252E-004	4.03060E-004	-6.84430E-003	4.44719E-004
	29	29	4.99604E-002	-1.00842E-002	0.00000E+000	-5.03811E-004	-9.91283E-002	3.60925E-002	3.18150E+001	11	...........	6.02347E-002	-4.41458E-003	5.75646E-001	6.18039E-001	-2.93444E-002	-3.92357E-002	6.66733E-001	-4.33049E-002	-6.07419E-004	4.45176E-005	-5.80493E-003	-6.23243E-003	2.95915E-004	3.95661E-004	-6.72347E-003	4.36695E-004
	30	30	4.99587E-002	-9.86705E-003	0.00000E+000	-4.92945E-004	-9.69647E-002	3.61382E-002	3.15805E+001	11	...........	6.02896E-002	-4.43167E-003	5.75733E-001	6.18064E-001	-2.93093E-002	-3.92212E-002	6.66610E-001	-4.33301E-002	-5.94880E-004	4.37275E-005	-5.68079E-003	-6.09847E-003	2.89196E-004	3.86998E-004	-6.57748E-003	4.27541E-004
	31	31	4.99597E-002	-9.61359E-003	0.00000E+000	-4.80292E-004	-9.44477E-002	3.59829E-002	3.16366E+001	11	...........	6.00458E-002	-4.57208E-003	5.75730E-001	6.18012E-001	-2.92996E-002	-3.92428E-002	6.66604E-001	-4.33396E-002	-5.77256E-004	4.39541E-005	-5.53483E-003	-5.94131E-003	2.81674E-004	3.77264E-004	-6.40846E-003	4.16649E-004
	32	32	4.99591E-002	-9.57764E-003	0.00000E+000	-4.78490E-004	-9.40893E-002	3.62729E-002	3.22202E+001	11	...........	6.05296E-002	-4.60014E-003	5.75889E-001	6.17986E-001	-2.93133E-002	-3.92519E-002	6.66708E-001	-4.33506E-002	-5.79730E-004	4.40585E-005	-5.51566E-003	-5.91884E-003	2.80752E-004	3.75941E-004	-6.38549E-003	4.15196E-004
	33	33	4.99606E-002	-9.39143E-003	0.00000E+000	-4.69202E-004	-9.22273E-002	3.61568E-002	3.19013E+001	11	...........	6.03267E-002	-4.61042E-003	5.75794E-001	6.17984E-001	-2.93437E-002	-3.92392E-002	6.66812E-001	-4.33736E-002	-5.66554E-004	4.32984E-005	-5.40753E-003	-5.80376E-003	2.75580E-004	3.68512E-004	-6.26232E-003	4.07340E-004
	34	34	4.99602E-002	-9.26728E-003	0.00000E+000	-4.62995E-004	-9.09990E-002	3.61256E-002	3.22490E+001	11	...........	6.02793E-002	-4.56569E-003	5.75801E-001	6.17991E-001	-2.93167E-002	-3.92029E-002	6.66779E-001	-4.34008E-002	-5.58625E-004	4.23116E-005	-5.33611E-003	-5.72710E-003	2.71686E-004	3.63304E-004	-6.17923E-003	4.02207E-004
	35	35	4.99596E-002	-9.09789E-003	0.00000E+000	-4.54526E-004	-8.93193E-002	3.62598E-002	3.19005E+001	11	...........	6.05076E-002	-4.62583E-003	5.75958E-001	6.17969E-001	-2.93104E-002	-3.92356E-002	6.66771E-001	-4.33668E-002	-5.50492E-004	4.20853E-005	-5.24000E-003	-5.62221E-003	2.66663E-004	3.56961E-004	-6.06621E-003	3.94546E-004
	36	36	4.99594E-002	-8.88777E-003	0.00000E+000	-4.44028E-004	-8.72237E-002	3.60333E-002	3.15507E+001	11	...........	6.01143E-002	-4.58819E-003	5.76217E-001	6.17913E-001	-2.93235E-002	-3.92699E-002	6.66696E-001	-4.33417E-002	-5.34282E-004	4.07788E-005	-5.12129E-003	-5.49187E-003	2.60620E-004	3.49022E-004	-5.92544E-003	3.85211E-004
	37	37	4.99611E-002	-8.85647E-003	0.00000E+000	-4.42479E-004	-8.69130E-002	3.62780E-002	3.23578E+001	11	...........	6.05112E-002	-4.62444E-003	5.76235E-001	6.17974E-001	-2.93457E-002	-3.92487E-002	6.66669E-001	-4.33311E-002	-5.35916E-004	4.09562E-005	-5.10341E-003	-5.47307E-003	2.59899E-004	3.47605E-004	-5.90433E-003	3.83760E-004
	38	38	4.99585E-002	-8.71976E-003	0.00000E+000	-4.35626E-004	-8.55513E-002	3.62403E-002	3.20804E+001	11	...........	6.04800E-002	-4.63250E-003	5.76059E-001	6.17999E-001	-2.93685E-002	-3.92081E-002	6.66696E-001	-4.33115E-002	-5.27371E-004	4.03943E-005	-5.02309E-003	-5.38880E-003	2.56086E-004	3.41885E-004	-5.81343E-003	3.77666E-004
	39	39	4.99602E-002	-8.53001E-003	0.00000E+000	-4.26161E-004	-8.36603E-002	3.61736E-002	3.23237E+001	11	...........	6.03750E-002	-4.61222E-003	5.76032E-001	6.18074E-001	-2.93725E-002	-3.91686E-002	6.66716E-001	-4.33193E-002	-5.15000E-004	3.93423E-005	-4.91356E-003	-5.27218E-003	2.50548E-004	3.34109E-004	-5.68709E-003	3.69514E-004
	40	40	4.99596E-002	-8.38983E-003	0.00000E+000	-4.19153E-004	-8.22627E-002	3.62056E-002	3.13743E+001	11	...........	6.04403E-002	-4.60583E-003	5.76123E-001	6.18029E-001	-2.93576E-002	-3.91719E-002	6.66688E-001	-4.33297E-002	-5.07084E-004	3.86421E-005	-4.83357E-003	-5.18515E-003	2.46306E-004	3.28646E-004	-5.59340E-003	3.63529E-004
	41	41	4.99618E-002	-8.33198E-003	0.00000E+000	-4.16281E-004	-8.16893E-002	3.62302E-002	3.19895E+001	11	...........	6.04554E-002	-4.48819E-003	5.75915E-001	6.18016E-001	-2.93350E-002	-3.92140E-002	6.66568E-001	-4.33174E-002	-5.03713E-004	3.73955E-005	-4.79851E-003	-5.14930E-003	2.44419E-004	3.26730E-004	-5.55383E-003	3.60919E-004
	42	42	4.99613E-002	-8.25063E-003	0.00000E+000	-4.12213E-004	-8.08827E-002	3.62367E-002	3.21751E+001	11	...........	6.04750E-002	-4.50278E-003	5.75886E-001	6.18038E-001	-2.93290E-002	-3.91974E-002	6.66517E-001	-4.33421E-002	-4.98957E-004	3.71508E-005	-4.75142E-003	-5.09920E-003	2.41983E-004	3.23403E-004	-5.49919E-003	3.57600E-004
	43	43	4.99595E-002	-8.10357E-003	0.00000E+000	-4.04850E-004	-7.94127E-002	3.61999E-002	3.20830E+001	11	...........	6.04178E-002	-4.55653E-003	5.75688E-001	6.18022E-001	-2.93240E-002	-3.91700E-002	6.66528E-001	-4.33318E-002	-4.89599E-004	3.69241E-005	-4.66513E-003	-5.00818E-003	2.37629E-004	3.17417E-004	-5.40126E-003	3.51142E-004
	44	44	4.99601E-002	-7.99926E-003	0.00000E+000	-3.99643E-004	-7.83767E-002	3.62772E-002	3.22988E+001	11	...........	6.05200E-002	-4.50083E-003	5.75459E-001	6.18001E-001	-2.93051E-002	-3.91418E-002	6.66534E-001	-4.33272E-002	-4.84115E-004	3.60033E-005	-4.60325E-003	-4.94355E-003	2.34419E-004	3.13105E-004	-5.33178E-003	3.46585E-004
	45	45	4.99620E-002	-7.91475E-003	0.00000E+000	-3.95437E-004	-7.75400E-002	3.62802E-002	3.25390E+001	11	...........	6.05469E-002	-4.57875E-003	5.75541E-001	6.17890E-001	-2.93225E-002	-3.92089E-002	6.66581E-001	-4.33414E-002	-4.79214E-004	3.62397E-005	-4.55527E-003	-4.89045E-003	2.32080E-004	3.10329E-004	-5.27582E-003	3.43036E-004
	46	46	4.99597E-002	-7.82807E-003	0.00000E+000	-3.91088E-004	-7.66833E-002	3.62230E-002	3.21818E+001	11	...........	6.04476E-002	-4.56750E-003	5.75648E-001	6.17867E-001	-2.93089E-002	-3.92393E-002	6.66823E-001	-4.33335E-002	-4.73188E-004	3.57547E-005	-4.50621E-003	-4.83670E-003	2.29432E-004	3.07168E-004	-5.21994E-003	3.39217E-004
	47	47	4.99603E-002	-7.69068E-003	0.00000E+000	-3.84229E-004	-7.53237E-002	3.62895E-002	3.24676E+001	11	...........	6.05483E-002	-4.50250E-003	5.75659E-001	6.17710E-001	-2.93062E-002	-3.91896E-002	6.66764E-001	-4.33651E-002	-4.65658E-004	3.46273E-005	-4.42721E-003	-4.75061E-003	2.25385E-004	3.01395E-004	-5.12787E-003	3.33507E-004
	48	48	4.99606E-002	-7.55448E-003	0.00000E+000	-3.77426E-004	-7.39650E-002	3.61424E-002	3.19127E+001	11	...........	6.02944E-002	-4.55958E-003	5.75611E-001	6.17880E-001	-2.93110E-002	-3.91254E-002	6.66634E-001	-4.33797E-002	-4.55493E-004	3.44453E-005	-4.34844E-003	-4.66776E-003	2.21429E-004	2.95572E-004	-5.03607E-003	3.27711E-004
	49	49	4.99607E-002	-7.51774E-003	0.00000E+000	-3.75592E-004	-7.35930E-002	3.63918E-002	3.24444E+001	11	...........	6.07253E-002	-4.58819E-003	5.75645E-001	6.17782E-001	-2.92997E-002	-3.91239E-002	6.66639E-001	-4.33603E-002	-4.56517E-004	3.44929E-005	-4.32755E-003	-4.64432E-003	2.20268E-004	2.94123E-004	-5.01162E-003	3.25971E-004
	50	50	4.99596E-002	-7.41923E-003	0.00000E+000	-3.70661E-004	-7.26113E-002	3.63144E-002	3.21658E+001	11	...........	6.05828E-002	-4.59181E-003	5.75602E-001	6.17743E-001	-2.93089E-002	-3.91425E-002	6.66611E-001	-4.33417E-002	-4.49477E-004	3.40676E-005	-4.27052E-003	-4.58318E-003	2.17449E-004	2.90407E-004	-4.94574E-003	3.21562E-004
	51	51	4.99618E-002	-7.30803E-003	0.00000E+000	-3.65122E-004	-7.15080E-002	3.62868E-002	3.25190E+001	11	...........	6.05378E-002	-4.62208E-003	5.75403E-001	6.17758E-001	-2.93256E-002	-3.91651E-002	6.66694E-001	-4.33269E-002	-4.42412E-004	3.37783E-005	-4.20506E-003	-4.51459E-003	2.14312E-004	2.86220E-004	-4.87222E-003	3.16634E-004
	52	52	4.99603E-002	-7.20476E-003	0.00000E+000	-3.59952E-004	-7.04790E-002	3.62893E-002	3.25423E+001	11	...........	6.05539E-002	-4.50236E-003	5.75458E-001	6.17795E-001	-2.93561E-002	-3.91510E-002	6.66761E-001	-4.33144E-002	-4.36276E-004	3.24384E-005	-4.14604E-003	-4.45106E-003	2.11504E-004	2.82073E-004	-4.80386E-003	3.12070E-004
	53	53	4.99610E-002	-7.13395E-003	0.00000E+000	-3.56419E-004	-6.97710E-002	3.62711E-002	3.20601E+001	11	...........	6.05237E-002	-4.51069E-003	5.75423E-001	6.17841E-001	-2.93499E-002	-3.91003E-002	6.66824E-001	-4.33264E-002	-4.31773E-004	3.21791E-005	-4.10504E-003	-4.40765E-003	2.09380E-004	2.78939E-004	-4.75709E-003	3.09088E-004
	54	54	4.99611E-002	-7.07021E-003	0.00000E+000	-3.53235E-004	-6.91387E-002	3.63672E-002	3.29717E+001	11	...........	6.06837E-002	-4.47250E-003	5.75482E-001	6.17803E-001	-2.93183E-002	-3.91024E-002	6.66947E-001	-4.33379E-002	-4.29047E-004	3.16215E-005	-4.06878E-003	-4.36800E-003	2.07287E-004	2.76462E-004	-4.71546E-003	3.06408E-004
	55	55	4.99594E-002	-6.97721E-003	0.00000E+000	-3.48578E-004	-6.82207E-002	3.63786E-002	3.23873E+001	11	...........	6.06776E-002	-4.52639E-003	5.75646E-001	6.17706E-001	-2.92974E-002	-3.91251E-002	6.66910E-001	-4.33264E-002	-4.23361E-004	3.15816E-005	-4.01641E-003	-4.30987E-003	2.04414E-004	2.72984E-004	-4.65318E-003	3.02297E-004
	56	56	4.99613E-002	-6.85931E-003	0.00000E+000	-3.42700E-004	-6.70433E-002	3.63200E-002	3.22437E+001	11	...........	6.06093E-002	-4.49528E-003	5.75667E-001	6.17634E-001	-2.93024E-002	-3.91456E-002	6.66719E-001	-4.33322E-002	-4.15738E-004	3.08345E-005	-3.94868E-003	-4.23654E-003	2.00994E-004	2.68511E-004	-4.57323E-003	2.97229E-004
	57	57	4.99600E-002	-6.77758E-003	0.00000E+000	-3.38608E-004	-6.62310E-002	3.62956E-002	3.19128E+001	11	...........	6.05518E-002	-4.44556E-003	5.75718E-001	6.17664E-001	-2.93118E-002	-3.91619E-002	6.66715E-001	-4.33361E-002	-4.10394E-004	3.01301E-005	-3.90198E-003	-4.18626E-003	1.98663E-004	2.65423E-004	-4.51871E-003	2.93714E-004
	58	58	4.99626E-002	-6.76016E-003	0.00000E+000	-3.37755E-004	-6.60507E-002	3.64513E-002	3.25242E+001	11	...........	6.08265E-002	-4.29708E-003	5.75806E-001	6.17526E-001	-2.93406E-002	-3.91374E-002	6.66670E-001	-4.33354E-002	-4.11197E-004	2.90490E-005	-3.89254E-003	-4.17458E-003	1.98347E-004	2.64575E-004	-4.50679E-003	2.92954E-004
	59	59	4.99602E-002	-6.65920E-003	0.00000E+000	-3.32695E-004	-6.50567E-002	3.62983E-002	3.28599E+001	11	...........	6.05660E-002	-4.32111E-003	5.75954E-001	6.17522E-001	-2.93883E-002	-3.91237E-002	6.66677E-001	-4.34001E-002	-4.03321E-004	2.87751E-005	-3.83539E-003	-4.11220E-003	1.95703E-004	2.60533E-004	-4.43953E-003	2.89010E-004
	60	60	4.99612E-002	-6.59120E-003	0.00000E+000	-3.29304E-004	-6.43757E-002	3.63737E-002	3.27882E+001	11	...........	6.07099E-002	-4.49667E-003	5.75975E-001	6.17540E-001	-2.93942E-002	-3.91014E-002	6.66825E-001	-4.34403E-002	-4.00151E-004	2.96384E-005	-3.79636E-003	-4.07033E-003	1.93743E-004	2.57725E-004	-4.39517E-003	2.86323E-004
	61	61	4.99608E-002	-6.52181E-003	0.00000E+000	-3.25835E-004	-6.36993E-002	3.63619E-002	3.27869E+001	11	...........	6.06707E-002	-4.58375E-003	5.76033E-001	6.17744E-001	-2.93764E-002	-3.91022E-002	6.66844E-001	-4.34342E-002	-3.95683E-004	2.98943E-005	-3.75678E-003	-4.02881E-003	1.91587E-004	2.55017E-004	-4.34903E-003	2.83269E-004
	62	62	4.99605E-002	-6.40225E-003	0.00000E+000	-3.19860E-004	-6.25023E-002	3.63832E-002	3.24751E+001	11	...........	6.06999E-002	-4.56264E-003	5.76093E-001	6.17815E-001	-2.93971E-002	-3.90837E-002	6.66846E-001	-4.33833E-002	-3.88616E-004	2.92112E-005	-3.68829E-003	-3.95541E-003	1.88208E-004	2.50224E-004	-4.26932E-003	2.77751E-004
	63	63	4.99607E-002	-6.31211E-003	0.00000E+000	-3.15357E-004	-6.16037E-002	3.62022E-002	3.18835E+001	11	...........	6.04222E-002	-4.45986E-003	5.76000E-001	6.17862E-001	-2.94018E-002	-3.91144E-002	6.66720E-001	-4.33711E-002	-3.81392E-004	2.81511E-005	-3.63577E-003	-3.90001E-003	1.85587E-004	2.46895E-004	-4.20841E-003	2.73763E-004
	64	64	4.99612E-002	-6.28977E-003	0.00000E+000	-3.14244E-004	-6.13797E-002	3.65280E-002	3.28415E+001	11	...........	6.09408E-002	-4.51569E-003	5.76035E-001	6.17872E-001	-2.93542E-002	-3.91196E-002	6.66630E-001	-4.34242E-002	-3.83304E-004	2.84027E-005	-3.62313E-003	-3.88627E-003	1.84631E-004	2.46053E-004	-4.19295E-003	2.73128E-004
	65	65	4.99609E-002	-6.22685E-003	0.00000E+000	-3.11099E-004	-6.07533E-002	3.64167E-002	3.27927E+001	11	...........	6.07496E-002	-4.54361E-003	5.75789E-001	6.17946E-001	-2.93496E-002	-3.91412E-002	6.66569E-001	-4.33651E-002	-3.78279E-004	2.82924E-005	-3.58535E-003	-3.84786E-003	1.82755E-004	2.43727E-004	-4.15063E-003	2.70028E-004
	66	66	4.99613E-002	-6.14804E-003	0.00000E+000	-3.07164E-004	-5.99683E-002	3.63666E-002	3.24373E+001	11	...........	6.06678E-002	-4.61208E-003	5.75756E-001	6.17934E-001	-2.93793E-002	-3.91218E-002	6.66620E-001	-4.33394E-002	-3.72988E-004	2.83553E-005	-3.53977E-003	-3.79908E-003	1.80625E-004	2.40522E-004	-4.09841E-003	2.66453E-004
	67	67	4.99609E-002	-6.08427E-003	0.00000E+000	-3.03975E-004	-5.93367E-002	3.64735E-002	3.23652E+001	11	...........	6.08606E-002	-4.63181E-003	5.75741E-001	6.17971E-001	-2.94024E-002	-3.90931E-002	6.66564E-001	-4.33806E-002	-3.70292E-004	2.81812E-005	-3.50297E-003	-3.75990E-003	1.78892E-004	2.37853E-004	-4.05556E-003	2.63939E-004
	68	68	4.99616E-002	-6.04436E-003	0.00000E+000	-3.01986E-004	-5.89420E-002	3.64479E-002	3.28617E+001	11	...........	6.08350E-002	-4.61764E-003	5.75776E-001	6.17880E-001	-2.93779E-002	-3.90985E-002	6.66636E-001	-4.33751E-002	-3.67708E-004	2.79106E-005	-3.48020E-003	-3.73469E-003	1.77571E-004	2.36325E-004	-4.02939E-003	2.62175E-004
	69	69	4.99608E-002	-5.98065E-003	0.00000E+000	-2.98798E-004	-5.83067E-002	3.63232E-002	3.27914E+001	11	...........	6.06137E-002	-4.55056E-003	5.75874E-001	6.17764E-001	-2.93418E-002	-3.91131E-002	6.66682E-001	-4.33724E-002	-3.62510E-004	2.72153E-005	-3.44410E-003	-3.69463E-003	1.75483E-004	2.33922E-004	-3.98719E-003	2.59395E-004
	70	70	4.99611E-002	-5.93325E-003	0.00000E+000	-2.96432E-004	-5.78317E-002	3.65019E-002	3.26181E+001	11	...........	6.09008E-002	-4.57417E-003	5.75797E-001	6.17555E-001	-2.93307E-002	-3.91210E-002	6.66496E-001	-4.33569E-002	-3.61340E-004	2.71397E-005	-3.41635E-003	-3.66411E-003	1.74026E-004	2.32114E-004	-3.95449E-003	2.57247E-004
	71	71	4.99608E-002	-5.84994E-003	0.00000E+000	-2.92268E-004	-5.70080E-002	3.63657E-002	3.27480E+001	11	...........	6.06897E-002	-4.53042E-003	5.75722E-001	6.17633E-001	-2.93417E-002	-3.91539E-002	6.66396E-001	-4.33330E-002	-3.55031E-004	2.65027E-005	-3.36794E-003	-3.61312E-003	1.71647E-004	2.29048E-004	-3.89838E-003	2.53496E-004
	72	72	4.99608E-002	-5.76984E-003	0.00000E+000	-2.88266E-004	-5.62107E-002	3.64651E-002	3.25589E+001	11	...........	6.08312E-002	-4.59500E-003	5.75632E-001	6.17737E-001	-2.93329E-002	-3.91961E-002	6.66475E-001	-4.33125E-002	-3.50987E-004	2.65124E-005	-3.32131E-003	-3.56425E-003	1.69246E-004	2.26155E-004	-3.84546E-003	2.49906E-004
	73	73	4.99613E-002	-5.71758E-003	0.00000E+000	-2.85657E-004	-5.56937E-002	3.64122E-002	3.28081E+001	11	...........	6.07392E-002	-4.54611E-003	5.75526E-001	6.17890E-001	-2.93150E-002	-3.92111E-002	6.66505E-001	-4.33265E-002	-3.47281E-004	2.59927E-005	-3.29062E-003	-3.53284E-003	1.67611E-004	2.24193E-004	-3.81079E-003	2.47723E-004
	74	74	4.99607E-002	-5.68556E-003	0.00000E+000	-2.84054E-004	-5.53637E-002	3.64901E-002	3.29575E+001	11	...........	6.08714E-002	-4.50306E-003	5.75470E-001	6.17945E-001	-2.93237E-002	-3.92306E-002	6.66412E-001	-4.33342E-002	-3.46088E-004	2.56024E-005	-3.27187E-003	-3.51336E-003	1.66722E-004	2.23048E-004	-3.78892E-003	2.46379E-004
	75	75	4.99615E-002	-5.62295E-003	0.00000E+000	-2.80931E-004	-5.47357E-002	3.64368E-002	3.28122E+001	11	...........	6.07981E-002	-4.54431E-003	5.75581E-001	6.17992E-001	-2.93425E-002	-3.92228E-002	6.66607E-001	-4.33379E-002	-3.41864E-004	2.55524E-005	-3.23646E-003	-3.47494E-003	1.64991E-004	2.20548E-004	-3.74830E-003	2.43687E-004
	76	76	4.99612E-002	-5.55432E-003	0.00000E+000	-2.77501E-004	-5.40660E-002	3.64221E-002	3.29632E+001	11	...........	6.07447E-002	-4.56333E-003	5.75475E-001	6.17965E-001	-2.93849E-002	-3.92003E-002	6.66579E-001	-4.33679E-002	-3.37396E-004	2.53462E-005	-3.19637E-003	-3.43237E-003	1.63213E-004	2.17731E-004	-3.70239E-003	2.40879E-004
	77	77	4.99608E-002	-5.48935E-003	0.00000E+000	-2.74252E-004	-5.34073E-002	3.64027E-002	3.23111E+001	11	...........	6.07564E-002	-4.58653E-003	5.75324E-001	6.17895E-001	-2.94029E-002	-3.91990E-002	6.66547E-001	-4.33514E-002	-3.33513E-004	2.51770E-005	-3.15815E-003	-3.39184E-003	1.61403E-004	2.15177E-004	-3.65891E-003	2.37971E-004
	78	78	4.99617E-002	-5.43814E-003	0.00000E+000	-2.71699E-004	-5.29013E-002	3.64084E-002	3.28837E+001	11	...........	6.07278E-002	-4.60181E-003	5.75378E-001	6.17701E-001	-2.93664E-002	-3.91993E-002	6.66658E-001	-4.34611E-002	-3.30246E-004	2.50253E-005	-3.12899E-003	-3.35914E-003	1.59699E-004	2.13171E-004	-3.62538E-003	2.36348E-004
	79	79	4.99609E-002	-5.40453E-003	0.00000E+000	-2.70015E-004	-5.25660E-002	3.65708E-002	3.29870E+001	11	...........	6.10129E-002	-4.63431E-003	5.75488E-001	6.17478E-001	-2.93743E-002	-3.91951E-002	6.66718E-001	-4.34119E-002	-3.29746E-004	2.50462E-005	-3.11024E-003	-3.33718E-003	1.58754E-004	2.11831E-004	-3.60329E-003	2.34621E-004
	80	80	4.99610E-002	-5.32678E-003	0.00000E+000	-2.66132E-004	-5.17850E-002	3.64702E-002	3.28117E+001	11	...........	6.08569E-002	-4.58069E-003	5.75289E-001	6.17517E-001	-2.93975E-002	-3.92046E-002	6.66567E-001	-4.34057E-002	-3.24172E-004	2.44004E-005	-3.06444E-003	-3.28938E-003	1.56594E-004	2.08834E-004	-3.55066E-003	2.31213E-004
	81	81	4.99612E-002	-5.26898E-003	0.00000E+000	-2.63245E-004	-5.12353E-002	3.63946E-002	3.23467E+001	11	...........	6.07128E-002	-4.55181E-003	5.75253E-001	6.17505E-001	-2.93975E-002	-3.92076E-002	6.66700E-001	-4.35172E-002	-3.19895E-004	2.39834E-005	-3.03100E-003	-3.25362E-003	1.54895E-004	2.06584E-004	-3.51283E-003	2.29292E-004
	82	82	4.99613E-002	-5.23579E-003	0.00000E+000	-2.61587E-004	-5.09147E-002	3.65336E-002	3.28090E+001	11	...........	6.09654E-002	-4.56431E-003	5.75331E-001	6.17397E-001	-2.93765E-002	-3.92194E-002	6.66754E-001	-4.33822E-002	-3.19202E-004	2.38977E-005	-3.01231E-003	-3.23256E-003	1.53809E-004	2.05345E-004	-3.49098E-003	2.27140E-004
	83	83	4.99610E-002	-5.18524E-003	0.00000E+000	-2.59060E-004	-5.04103E-002	3.64683E-002	3.27425E+001	11	...........	6.08349E-002	-4.52264E-003	5.75389E-001	6.17519E-001	-2.93456E-002	-3.92142E-002	6.66822E-001	-4.33294E-002	-3.15444E-004	2.34510E-005	-2.98353E-003	-3.20199E-003	1.52164E-004	2.03335E-004	-3.45764E-003	2.24674E-004
	84	84	4.99611E-002	-5.13436E-003	0.00000E+000	-2.56518E-004	-4.99027E-002	3.64707E-002	3.28437E+001	11	...........	6.08550E-002	-4.51792E-003	5.75388E-001	6.17726E-001	-2.93547E-002	-3.91957E-002	6.66722E-001	-4.33358E-002	-3.12452E-004	2.31966E-005	-2.95425E-003	-3.17163E-003	1.50718E-004	2.01245E-004	-3.42319E-003	2.22502E-004
	85	85	4.99612E-002	-5.06977E-003	0.00000E+000	-2.53292E-004	-4.92597E-002	3.64638E-002	3.23871E+001	11	...........	6.08189E-002	-4.49597E-003	5.75422E-001	6.17712E-001	-2.93165E-002	-3.91937E-002	6.66792E-001	-4.32614E-002	-3.08338E-004	2.27936E-005	-2.91726E-003	-3.13166E-003	1.48628E-004	1.98703E-004	-3.38048E-003	2.19325E-004
	86	85.3033	4.99602E-002	-5.04152E-003	0.00000E+000	-2.51875E-004	-4.89758E-002	3.64052E-002	3.24134E+001	11	...........	6.07225E-002	-4.26603E-003	5.75354E-001	6.17690E-001	-2.93352E-002	-3.91905E-002	6.66792E-001	-4.32807E-002	-3.06134E-004	2.15073E-005	-2.90066E-003	-3.11410E-003	1.47894E-004	1.97580E-004	-3.36165E-003	2.18200E-004
STARTTIMEOFFSET	QUANT	825681.4	Start Time Offset (s)
