EXPLAIN
TAG	PWR800_DISCHARGE
TITLE	LABEL	PWR Discharge	Test Identifier
DATE	LABEL	10/12/2022	Date
TIME	LABEL	10:24:57	Time
NOTES	NOTES	1	Notes...
	
PSTAT	PSTAT	REF3000-21114	Potentiostat
CAPACITY	QUANT	5.30000E-002	Capacity (A-hr)
CELLTYPE	SELECTOR	1	Cell Type
WORKINGCONNECTION	SELECTOR	0	Working Connection
MAXDISCHARGETIME	VARIABLEANDUNITS	7.20000E+003	s	2.00000E+000	hour(s)	Max Discharge Time
DISCHARGEMODE	MULTIPARAM	0	1.00000E-001	Discharge Mode	Constant Current	Amp(s)
VOLTAGEFINISH	TWOPARAM	T	5.00000E-003	7.20000E+003	Voltage Finish	I (A) <	Max Time(s)
SAMPLETIME	QUANT	1.00000E+000	Sample Period (s)
DISCHARGESTOPAT1	MULTIPARAM	1	5.00000E-002	Stop At 1	|Voltage| < Limit	V
DISCHARGESTOPAT2	MULTIPARAM	0	0.00000E+000	Stop At 2	None	N/A
AESELECTOR	AESELECTOR	0x1	T	Set Limits	AE Channels
AESBHCSELECTOR	TOGGLE	F	Save Both Half Cells
IRCOMP	TOGGLE	F	IR Measure
EOC	QUANT	0.5282035	Open Circuit (V)
SEQUENCER	TOGGLE	TRUE	Run as Sequence
PSTATMODEL	IQUANT	5	Pstat Model
PSTATSECTION	LABEL	REF3000-21114	Pstat Section
PSTATSERIALNO	LABEL	21114	Pstat Serial Number
CTRLMODE	IQUANT	0	Control Mode
ELECTROMETER	IQUANT	0	RE=0 or CS=1
IESTAB	IQUANT	0	I/E Stability
CASPEED	IQUANT	4	Control Amp Speed
CONVENTION	IQUANT	1	Current Convention
ICHRANGE	IQUANT	2	Ich Range
ICHRANGEMODE	TOGGLE	T	Ich Auto Range
ICHOFFSETENABLE	TOGGLE	F	Ich Offset Enable
ICHOFFSET	QUANT	0	Ich Offset (V)
ICHFILTER	IQUANT	1	Ich Filter
VCHRANGE	IQUANT	3	Vch Range
VCHRANGEMODE	TOGGLE	T	Vch Auto Range
VCHOFFSETENABLE	TOGGLE	F	Vch Offset Enable
VCHOFFSET	QUANT	0	Vch Offset (V)
VCHFILTER	IQUANT	1	Vch Filter
ACHRANGE	IQUANT	2	Ach Range
ACHOFFSETENABLE	TOGGLE	F	Ach Offset Enable
ACHOFFSET	QUANT	0	Ach Offset (V)
ACHFILTER	IQUANT	1	Ach Filter
IERANGELOWERLIMIT	IQUANT	9	I/E Range Lower Limit
IERANGEMODE	TOGGLE	F	I/E AutoRange
IERANGE	IQUANT	9	I/E Range
POSFEEDENABLE	TOGGLE	F	Positive Feedback IR Comp
POSFEEDRESISTANCE	QUANT	0	Positive Feedback Resistance (ohm)
ACHSELECT	IQUANT	1	Ach Select
SENSECABLEID	IQUANT	13	Sense Cable ID
PWRCABLEID	IQUANT	13	Power Cable ID
DCCALDATE	LABEL		DC Calibration Date
ACCALDATE	LABEL		AC Calibration Date
THERMOSELECT	IQUANT	1	Thermo Select
FRAMEWORKVERSION	LABEL	7.8.6	Framework Version
INSTRUMENTVERSION	LABEL	4.50	Instrument Version
COMPLIANCEVOLTAGE	IQUANT	0	Compliance Voltage
CURVE	TABLE	71
	Pt	T	Vf	Im	Vu	Pwr	Sig	Ach	Temp	IERange	Over	Vf1	Vf2	Vf3	Vf4	Vf5	Vf6	Vf7	Vf8	Pwr1	Pwr2	Pwr3	Pwr4	Pwr5	Pwr6	Pwr7	Pwr8
	#	s	V	A	V	W	V	V	deg C	#	bits	V	V	V	V	V	V	V	V	W	W	W	W	W	W	W	W
	0	1	3.08454E-001	-1.00097E-001	0.00000E+000	-3.08752E-002	-9.94000E-001	3.35407E-002	2.71315E+001	11	...........	5.55324E-002	-4.00181E-003	5.64638E-001	6.44086E-001	-3.00558E-002	-3.93671E-002	6.52835E-001	-4.32550E-002	-5.55860E-003	4.00567E-004	-5.65183E-002	-6.44708E-002	3.00849E-003	3.94051E-003	-6.53466E-002	4.32968E-003
	1	2	2.10122E-001	-1.00097E-001	0.00000E+000	-2.10326E-002	-9.94000E-001	3.36727E-002	2.66933E+001	11	...........	5.57696E-002	-3.97833E-003	5.64556E-001	6.43927E-001	-3.00619E-002	-3.93664E-002	6.52912E-001	-4.32644E-002	-5.58238E-003	3.98220E-004	-5.65105E-002	-6.44553E-002	3.00912E-003	3.94046E-003	-6.53546E-002	4.33065E-003
	2	3	1.26046E-001	-1.00098E-001	0.00000E+000	-1.26169E-002	-9.94000E-001	3.36652E-002	2.65413E+001	11	...........	5.57529E-002	-4.01403E-003	5.64550E-001	6.43681E-001	-3.00539E-002	-3.93517E-002	6.52766E-001	-4.32090E-002	-5.58074E-003	4.01795E-004	-5.65101E-002	-6.44309E-002	3.00832E-003	3.93901E-003	-6.53404E-002	4.32512E-003
	3	3.475	6.74848E-002	-1.00098E-001	0.00000E+000	-6.75507E-003	-9.94000E-001	3.34884E-002	2.62197E+001	11	...........	5.54775E-002	-3.98743E-003	5.64424E-001	6.43775E-001	-3.01050E-002	-3.93526E-002	6.52839E-001	-4.32219E-002	-5.55316E-003	3.99132E-004	-5.64974E-002	-6.44403E-002	3.01343E-003	3.93910E-003	-6.53476E-002	4.32641E-003
	4	4	4.93127E-002	-8.50810E-002	0.00000E+000	-4.19558E-003	-8.44698E-001	3.38473E-002	2.65911E+001	11	...........	5.60847E-002	-4.07963E-003	5.64530E-001	6.43660E-001	-3.00280E-002	-3.93884E-002	6.52770E-001	-4.32214E-002	-4.77174E-003	3.47099E-004	-4.80308E-002	-5.47633E-002	2.55482E-003	3.35120E-003	-5.55383E-002	3.67732E-003
	5	5	4.96556E-002	-5.88958E-002	0.00000E+000	-2.92450E-003	-5.84383E-001	3.38336E-002	2.72184E+001	11	...........	5.60549E-002	-4.09472E-003	5.64590E-001	6.43647E-001	-3.00653E-002	-3.93722E-002	6.52790E-001	-4.32249E-002	-3.30139E-003	2.41162E-004	-3.32519E-002	-3.79081E-002	1.77072E-003	2.31886E-003	-3.84465E-002	2.54576E-003
	6	6	4.97954E-002	-4.08626E-002	0.00000E+000	-2.03477E-003	-4.05096E-001	3.38699E-002	2.78044E+001	11	...........	5.60969E-002	-4.08958E-003	5.64559E-001	6.43464E-001	-3.00389E-002	-3.93469E-002	6.52821E-001	-4.32157E-002	-2.29227E-003	1.67111E-004	-2.30694E-002	-2.62936E-002	1.22747E-003	1.60782E-003	-2.66760E-002	1.76591E-003
	7	7	4.98799E-002	-3.13444E-002	0.00000E+000	-1.56346E-003	-3.10467E-001	3.40197E-002	2.76524E+001	11	...........	5.63256E-002	-4.08375E-003	5.64625E-001	6.43424E-001	-3.00181E-002	-3.93283E-002	6.52805E-001	-4.32569E-002	-1.76549E-003	1.28003E-004	-1.76978E-002	-2.01677E-002	9.40897E-004	1.23272E-003	-2.04618E-002	1.35586E-003
	8	8	4.99092E-002	-2.56378E-002	0.00000E+000	-1.27956E-003	-2.53723E-001	3.40001E-002	2.83218E+001	11	...........	5.62793E-002	-4.07806E-003	5.64684E-001	6.43494E-001	-2.99961E-002	-3.93504E-002	6.52865E-001	-4.33289E-002	-1.44288E-003	1.04552E-004	-1.44772E-002	-1.64977E-002	7.69033E-004	1.00886E-003	-1.67380E-002	1.11086E-003
	9	9	4.99302E-002	-2.18078E-002	0.00000E+000	-1.08887E-003	-2.15632E-001	3.39960E-002	2.84870E+001	11	...........	5.62501E-002	-4.19944E-003	5.64720E-001	6.43464E-001	-2.99804E-002	-3.93561E-002	6.52841E-001	-4.33329E-002	-1.22669E-003	9.15807E-005	-1.23153E-002	-1.40325E-002	6.53807E-004	8.58271E-004	-1.42370E-002	9.44996E-004
	10	10	4.99380E-002	-1.92390E-002	0.00000E+000	-9.60757E-004	-1.90109E-001	3.40498E-002	2.86078E+001	11	...........	5.63507E-002	-4.36750E-003	5.64792E-001	6.43577E-001	-2.99742E-002	-3.93403E-002	6.52897E-001	-4.32003E-002	-1.08413E-003	8.40262E-005	-1.08660E-002	-1.23818E-002	5.76672E-004	7.56867E-004	-1.25611E-002	8.31129E-004
	11	11	4.99531E-002	-1.74855E-002	0.00000E+000	-8.73452E-004	-1.72646E-001	3.41615E-002	2.89577E+001	11	...........	5.65226E-002	-4.41806E-003	5.64863E-001	6.43643E-001	-2.99760E-002	-3.93631E-002	6.52926E-001	-4.31272E-002	-9.88324E-004	7.72517E-005	-9.87688E-003	-1.12544E-002	5.24143E-004	6.88281E-004	-1.14167E-002	7.54099E-004
	12	12	4.99486E-002	-1.59131E-002	0.00000E+000	-7.94836E-004	-1.57024E-001	3.38974E-002	2.83797E+001	11	...........	5.61001E-002	-4.38306E-003	5.64971E-001	6.43634E-001	-2.99732E-002	-3.93904E-002	6.52914E-001	-4.31517E-002	-8.92726E-004	6.97479E-005	-8.99043E-003	-1.02422E-002	4.76966E-004	6.26823E-004	-1.03899E-002	6.86676E-004
	13	13	4.99563E-002	-1.50376E-002	0.00000E+000	-7.51223E-004	-1.48289E-001	3.42388E-002	2.91920E+001	11	...........	5.66612E-002	-4.34583E-003	5.65080E-001	6.43795E-001	-3.00068E-002	-3.93815E-002	6.52849E-001	-4.31572E-002	-8.52049E-004	6.53509E-005	-8.49744E-003	-9.68112E-003	4.51230E-004	5.92204E-004	-9.81728E-003	6.48981E-004
	14	14	4.99577E-002	-1.41984E-002	0.00000E+000	-7.09321E-004	-1.39977E-001	3.42094E-002	2.95812E+001	11	...........	5.66312E-002	-4.47722E-003	5.65028E-001	6.43825E-001	-3.00349E-002	-3.93942E-002	6.52815E-001	-4.32362E-002	-8.04075E-004	6.35696E-005	-8.02252E-003	-9.14130E-003	4.26448E-004	5.59336E-004	-9.26895E-003	6.13887E-004
	15	15	4.99585E-002	-1.34573E-002	0.00000E+000	-6.72308E-004	-1.32600E-001	3.41552E-002	2.90934E+001	11	...........	5.65140E-002	-4.44931E-003	5.65079E-001	6.43949E-001	-3.00336E-002	-3.93961E-002	6.52885E-001	-4.31557E-002	-7.60528E-004	5.98758E-005	-7.60446E-003	-8.66584E-003	4.04173E-004	5.30167E-004	-8.78610E-003	5.80761E-004
	16	16	4.99622E-002	-1.29449E-002	0.00000E+000	-6.46756E-004	-1.27484E-001	3.41216E-002	2.92538E+001	11	...........	5.64560E-002	-4.26222E-003	5.65136E-001	6.44065E-001	-3.00542E-002	-3.93782E-002	6.52834E-001	-4.31708E-002	-7.30816E-004	5.51740E-005	-7.31563E-003	-8.33736E-003	3.89048E-004	5.09746E-004	-8.45086E-003	5.58842E-004
	17	17	4.99585E-002	-1.24417E-002	0.00000E+000	-6.21570E-004	-1.22465E-001	3.42182E-002	2.92635E+001	11	...........	5.65768E-002	-4.15361E-003	5.65292E-001	6.44167E-001	-3.00857E-002	-3.93679E-002	6.52967E-001	-4.31746E-002	-7.03912E-004	5.16780E-005	-7.03319E-003	-8.01454E-003	3.74317E-004	4.89804E-004	-8.12402E-003	5.37166E-004
	18	18	4.99633E-002	-1.19697E-002	0.00000E+000	-5.98047E-004	-1.17776E-001	3.42187E-002	2.88895E+001	11	...........	5.66306E-002	-4.42361E-003	5.65240E-001	6.44058E-001	-3.00933E-002	-3.93721E-002	6.53038E-001	-4.32654E-002	-6.77853E-004	5.29494E-005	-6.76577E-003	-7.70920E-003	3.60209E-004	4.71273E-004	-7.81670E-003	5.17875E-004
	19	19	4.99663E-002	-1.15464E-002	0.00000E+000	-5.76930E-004	-1.13619E-001	3.42901E-002	2.93198E+001	11	...........	5.67671E-002	-4.18056E-003	5.65292E-001	6.43958E-001	-3.00957E-002	-3.94028E-002	6.53004E-001	-4.31964E-002	-6.55455E-004	4.82703E-005	-6.52708E-003	-7.43539E-003	3.47497E-004	4.54960E-004	-7.53983E-003	4.98762E-004
	20	20	4.99599E-002	-1.12038E-002	0.00000E+000	-5.59741E-004	-1.10200E-001	3.40847E-002	2.90268E+001	11	...........	5.66633E-002	-4.18097E-003	5.65476E-001	6.43912E-001	-3.01435E-002	-3.94103E-002	6.53046E-001	-4.32529E-002	-6.34845E-004	4.68428E-005	-6.33549E-003	-7.21426E-003	3.37722E-004	4.41545E-004	-7.31660E-003	4.84597E-004
	21	21	4.99614E-002	-1.07544E-002	0.00000E+000	-5.37308E-004	-1.05714E-001	3.40162E-002	2.89857E+001	11	...........	5.67100E-002	-4.26694E-003	5.65422E-001	6.43965E-001	-3.01615E-002	-3.94092E-002	6.52954E-001	-4.32854E-002	-6.09885E-004	4.58886E-005	-6.08080E-003	-6.92549E-003	3.24371E-004	4.23824E-004	-7.02216E-003	4.65511E-004
	22	22	4.99679E-002	-1.05458E-002	0.00000E+000	-5.26953E-004	-1.03633E-001	3.38215E-002	2.91282E+001	11	...........	5.63811E-002	-4.30444E-003	5.65321E-001	6.43965E-001	-3.01689E-002	-3.93926E-002	6.52881E-001	-4.32132E-002	-5.94585E-004	4.53939E-005	-5.96177E-003	-6.79114E-003	3.18156E-004	4.15427E-004	-6.88516E-003	4.55718E-004
	23	23	4.99679E-002	-1.05502E-002	0.00000E+000	-5.27172E-004	-1.03685E-001	3.42103E-002	2.95871E+001	11	...........	5.70272E-002	-4.45361E-003	5.65432E-001	6.43861E-001	-3.01753E-002	-3.94101E-002	6.52909E-001	-4.32817E-002	-6.01649E-004	4.69865E-005	-5.96543E-003	-6.79287E-003	3.18356E-004	4.15785E-004	-6.88833E-003	4.56631E-004
	24	24	4.99609E-002	-1.02231E-002	0.00000E+000	-5.10756E-004	-1.00449E-001	3.39012E-002	2.94358E+001	11	...........	5.65154E-002	-4.38792E-003	5.65487E-001	6.44033E-001	-3.01531E-002	-3.94129E-002	6.52838E-001	-4.32286E-002	-5.77764E-004	4.48582E-005	-5.78104E-003	-6.58402E-003	3.08258E-004	4.02923E-004	-6.67404E-003	4.41931E-004
	25	25	4.99652E-002	-9.89910E-003	0.00000E+000	-4.94610E-004	-9.72137E-002	3.40534E-002	2.97319E+001	11	...........	5.67408E-002	-4.25681E-003	5.65621E-001	6.44117E-001	-3.01231E-002	-3.94182E-002	6.52847E-001	-4.32057E-002	-5.61683E-004	4.21385E-005	-5.59914E-003	-6.37617E-003	2.98191E-004	3.90205E-004	-6.46260E-003	4.27697E-004
	26	26	4.99643E-002	-9.71153E-003	0.00000E+000	-4.85230E-004	-9.53527E-002	3.41535E-002	2.96558E+001	11	...........	5.69171E-002	-4.29125E-003	5.65697E-001	6.44147E-001	-3.00812E-002	-3.94262E-002	6.52876E-001	-4.32999E-002	-5.52752E-004	4.16746E-005	-5.49379E-003	-6.25566E-003	2.92135E-004	3.82889E-004	-6.34043E-003	4.20508E-004
	27	27	4.99666E-002	-9.52891E-003	0.00000E+000	-4.76127E-004	-9.35350E-002	3.39828E-002	2.99021E+001	11	...........	5.66437E-002	-4.16972E-003	5.65734E-001	6.44149E-001	-3.00506E-002	-3.94374E-002	6.52809E-001	-4.34297E-002	-5.39753E-004	3.97329E-005	-5.39083E-003	-6.13804E-003	2.86349E-004	3.75795E-004	-6.22055E-003	4.13838E-004
	28	28	4.99632E-002	-9.37591E-003	0.00000E+000	-4.68450E-004	-9.20163E-002	3.40981E-002	2.97811E+001	11	...........	5.68514E-002	-4.16278E-003	5.65779E-001	6.44101E-001	-3.00394E-002	-3.94357E-002	6.52751E-001	-4.33024E-002	-5.33034E-004	3.90298E-005	-5.30470E-003	-6.03904E-003	2.81647E-004	3.69746E-004	-6.12014E-003	4.05999E-004
	29	29	4.99645E-002	-9.14442E-003	0.00000E+000	-4.56896E-004	-8.97310E-002	3.40031E-002	2.96813E+001	11	...........	5.66924E-002	-4.17694E-003	5.65677E-001	6.44090E-001	-3.00308E-002	-3.94211E-002	6.52680E-001	-4.33362E-002	-5.18419E-004	3.81957E-005	-5.17279E-003	-5.88983E-003	2.74615E-004	3.60483E-004	-5.96838E-003	3.96285E-004
	30	30	4.99680E-002	-8.97082E-003	0.00000E+000	-4.48254E-004	-8.80370E-002	3.40563E-002	2.99606E+001	11	...........	5.67615E-002	-4.08736E-003	5.65728E-001	6.44109E-001	-3.00185E-002	-3.94304E-002	6.52686E-001	-4.33400E-002	-5.09198E-004	3.66670E-005	-5.07504E-003	-5.77819E-003	2.69290E-004	3.53723E-004	-5.85514E-003	3.88795E-004
	31	31	4.99647E-002	-8.80408E-003	0.00000E+000	-4.39893E-004	-8.63740E-002	3.40779E-002	2.98433E+001	11	...........	5.67878E-002	-4.08222E-003	5.65735E-001	6.44188E-001	-3.00387E-002	-3.94308E-002	6.52792E-001	-4.32781E-002	-4.99964E-004	3.59402E-005	-4.98078E-003	-5.67148E-003	2.64463E-004	3.47152E-004	-5.74724E-003	3.81023E-004
	32	32	4.99651E-002	-8.65988E-003	0.00000E+000	-4.32691E-004	-8.49327E-002	3.40959E-002	2.98904E+001	11	...........	5.68258E-002	-4.24500E-003	5.65790E-001	6.44297E-001	-3.00275E-002	-3.93983E-002	6.52818E-001	-4.32685E-002	-4.92105E-004	3.67612E-005	-4.89967E-003	-5.57953E-003	2.60034E-004	3.41185E-004	-5.65333E-003	3.74700E-004
	33	33	4.99651E-002	-8.44438E-003	0.00000E+000	-4.21924E-004	-8.27787E-002	3.40682E-002	2.98244E+001	11	...........	5.67792E-002	-4.28500E-003	5.65629E-001	6.44347E-001	-3.00321E-002	-3.93982E-002	6.52691E-001	-4.32546E-002	-4.79465E-004	3.61842E-005	-4.77639E-003	-5.44111E-003	2.53602E-004	3.32693E-004	-5.51157E-003	3.65258E-004
	34	34	4.99661E-002	-8.26944E-003	0.00000E+000	-4.13191E-004	-8.10347E-002	3.40930E-002	2.97555E+001	11	...........	5.68306E-002	-4.10722E-003	5.65728E-001	6.44339E-001	-3.00528E-002	-3.94175E-002	6.52671E-001	-4.32453E-002	-4.69957E-004	3.39644E-005	-4.67825E-003	-5.32833E-003	2.48520E-004	3.25961E-004	-5.39723E-003	3.57614E-004
	35	35	4.99663E-002	-8.19160E-003	0.00000E+000	-4.09304E-004	-8.02520E-002	3.41307E-002	3.00706E+001	11	...........	5.68985E-002	-4.18278E-003	5.65874E-001	6.44367E-001	-3.00004E-002	-3.94115E-002	6.52727E-001	-4.32054E-002	-4.66089E-004	3.42636E-005	-4.63541E-003	-5.27839E-003	2.45751E-004	3.22843E-004	-5.34688E-003	3.53921E-004
	36	36	4.99647E-002	-8.03865E-003	0.00000E+000	-4.01648E-004	-7.87223E-002	3.41692E-002	3.01186E+001	11	...........	5.69504E-002	-4.26722E-003	5.65895E-001	6.44342E-001	-3.00029E-002	-3.94378E-002	6.52831E-001	-4.31676E-002	-4.57805E-004	3.43027E-005	-4.54904E-003	-5.17964E-003	2.41183E-004	3.17027E-004	-5.24789E-003	3.47010E-004
	37	37	4.99665E-002	-7.89030E-003	0.00000E+000	-3.94251E-004	-7.72500E-002	3.41054E-002	2.99461E+001	11	...........	5.68562E-002	-4.21278E-003	5.65918E-001	6.44421E-001	-2.99874E-002	-3.94108E-002	6.52901E-001	-4.32179E-002	-4.48613E-004	3.32401E-005	-4.46526E-003	-5.08468E-003	2.36609E-004	3.10963E-004	-5.15159E-003	3.41002E-004
	38	38	4.99654E-002	-7.77025E-003	0.00000E+000	-3.88243E-004	-7.60683E-002	3.41824E-002	3.02063E+001	11	...........	5.69935E-002	-4.02333E-003	5.65984E-001	6.44524E-001	-3.00171E-002	-3.94240E-002	6.52921E-001	-4.31796E-002	-4.42854E-004	3.12623E-005	-4.39784E-003	-5.00812E-003	2.33240E-004	3.06335E-004	-5.07336E-003	3.35516E-004
	39	39	4.99662E-002	-7.63526E-003	0.00000E+000	-3.81505E-004	-7.47067E-002	3.41779E-002	2.99588E+001	11	...........	5.69662E-002	-4.04167E-003	5.66053E-001	6.44425E-001	-2.99879E-002	-3.94260E-002	6.52711E-001	-4.32257E-002	-4.34952E-004	3.08592E-005	-4.32196E-003	-4.92035E-003	2.28966E-004	3.01027E-004	-4.98362E-003	3.30039E-004
	40	40	4.99660E-002	-7.51066E-003	0.00000E+000	-3.75278E-004	-7.34557E-002	3.41253E-002	2.99026E+001	11	...........	5.68593E-002	-4.08542E-003	5.65997E-001	6.44275E-001	-2.99906E-002	-3.93876E-002	6.52770E-001	-4.31989E-002	-4.27051E-004	3.06842E-005	-4.25101E-003	-4.83893E-003	2.25249E-004	2.95827E-004	-4.90273E-003	3.24452E-004
	41	41	4.99645E-002	-7.36352E-003	0.00000E+000	-3.67914E-004	-7.19873E-002	3.40927E-002	3.01954E+001	11	...........	5.68192E-002	-4.16556E-003	5.65965E-001	6.44206E-001	-3.00049E-002	-3.93890E-002	6.52800E-001	-4.31515E-002	-4.18389E-004	3.06731E-005	-4.16749E-003	-4.74362E-003	2.20941E-004	2.90042E-004	-4.80690E-003	3.17747E-004
	42	42	4.99656E-002	-7.23049E-003	0.00000E+000	-3.61276E-004	-7.06563E-002	3.42492E-002	2.96379E+001	11	...........	5.71000E-002	-4.32181E-003	5.66015E-001	6.44215E-001	-3.00099E-002	-3.93651E-002	6.52931E-001	-4.32328E-002	-4.12861E-004	3.12488E-005	-4.09257E-003	-4.65799E-003	2.16986E-004	2.84629E-004	-4.72102E-003	3.12594E-004
	43	43	4.99691E-002	-7.15375E-003	0.00000E+000	-3.57467E-004	-6.99127E-002	3.42219E-002	2.98887E+001	11	...........	5.70367E-002	-4.22222E-003	5.65972E-001	6.44202E-001	-3.00332E-002	-3.93429E-002	6.52887E-001	-4.32858E-002	-4.08026E-004	3.02047E-005	-4.04882E-003	-4.60846E-003	2.14850E-004	2.81449E-004	-4.67059E-003	3.09656E-004
	44	44	4.99652E-002	-7.06279E-003	0.00000E+000	-3.52894E-004	-6.90010E-002	3.40726E-002	2.98278E+001	11	...........	5.67937E-002	-4.35403E-003	5.66115E-001	6.44296E-001	-3.00657E-002	-3.92943E-002	6.52949E-001	-4.32921E-002	-4.01122E-004	3.07516E-005	-3.99835E-003	-4.55053E-003	2.12348E-004	2.77527E-004	-4.61164E-003	3.05763E-004
	45	45	4.99647E-002	-6.96281E-003	0.00000E+000	-3.47894E-004	-6.80030E-002	3.42532E-002	3.00068E+001	11	...........	5.71131E-002	-4.22819E-003	5.66125E-001	6.44389E-001	-3.00501E-002	-3.92961E-002	6.52918E-001	-4.32400E-002	-3.97667E-004	2.94401E-005	-3.94182E-003	-4.48676E-003	2.09233E-004	2.73611E-004	-4.54614E-003	3.01072E-004
	46	46	4.99668E-002	-6.85642E-003	0.00000E+000	-3.42593E-004	-6.69493E-002	3.42462E-002	3.04326E+001	11	...........	5.70786E-002	-4.17861E-003	5.65996E-001	6.44394E-001	-3.00589E-002	-3.93167E-002	6.52873E-001	-4.32806E-002	-3.91355E-004	2.86503E-005	-3.88070E-003	-4.41823E-003	2.06096E-004	2.69572E-004	-4.47637E-003	2.96750E-004
	47	47	4.99671E-002	-6.73557E-003	0.00000E+000	-3.36557E-004	-6.57503E-002	3.42283E-002	2.99879E+001	11	...........	5.70118E-002	-4.14931E-003	5.65829E-001	6.44347E-001	-3.00269E-002	-3.93168E-002	6.52797E-001	-4.33511E-002	-3.84007E-004	2.79479E-005	-3.81118E-003	-4.34005E-003	2.02249E-004	2.64821E-004	-4.39696E-003	2.91994E-004
	48	48	4.99647E-002	-6.64098E-003	0.00000E+000	-3.31814E-004	-6.48213E-002	3.41380E-002	2.99512E+001	11	...........	5.69107E-002	-4.18694E-003	5.65839E-001	6.44366E-001	-3.00303E-002	-3.93208E-002	6.52721E-001	-4.33082E-002	-3.77943E-004	2.78054E-005	-3.75773E-003	-4.27922E-003	1.99430E-004	2.61129E-004	-4.33471E-003	2.87609E-004
	49	49	4.99672E-002	-6.54295E-003	0.00000E+000	-3.26933E-004	-6.38703E-002	3.42156E-002	2.99628E+001	11	...........	5.70212E-002	-4.07347E-003	5.65519E-001	6.44329E-001	-3.00115E-002	-3.93267E-002	6.52740E-001	-4.33022E-002	-3.73087E-004	2.66525E-005	-3.70016E-003	-4.21582E-003	1.96364E-004	2.57313E-004	-4.27085E-003	2.83324E-004
	50	50	4.99669E-002	-6.50843E-003	0.00000E+000	-3.25206E-004	-6.35227E-002	3.42579E-002	3.00969E+001	11	...........	5.70919E-002	-4.03944E-003	5.65413E-001	6.44390E-001	-3.00061E-002	-3.93206E-002	6.52784E-001	-4.33369E-002	-3.71579E-004	2.62904E-005	-3.67995E-003	-4.19397E-003	1.95293E-004	2.55915E-004	-4.24860E-003	2.82056E-004
	51	51	4.99660E-002	-6.40817E-003	0.00000E+000	-3.20190E-004	-6.25443E-002	3.41999E-002	2.98053E+001	11	...........	5.70153E-002	-4.19694E-003	5.65385E-001	6.44328E-001	-2.99724E-002	-3.93540E-002	6.52885E-001	-4.33029E-002	-3.65363E-004	2.68947E-005	-3.62308E-003	-4.12896E-003	1.92068E-004	2.52187E-004	-4.18379E-003	2.77492E-004
	52	52	4.99668E-002	-6.27876E-003	0.00000E+000	-3.13730E-004	-6.12543E-002	3.41704E-002	2.97089E+001	11	...........	5.69447E-002	-4.22181E-003	5.65649E-001	6.44310E-001	-2.99462E-002	-3.93211E-002	6.52831E-001	-4.32800E-002	-3.57542E-004	2.65077E-005	-3.55158E-003	-4.04547E-003	1.88025E-004	2.46888E-004	-4.09897E-003	2.71745E-004
	53	53	4.99661E-002	-6.22407E-003	0.00000E+000	-3.10992E-004	-6.07057E-002	3.43308E-002	3.02156E+001	11	...........	5.72404E-002	-4.29806E-003	5.65711E-001	6.44261E-001	-2.99386E-002	-3.93621E-002	6.52874E-001	-4.32517E-002	-3.56268E-004	2.67514E-005	-3.52102E-003	-4.00992E-003	1.86340E-004	2.44992E-004	-4.06353E-003	2.69201E-004
	54	54	4.99677E-002	-6.03957E-003	0.00000E+000	-3.01784E-004	-5.88707E-002	3.42417E-002	3.02951E+001	11	...........	5.70699E-002	-4.22903E-003	5.65829E-001	6.44197E-001	-2.99115E-002	-3.93994E-002	6.53023E-001	-4.32257E-002	-3.44677E-004	2.55415E-005	-3.41736E-003	-3.89067E-003	1.80653E-004	2.37956E-004	-3.94398E-003	2.61065E-004
	55	55	4.99658E-002	-6.05206E-003	0.00000E+000	-3.02396E-004	-5.89933E-002	3.41172E-002	2.99450E+001	11	...........	5.68669E-002	-4.38639E-003	5.65712E-001	6.44284E-001	-2.98900E-002	-3.93614E-002	6.52989E-001	-4.32485E-002	-3.44162E-004	2.65467E-005	-3.42373E-003	-3.89925E-003	1.80896E-004	2.38218E-004	-3.95193E-003	2.61742E-004
	56	56	4.99672E-002	-6.01819E-003	0.00000E+000	-3.00712E-004	-5.86530E-002	3.44192E-002	3.01938E+001	11	...........	5.73574E-002	-4.37083E-003	5.65739E-001	6.44332E-001	-2.99233E-002	-3.93686E-002	6.53020E-001	-4.32658E-002	-3.45187E-004	2.63045E-005	-3.40472E-003	-3.87771E-003	1.80084E-004	2.36928E-004	-3.93000E-003	2.60382E-004
	57	57	4.99657E-002	-5.95044E-003	0.00000E+000	-2.97318E-004	-5.79757E-002	3.41943E-002	3.03017E+001	11	...........	5.69782E-002	-4.26583E-003	5.65697E-001	6.44335E-001	-2.99185E-002	-3.93886E-002	6.53036E-001	-4.32281E-002	-3.39045E-004	2.53836E-005	-3.36615E-003	-3.83408E-003	1.78028E-004	2.34380E-004	-3.88585E-003	2.57226E-004
	58	58	4.99668E-002	-5.84437E-003	0.00000E+000	-2.92025E-004	-5.69180E-002	3.43125E-002	2.97631E+001	11	...........	5.71822E-002	-4.21750E-003	5.65864E-001	6.44494E-001	-2.99056E-002	-3.93868E-002	6.53002E-001	-4.33050E-002	-3.34194E-004	2.46486E-005	-3.30712E-003	-3.76666E-003	1.74779E-004	2.30191E-004	-3.81639E-003	2.53091E-004
	59	59	4.99673E-002	-5.77538E-003	0.00000E+000	-2.88580E-004	-5.62327E-002	3.41990E-002	3.00766E+001	11	...........	5.70114E-002	-4.15306E-003	5.65803E-001	6.44563E-001	-2.99292E-002	-3.93722E-002	6.52964E-001	-4.32517E-002	-3.29262E-004	2.39855E-005	-3.26773E-003	-3.72260E-003	1.72852E-004	2.27389E-004	-3.77111E-003	2.49795E-004
	60	60	4.99660E-002	-5.71659E-003	0.00000E+000	-2.85635E-004	-5.56420E-002	3.43367E-002	3.04627E+001	11	...........	5.72194E-002	-4.15139E-003	5.65831E-001	6.44666E-001	-2.99406E-002	-3.93639E-002	6.52899E-001	-4.33218E-002	-3.27100E-004	2.37318E-005	-3.23462E-003	-3.68529E-003	1.71158E-004	2.25027E-004	-3.73236E-003	2.47653E-004
	61	61	4.99668E-002	-5.63838E-003	0.00000E+000	-2.81732E-004	-5.48567E-002	3.42486E-002	3.01991E+001	11	...........	5.70929E-002	-3.97042E-003	5.65779E-001	6.44941E-001	-2.99897E-002	-3.93556E-002	6.53063E-001	-4.33643E-002	-3.21912E-004	2.23867E-005	-3.19008E-003	-3.63642E-003	1.69093E-004	2.21902E-004	-3.68222E-003	2.44504E-004
	62	62	4.99668E-002	-5.61055E-003	0.00000E+000	-2.80341E-004	-5.45770E-002	3.43647E-002	3.00393E+001	11	...........	5.72919E-002	-4.05417E-003	5.65632E-001	6.44923E-001	-2.99946E-002	-3.93350E-002	6.53113E-001	-4.33585E-002	-3.21439E-004	2.27461E-005	-3.17350E-003	-3.61837E-003	1.68286E-004	2.20691E-004	-3.66432E-003	2.43265E-004
	63	63	4.99655E-002	-5.51418E-003	0.00000E+000	-2.75519E-004	-5.36193E-002	3.42797E-002	2.99079E+001	11	...........	5.71343E-002	-3.95097E-003	5.65596E-001	6.44809E-001	-3.00040E-002	-3.93415E-002	6.53090E-001	-4.32660E-002	-3.15049E-004	2.17864E-005	-3.11879E-003	-3.55559E-003	1.65447E-004	2.16936E-004	-3.60125E-003	2.38576E-004
	64	64	4.99684E-002	-5.47597E-003	0.00000E+000	-2.73625E-004	-5.32333E-002	3.42558E-002	3.02783E+001	11	...........	5.70907E-002	-3.92194E-003	5.65608E-001	6.44566E-001	-3.00032E-002	-3.93935E-002	6.53169E-001	-4.32712E-002	-3.12627E-004	2.14764E-005	-3.09725E-003	-3.52962E-003	1.64297E-004	2.15717E-004	-3.57673E-003	2.36952E-004
	65	65	4.99658E-002	-5.39307E-003	0.00000E+000	-2.69469E-004	-5.24053E-002	3.42571E-002	3.04398E+001	11	...........	5.70767E-002	-4.07958E-003	5.65692E-001	6.44334E-001	-2.99928E-002	-3.93983E-002	6.53121E-001	-4.34653E-002	-3.07818E-004	2.20015E-005	-3.05082E-003	-3.47494E-003	1.61753E-004	2.12478E-004	-3.52233E-003	2.34411E-004
	66	66	4.99666E-002	-5.31959E-003	0.00000E+000	-2.65802E-004	-5.16630E-002	3.43897E-002	2.97662E+001	11	...........	5.73317E-002	-4.03111E-003	5.65885E-001	6.44286E-001	-3.00382E-002	-3.93918E-002	6.53143E-001	-4.34508E-002	-3.04981E-004	2.14438E-005	-3.01028E-003	-3.42734E-003	1.59791E-004	2.09548E-004	-3.47445E-003	2.31140E-004
	67	67	4.99676E-002	-5.27792E-003	0.00000E+000	-2.63725E-004	-5.12713E-002	3.42882E-002	3.03376E+001	11	...........	5.71712E-002	-4.01389E-003	5.65923E-001	6.44311E-001	-3.00175E-002	-3.93546E-002	6.53192E-001	-4.33357E-002	-3.01745E-004	2.11850E-005	-2.98690E-003	-3.40062E-003	1.58430E-004	2.07710E-004	-3.44750E-003	2.28722E-004
	68	68	4.99673E-002	-5.24767E-003	0.00000E+000	-2.62212E-004	-5.09887E-002	3.43323E-002	3.03384E+001	11	...........	5.72340E-002	-4.15694E-003	5.65883E-001	6.44224E-001	-3.00354E-002	-3.93700E-002	6.53226E-001	-4.32950E-002	-3.00345E-004	2.18143E-005	-2.96957E-003	-3.38067E-003	1.57616E-004	2.06601E-004	-3.42791E-003	2.27198E-004
	69	69	4.99649E-002	-5.16935E-003	0.00000E+000	-2.58286E-004	-5.01953E-002	3.42581E-002	3.00854E+001	11	...........	5.71108E-002	-4.08694E-003	5.65912E-001	6.44185E-001	-3.00635E-002	-3.93812E-002	6.53201E-001	-4.33051E-002	-2.95226E-004	2.11269E-005	-2.92540E-003	-3.33002E-003	1.55409E-004	2.03576E-004	-3.37663E-003	2.23859E-004
	70	69.2833	4.99658E-002	-5.05606E-003	0.00000E+000	-2.52630E-004	-4.90529E-002	3.44409E-002	2.95064E+001	11	...........	5.74314E-002	-4.07696E-003	5.65898E-001	6.44249E-001	-3.01010E-002	-3.93618E-002	6.53144E-001	-4.33863E-002	-2.90376E-004	2.06133E-005	-2.86121E-003	-3.25736E-003	1.52192E-004	1.99015E-004	-3.30233E-003	2.19363E-004
STARTTIMEOFFSET	QUANT	483316	Start Time Offset (s)
