EXPLAIN
TAG	PWR800_DISCHARGE
TITLE	LABEL	PWR Discharge	Test Identifier
DATE	LABEL	10/12/2022	Date
TIME	LABEL	18:42:22	Time
NOTES	NOTES	1	Notes...
	
PSTAT	PSTAT	REF3000-21114	Potentiostat
CAPACITY	QUANT	5.30000E-002	Capacity (A-hr)
CELLTYPE	SELECTOR	1	Cell Type
WORKINGCONNECTION	SELECTOR	0	Working Connection
MAXDISCHARGETIME	VARIABLEANDUNITS	7.20000E+003	s	2.00000E+000	hour(s)	Max Discharge Time
DISCHARGEMODE	MULTIPARAM	0	1.00000E-001	Discharge Mode	Constant Current	Amp(s)
VOLTAGEFINISH	TWOPARAM	T	5.00000E-003	7.20000E+003	Voltage Finish	I (A) <	Max Time(s)
SAMPLETIME	QUANT	1.00000E+000	Sample Period (s)
DISCHARGESTOPAT1	MULTIPARAM	1	5.00000E-002	Stop At 1	|Voltage| < Limit	V
DISCHARGESTOPAT2	MULTIPARAM	0	0.00000E+000	Stop At 2	None	N/A
AESELECTOR	AESELECTOR	0x1	T	Set Limits	AE Channels
AESBHCSELECTOR	TOGGLE	F	Save Both Half Cells
IRCOMP	TOGGLE	F	IR Measure
EOC	QUANT	0.5523996	Open Circuit (V)
SEQUENCER	TOGGLE	TRUE	Run as Sequence
PSTATMODEL	IQUANT	5	Pstat Model
PSTATSECTION	LABEL	REF3000-21114	Pstat Section
PSTATSERIALNO	LABEL	21114	Pstat Serial Number
CTRLMODE	IQUANT	0	Control Mode
ELECTROMETER	IQUANT	0	RE=0 or CS=1
IESTAB	IQUANT	0	I/E Stability
CASPEED	IQUANT	4	Control Amp Speed
CONVENTION	IQUANT	1	Current Convention
ICHRANGE	IQUANT	2	Ich Range
ICHRANGEMODE	TOGGLE	T	Ich Auto Range
ICHOFFSETENABLE	TOGGLE	F	Ich Offset Enable
ICHOFFSET	QUANT	0	Ich Offset (V)
ICHFILTER	IQUANT	1	Ich Filter
VCHRANGE	IQUANT	3	Vch Range
VCHRANGEMODE	TOGGLE	T	Vch Auto Range
VCHOFFSETENABLE	TOGGLE	F	Vch Offset Enable
VCHOFFSET	QUANT	0	Vch Offset (V)
VCHFILTER	IQUANT	1	Vch Filter
ACHRANGE	IQUANT	2	Ach Range
ACHOFFSETENABLE	TOGGLE	F	Ach Offset Enable
ACHOFFSET	QUANT	0	Ach Offset (V)
ACHFILTER	IQUANT	1	Ach Filter
IERANGELOWERLIMIT	IQUANT	9	I/E Range Lower Limit
IERANGEMODE	TOGGLE	F	I/E AutoRange
IERANGE	IQUANT	9	I/E Range
POSFEEDENABLE	TOGGLE	F	Positive Feedback IR Comp
POSFEEDRESISTANCE	QUANT	0	Positive Feedback Resistance (ohm)
ACHSELECT	IQUANT	1	Ach Select
SENSECABLEID	IQUANT	13	Sense Cable ID
PWRCABLEID	IQUANT	13	Power Cable ID
DCCALDATE	LABEL		DC Calibration Date
ACCALDATE	LABEL		AC Calibration Date
THERMOSELECT	IQUANT	1	Thermo Select
FRAMEWORKVERSION	LABEL	7.8.6	Framework Version
INSTRUMENTVERSION	LABEL	4.50	Instrument Version
COMPLIANCEVOLTAGE	IQUANT	0	Compliance Voltage
CURVE	TABLE	113
	Pt	T	Vf	Im	Vu	Pwr	Sig	Ach	Temp	IERange	Over	Vf1	Vf2	Vf3	Vf4	Vf5	Vf6	Vf7	Vf8	Pwr1	Pwr2	Pwr3	Pwr4	Pwr5	Pwr6	Pwr7	Pwr8
	#	s	V	A	V	W	V	V	deg C	#	bits	V	V	V	V	V	V	V	V	W	W	W	W	W	W	W	W
	0	1	3.24378E-001	-1.00084E-001	0.00000E+000	-3.24651E-002	-9.94000E-001	3.78929E-002	2.99530E+001	11	...........	6.29562E-002	-3.59889E-003	5.59391E-001	6.55714E-001	-3.00693E-002	-3.94614E-002	6.37802E-001	-4.30360E-002	-6.30092E-003	3.60191E-004	-5.59861E-002	-6.56266E-002	3.00946E-003	3.94946E-003	-6.38338E-002	4.30722E-003
	1	2	2.33283E-001	-1.00085E-001	0.00000E+000	-2.33481E-002	-9.94000E-001	3.79278E-002	2.92541E+001	11	...........	6.30051E-002	-3.75625E-003	5.59446E-001	6.55703E-001	-3.00210E-002	-3.94857E-002	6.37711E-001	-4.30560E-002	-6.30587E-003	3.75944E-004	-5.59921E-002	-6.56260E-002	3.00465E-003	3.95192E-003	-6.38252E-002	4.30925E-003
	2	3	1.52831E-001	-1.00085E-001	0.00000E+000	-1.52961E-002	-9.94000E-001	3.78624E-002	2.85078E+001	11	...........	6.28864E-002	-3.78861E-003	5.59623E-001	6.55728E-001	-2.99871E-002	-3.94915E-002	6.37735E-001	-4.30649E-002	-6.29399E-003	3.79183E-004	-5.60099E-002	-6.56286E-002	3.00126E-003	3.95251E-003	-6.38277E-002	4.31015E-003
	3	3.97	8.22334E-002	-1.00085E-001	0.00000E+000	-8.23036E-003	-9.94000E-001	3.78184E-002	2.78904E+001	11	...........	6.28224E-002	-3.75415E-003	5.59726E-001	6.55633E-001	-2.99754E-002	-3.94712E-002	6.37720E-001	-4.30899E-002	-6.28761E-003	3.75736E-004	-5.60204E-002	-6.56193E-002	3.00010E-003	3.95049E-003	-6.38264E-002	4.31267E-003
	4	4	5.02807E-002	-9.84258E-002	0.00000E+000	-4.94891E-003	-9.77489E-001	3.78250E-002	2.76983E+001	11	...........	6.28518E-002	-3.69444E-003	5.59648E-001	6.55560E-001	-2.98657E-002	-3.95093E-002	6.37782E-001	-4.29676E-002	-6.18624E-003	3.63629E-004	-5.50838E-002	-6.45240E-002	2.93956E-003	3.88873E-003	-6.27742E-002	4.22912E-003
	5	5	4.94505E-002	-7.78191E-002	0.00000E+000	-3.84820E-003	-7.72615E-001	3.79997E-002	2.87166E+001	11	...........	6.31376E-002	-3.75319E-003	5.59539E-001	6.55494E-001	-2.99974E-002	-3.94392E-002	6.37731E-001	-4.30282E-002	-4.91331E-003	2.92070E-004	-4.35429E-002	-5.10100E-002	2.33437E-003	3.06912E-003	-4.96277E-002	3.34842E-003
	6	6	4.97155E-002	-5.46636E-002	0.00000E+000	-2.71763E-003	-5.42402E-001	3.80682E-002	2.99025E+001	11	...........	6.32710E-002	-3.76722E-003	5.59583E-001	6.55379E-001	-2.99774E-002	-3.94226E-002	6.37874E-001	-4.30565E-002	-3.45862E-003	2.05930E-004	-3.05889E-002	-3.58254E-002	1.63867E-003	2.15498E-003	-3.48685E-002	2.35363E-003
	7	7	4.97964E-002	-4.29403E-002	0.00000E+000	-2.13827E-003	-4.25851E-001	3.81230E-002	3.05569E+001	11	...........	6.33571E-002	-3.67903E-003	5.59518E-001	6.55379E-001	-2.99761E-002	-3.94142E-002	6.37851E-001	-4.29781E-002	-2.72057E-003	1.57978E-004	-2.40259E-002	-2.81422E-002	1.28718E-003	1.69246E-003	-2.73895E-002	1.84549E-003
	8	8	4.98371E-002	-3.59818E-002	0.00000E+000	-1.79323E-003	-3.56665E-001	3.81596E-002	3.09939E+001	11	...........	6.34310E-002	-3.80764E-003	5.59716E-001	6.55214E-001	-2.99458E-002	-3.94312E-002	6.37961E-001	-4.29167E-002	-2.28236E-003	1.37006E-004	-2.01396E-002	-2.35758E-002	1.07751E-003	1.41881E-003	-2.29550E-002	1.54422E-003
	9	9	4.98591E-002	-3.15040E-002	0.00000E+000	-1.57076E-003	-3.12144E-001	3.82064E-002	3.12764E+001	11	...........	6.34719E-002	-3.68806E-003	5.59748E-001	6.55082E-001	-2.99653E-002	-3.94469E-002	6.37970E-001	-4.29583E-002	-1.99962E-003	1.16188E-004	-1.76343E-002	-2.06377E-002	9.44025E-004	1.24273E-003	-2.00986E-002	1.35336E-003
	10	10	4.98717E-002	-2.84371E-002	0.00000E+000	-1.41821E-003	-2.81663E-001	3.82423E-002	3.14838E+001	11	...........	6.35396E-002	-3.73931E-003	5.59704E-001	6.54926E-001	-2.99706E-002	-3.94089E-002	6.37827E-001	-4.29554E-002	-1.80688E-003	1.06335E-004	-1.59163E-002	-1.86242E-002	8.52275E-004	1.12067E-003	-1.81379E-002	1.22153E-003
	11	11	4.98806E-002	-2.62388E-002	0.00000E+000	-1.30881E-003	-2.59805E-001	3.82876E-002	3.16557E+001	11	...........	6.35837E-002	-3.76278E-003	5.59541E-001	6.54956E-001	-2.99953E-002	-3.93744E-002	6.37878E-001	-4.29057E-002	-1.66836E-003	9.87307E-005	-1.46817E-002	-1.71852E-002	7.87039E-004	1.03314E-003	-1.67371E-002	1.12579E-003
	12	12	4.98862E-002	-2.45816E-002	0.00000E+000	-1.22628E-003	-2.43321E-001	3.83302E-002	3.18114E+001	11	...........	6.36292E-002	-3.84528E-003	5.59451E-001	6.54894E-001	-2.99953E-002	-3.93651E-002	6.37952E-001	-4.28201E-002	-1.56411E-003	9.45232E-005	-1.37522E-002	-1.60984E-002	7.37332E-004	9.67659E-004	-1.56819E-002	1.05259E-003
	13	13	4.98888E-002	-2.32857E-002	0.00000E+000	-1.16170E-003	-2.30442E-001	3.83577E-002	3.19575E+001	11	...........	6.36937E-002	-3.83569E-003	5.59281E-001	6.55022E-001	-2.99937E-002	-3.93881E-002	6.38000E-001	-4.29431E-002	-1.48316E-003	8.93169E-005	-1.30233E-002	-1.52527E-002	6.98426E-004	9.17180E-004	-1.48563E-002	9.99960E-004
	14	14	4.98921E-002	-2.22394E-002	0.00000E+000	-1.10957E-003	-2.20033E-001	3.83879E-002	3.20693E+001	11	...........	6.37403E-002	-3.78292E-003	5.59112E-001	6.55138E-001	-3.00047E-002	-3.93933E-002	6.38072E-001	-4.29011E-002	-1.41755E-003	8.41298E-005	-1.24343E-002	-1.45699E-002	6.67287E-004	8.76084E-004	-1.41903E-002	9.54095E-004
	15	15	4.98936E-002	-2.13880E-002	0.00000E+000	-1.06713E-003	-2.11565E-001	3.84170E-002	3.21841E+001	11	...........	6.38197E-002	-3.76861E-003	5.59057E-001	6.55291E-001	-2.99899E-002	-3.93844E-002	6.38046E-001	-4.29075E-002	-1.36498E-003	8.06032E-005	-1.19571E-002	-1.40154E-002	6.41424E-004	8.42356E-004	-1.36465E-002	9.17707E-004
	16	16	4.98948E-002	-2.06573E-002	0.00000E+000	-1.03069E-003	-2.04307E-001	3.84538E-002	3.22862E+001	11	...........	6.38651E-002	-3.80569E-003	5.59045E-001	6.55265E-001	-3.00064E-002	-3.93919E-002	6.37978E-001	-4.29236E-002	-1.31928E-003	7.86156E-005	-1.15484E-002	-1.35360E-002	6.19852E-004	8.13733E-004	-1.31789E-002	8.86688E-004
	17	17	4.98959E-002	-2.00187E-002	0.00000E+000	-9.98851E-004	-1.97959E-001	3.84890E-002	3.23515E+001	11	...........	6.39360E-002	-3.73458E-003	5.59031E-001	6.54993E-001	-3.00079E-002	-3.93796E-002	6.38108E-001	-4.29622E-002	-1.27992E-003	7.47616E-005	-1.11911E-002	-1.31121E-002	6.00720E-004	7.88329E-004	-1.27741E-002	8.60049E-004
	18	18	4.98968E-002	-1.94427E-002	0.00000E+000	-9.70128E-004	-1.92222E-001	3.85141E-002	3.24350E+001	11	...........	6.39822E-002	-3.64167E-003	5.58919E-001	6.55008E-001	-3.00151E-002	-3.93637E-002	6.37944E-001	-4.29125E-002	-1.24399E-003	7.08038E-005	-1.08669E-002	-1.27351E-002	5.83575E-004	7.65337E-004	-1.24033E-002	8.34334E-004
	19	19	4.98969E-002	-1.89357E-002	0.00000E+000	-9.44834E-004	-1.87191E-001	3.85421E-002	3.25221E+001	11	...........	6.40332E-002	-3.65194E-003	5.59119E-001	6.54827E-001	-3.00193E-002	-3.93731E-002	6.37903E-001	-4.30094E-002	-1.21251E-003	6.91522E-005	-1.05873E-002	-1.23996E-002	5.68437E-004	7.45557E-004	-1.20791E-002	8.14415E-004
	20	20	4.98979E-002	-1.84652E-002	0.00000E+000	-9.21374E-004	-1.82503E-001	3.84752E-002	3.25951E+001	11	...........	6.40897E-002	-3.70736E-003	5.59272E-001	6.54751E-001	-3.00264E-002	-3.93706E-002	6.37963E-001	-4.29853E-002	-1.18343E-003	6.84571E-005	-1.03271E-002	-1.20901E-002	5.54443E-004	7.26984E-004	-1.17801E-002	7.93731E-004
	21	21	4.98983E-002	-1.80227E-002	0.00000E+000	-8.99299E-004	-1.78110E-001	3.84336E-002	3.26601E+001	11	...........	6.41267E-002	-3.64375E-003	5.59304E-001	6.54537E-001	-3.00378E-002	-3.93739E-002	6.37995E-001	-4.28828E-002	-1.15573E-003	6.56701E-005	-1.00801E-002	-1.17965E-002	5.41361E-004	7.09622E-004	-1.14984E-002	7.72862E-004
	22	22	4.98980E-002	-1.76223E-002	0.00000E+000	-8.79318E-004	-1.74125E-001	3.84548E-002	3.27250E+001	11	...........	6.41747E-002	-3.68417E-003	5.59334E-001	6.54551E-001	-3.00382E-002	-3.93836E-002	6.37983E-001	-4.28281E-002	-1.13091E-003	6.49235E-005	-9.85676E-003	-1.15347E-002	5.29342E-004	6.94030E-004	-1.12427E-002	7.54729E-004
	23	23	4.98987E-002	-1.72377E-002	0.00000E+000	-8.60139E-004	-1.70296E-001	3.84747E-002	3.27835E+001	11	...........	6.41932E-002	-3.59861E-003	5.59395E-001	6.54551E-001	-3.00289E-002	-3.93986E-002	6.37970E-001	-4.27667E-002	-1.10654E-003	6.20317E-005	-9.64268E-003	-1.12830E-002	5.17629E-004	6.79141E-004	-1.09971E-002	7.37199E-004
	24	24	4.98989E-002	-1.68677E-002	0.00000E+000	-8.41682E-004	-1.66609E-001	3.85060E-002	3.28329E+001	11	...........	6.42524E-002	-3.61111E-003	5.59231E-001	6.54634E-001	-3.00601E-002	-3.93847E-002	6.37934E-001	-4.28061E-002	-1.08379E-003	6.09113E-005	-9.43296E-003	-1.10422E-002	5.07046E-004	6.64331E-004	-1.07605E-002	7.22042E-004
	25	25	4.98987E-002	-1.65296E-002	0.00000E+000	-8.24806E-004	-1.63261E-001	3.85303E-002	3.28507E+001	11	...........	6.42906E-002	-3.68111E-003	5.59310E-001	6.54576E-001	-3.00458E-002	-3.93867E-002	6.37864E-001	-4.28114E-002	-1.06270E-003	6.08474E-005	-9.24518E-003	-1.08199E-002	4.96646E-004	6.51047E-004	-1.05437E-002	7.07656E-004
	26	26	4.98995E-002	-1.62034E-002	0.00000E+000	-8.08540E-004	-1.60011E-001	3.85555E-002	3.28844E+001	11	...........	6.43328E-002	-3.71708E-003	5.59240E-001	6.54639E-001	-3.00696E-002	-3.93876E-002	6.37830E-001	-4.29036E-002	-1.04241E-003	6.02292E-005	-9.06157E-003	-1.06074E-002	4.87228E-004	6.38212E-004	-1.03350E-002	6.95183E-004
	27	27	4.98997E-002	-1.58808E-002	0.00000E+000	-7.92445E-004	-1.56800E-001	3.85721E-002	3.29301E+001	11	...........	6.43572E-002	-3.79514E-003	5.59130E-001	6.54627E-001	-3.00653E-002	-3.93765E-002	6.37862E-001	-4.29507E-002	-1.02204E-003	6.02697E-005	-8.87941E-003	-1.03960E-002	4.77460E-004	6.25329E-004	-1.01297E-002	6.82090E-004
	28	28	4.98991E-002	-1.55780E-002	0.00000E+000	-7.77331E-004	-1.53791E-001	3.86036E-002	3.29831E+001	11	...........	6.43978E-002	-3.68944E-003	5.59197E-001	6.54668E-001	-3.00594E-002	-3.93836E-002	6.37715E-001	-4.28869E-002	-1.00319E-003	5.74743E-005	-8.71119E-003	-1.01984E-002	4.68267E-004	6.13519E-004	-9.93435E-003	6.68094E-004
	29	29	4.99000E-002	-1.52889E-002	0.00000E+000	-7.62917E-004	-1.50919E-001	3.86145E-002	3.30246E+001	11	...........	6.44236E-002	-3.80514E-003	5.59262E-001	6.54613E-001	-3.00736E-002	-3.93782E-002	6.37779E-001	-4.29769E-002	-9.84968E-004	5.81765E-005	-8.55051E-003	-1.00083E-002	4.59793E-004	6.02050E-004	-9.75095E-003	6.57071E-004
	30	30	4.98998E-002	-1.50103E-002	0.00000E+000	-7.49012E-004	-1.48143E-001	3.86443E-002	3.30574E+001	11	...........	6.44665E-002	-3.83236E-003	5.59196E-001	6.54796E-001	-3.01025E-002	-3.94062E-002	6.37764E-001	-4.29965E-002	-9.67664E-004	5.75250E-005	-8.39372E-003	-9.82871E-003	4.51848E-004	5.91501E-004	-9.57304E-003	6.45392E-004
	31	31	4.98997E-002	-1.47406E-002	0.00000E+000	-7.35551E-004	-1.45457E-001	3.86655E-002	3.30871E+001	11	...........	6.45078E-002	-3.77944E-003	5.59216E-001	6.54839E-001	-3.01250E-002	-3.94000E-002	6.37697E-001	-4.29310E-002	-9.50883E-004	5.57113E-005	-8.24318E-003	-9.65271E-003	4.44060E-004	5.80779E-004	-9.40003E-003	6.32828E-004
	32	32	4.99001E-002	-1.44830E-002	0.00000E+000	-7.22703E-004	-1.42885E-001	3.86730E-002	3.31307E+001	11	...........	6.45317E-002	-3.69056E-003	5.59088E-001	6.54844E-001	-3.01372E-002	-3.93974E-002	6.37611E-001	-4.29492E-002	-9.34611E-004	5.34502E-005	-8.09726E-003	-9.48409E-003	4.36477E-004	5.70591E-004	-9.23450E-003	6.22032E-004
	33	33	4.99002E-002	-1.42256E-002	0.00000E+000	-7.09862E-004	-1.40331E-001	3.87492E-002	3.31381E+001	11	...........	6.46474E-002	-3.63042E-003	5.59015E-001	6.54865E-001	-3.01179E-002	-3.93699E-002	6.37625E-001	-4.29719E-002	-9.19649E-004	5.16449E-005	-7.95234E-003	-9.31587E-003	4.28446E-004	5.60061E-004	-9.07061E-003	6.11303E-004
	34	34	4.98999E-002	-1.39771E-002	0.00000E+000	-6.97459E-004	-1.37873E-001	3.86911E-002	3.31991E+001	11	...........	6.45536E-002	-3.68486E-003	5.59106E-001	6.54824E-001	-3.01267E-002	-3.93590E-002	6.37682E-001	-4.29543E-002	-9.02275E-004	5.15038E-005	-7.81470E-003	-9.15257E-003	4.21085E-004	5.50127E-004	-8.91297E-003	6.00379E-004
	35	35	4.99007E-002	-1.37365E-002	0.00000E+000	-6.85461E-004	-1.35477E-001	3.87462E-002	3.32045E+001	11	...........	6.46457E-002	-3.69694E-003	5.59208E-001	6.54867E-001	-3.01529E-002	-3.93424E-002	6.37746E-001	-4.30710E-002	-8.88005E-004	5.07831E-005	-7.68156E-003	-8.99557E-003	4.14195E-004	5.40426E-004	-8.76040E-003	5.91644E-004
	36	36	4.99008E-002	-1.35356E-002	0.00000E+000	-6.75435E-004	-1.33477E-001	3.87572E-002	3.32519E+001	11	...........	6.46705E-002	-3.65167E-003	5.59223E-001	6.54989E-001	-3.01567E-002	-3.93351E-002	6.37663E-001	-4.30529E-002	-8.75352E-004	4.94273E-005	-7.56939E-003	-8.86565E-003	4.08187E-004	5.32423E-004	-8.63113E-003	5.82745E-004
	37	37	4.99000E-002	-1.33053E-002	0.00000E+000	-6.63934E-004	-1.31184E-001	3.87829E-002	3.32884E+001	11	...........	6.46907E-002	-3.75250E-003	5.59284E-001	6.55118E-001	-3.01306E-002	-3.93514E-002	6.37612E-001	-4.30908E-002	-8.60728E-004	4.99280E-005	-7.44143E-003	-8.71653E-003	4.00895E-004	5.23581E-004	-8.48360E-003	5.73335E-004
	38	38	4.99004E-002	-1.30766E-002	0.00000E+000	-6.52528E-004	-1.28909E-001	3.87944E-002	3.33323E+001	11	...........	6.47233E-002	-3.73125E-003	5.59251E-001	6.55106E-001	-3.01129E-002	-3.93664E-002	6.37610E-001	-4.30833E-002	-8.46361E-004	4.87921E-005	-7.31310E-003	-8.56656E-003	3.93774E-004	5.14778E-004	-8.33777E-003	5.63383E-004
	39	39	4.99007E-002	-1.28660E-002	0.00000E+000	-6.42025E-004	-1.26837E-001	3.88100E-002	3.33778E+001	11	...........	6.47510E-002	-3.80778E-003	5.59064E-001	6.55225E-001	-3.01268E-002	-3.93794E-002	6.37551E-001	-4.31503E-002	-8.33089E-004	4.89910E-005	-7.19294E-003	-8.43015E-003	3.87613E-004	5.06658E-004	-8.20276E-003	5.55173E-004
	40	40	4.99004E-002	-1.26596E-002	0.00000E+000	-6.31719E-004	-1.24772E-001	3.88275E-002	3.33977E+001	11	...........	6.47660E-002	-3.79361E-003	5.59028E-001	6.55145E-001	-3.01228E-002	-3.93846E-002	6.37597E-001	-4.30610E-002	-8.19911E-004	4.80256E-005	-7.07707E-003	-8.29387E-003	3.81342E-004	4.98593E-004	-8.07172E-003	5.45134E-004
	41	41	4.99009E-002	-1.24549E-002	0.00000E+000	-6.21513E-004	-1.22734E-001	3.88330E-002	3.34037E+001	11	...........	6.47897E-002	-3.79889E-003	5.59194E-001	6.55071E-001	-3.01097E-002	-3.94269E-002	6.37551E-001	-4.30793E-002	-8.06953E-004	4.73150E-005	-6.96474E-003	-8.15887E-003	3.75015E-004	4.91061E-004	-7.94067E-003	5.36551E-004
	42	42	4.99011E-002	-1.22658E-002	0.00000E+000	-6.12079E-004	-1.20845E-001	3.88528E-002	3.34227E+001	11	...........	6.48342E-002	-3.71444E-003	5.59286E-001	6.55157E-001	-3.01296E-002	-3.94340E-002	6.37570E-001	-4.29621E-002	-7.95246E-004	4.55608E-005	-6.86011E-003	-8.03606E-003	3.69565E-004	4.83692E-004	-7.82034E-003	5.26966E-004
	43	43	4.99006E-002	-1.20732E-002	0.00000E+000	-6.02458E-004	-1.18930E-001	3.88718E-002	3.34415E+001	11	...........	6.48554E-002	-3.71069E-003	5.59362E-001	6.55215E-001	-3.01343E-002	-3.94022E-002	6.37625E-001	-4.29133E-002	-7.83011E-004	4.47999E-005	-6.75327E-003	-7.91052E-003	3.63817E-004	4.75710E-004	-7.69816E-003	5.18100E-004
	44	44	4.99010E-002	-1.18838E-002	0.00000E+000	-5.93016E-004	-1.17045E-001	3.87242E-002	3.34770E+001	11	...........	6.48735E-002	-3.79389E-003	5.59482E-001	6.55167E-001	-3.01319E-002	-3.93836E-002	6.37705E-001	-4.30532E-002	-7.70946E-004	4.50860E-005	-6.64880E-003	-7.78590E-003	3.58083E-004	4.68029E-004	-7.57839E-003	5.11638E-004
	45	45	4.99010E-002	-1.17116E-002	0.00000E+000	-5.84420E-004	-1.15324E-001	3.89010E-002	3.35118E+001	11	...........	6.48971E-002	-3.90056E-003	5.59428E-001	6.55280E-001	-3.01111E-002	-3.93782E-002	6.37849E-001	-4.29975E-002	-7.60048E-004	4.56817E-005	-6.55179E-003	-7.67437E-003	3.52649E-004	4.61181E-004	-7.47022E-003	5.03569E-004
	46	46	4.99006E-002	-1.15257E-002	0.00000E+000	-5.75141E-004	-1.13495E-001	3.89119E-002	3.35466E+001	11	...........	6.49239E-002	-3.87694E-003	5.59487E-001	6.55314E-001	-3.00831E-002	-3.93646E-002	6.37897E-001	-4.29853E-002	-7.48295E-004	4.46846E-005	-6.44849E-003	-7.55297E-003	3.46729E-004	4.53705E-004	-7.35223E-003	4.95436E-004
	47	47	4.99013E-002	-1.13516E-002	0.00000E+000	-5.66461E-004	-1.11763E-001	3.89237E-002	3.35672E+001	11	...........	6.49347E-002	-3.77000E-003	5.59550E-001	6.55508E-001	-3.00793E-002	-3.93540E-002	6.37799E-001	-4.29843E-002	-7.37115E-004	4.27957E-005	-6.35181E-003	-7.44108E-003	3.41449E-004	4.46733E-004	-7.24006E-003	4.87942E-004
	48	48	4.99011E-002	-1.11773E-002	0.00000E+000	-5.57758E-004	-1.10023E-001	3.89358E-002	3.35863E+001	11	...........	6.49624E-002	-3.77250E-003	5.59479E-001	6.55593E-001	-3.01069E-002	-3.93517E-002	6.37762E-001	-4.30778E-002	-7.26102E-004	4.21663E-005	-6.25345E-003	-7.32774E-003	3.36514E-004	4.39844E-004	-7.12844E-003	4.81492E-004
	49	49	4.99010E-002	-1.10008E-002	0.00000E+000	-5.48948E-004	-1.08265E-001	3.89550E-002	3.36124E+001	11	...........	6.49769E-002	-3.65944E-003	5.59559E-001	6.55615E-001	-3.01111E-002	-3.93486E-002	6.37687E-001	-4.30633E-002	-7.14795E-004	4.02567E-005	-6.15557E-003	-7.21226E-003	3.31245E-004	4.32864E-004	-7.01504E-003	4.73729E-004
	50	50	4.99014E-002	-1.08412E-002	0.00000E+000	-5.40992E-004	-1.06677E-001	3.89581E-002	3.36071E+001	11	...........	6.49968E-002	-3.50472E-003	5.59546E-001	6.55609E-001	-3.01135E-002	-3.93279E-002	6.37634E-001	-4.30208E-002	-7.04644E-004	3.79954E-005	-6.06616E-003	-7.10760E-003	3.26466E-004	4.26362E-004	-6.91273E-003	4.66398E-004
	51	51	4.99015E-002	-1.06908E-002	0.00000E+000	-5.33487E-004	-1.05179E-001	3.89735E-002	3.36395E+001	11	...........	6.50268E-002	-3.55750E-003	5.59362E-001	6.55546E-001	-3.01107E-002	-3.93182E-002	6.37775E-001	-4.29771E-002	-6.95189E-004	3.80326E-005	-5.98004E-003	-7.00832E-003	3.21908E-004	4.20343E-004	-6.81834E-003	4.59460E-004
	52	52	4.99010E-002	-1.05476E-002	0.00000E+000	-5.26335E-004	-1.03755E-001	3.89993E-002	3.36882E+001	11	...........	6.50553E-002	-3.58514E-003	5.59213E-001	6.55521E-001	-3.00956E-002	-3.93444E-002	6.37851E-001	-4.30137E-002	-6.86176E-004	3.78145E-005	-5.89834E-003	-6.91416E-003	3.17435E-004	4.14989E-004	-6.72779E-003	4.53691E-004
	53	53	4.99014E-002	-1.03956E-002	0.00000E+000	-5.18756E-004	-1.02273E-001	3.90212E-002	3.37189E+001	11	...........	6.50851E-002	-3.62250E-003	5.59054E-001	6.55609E-001	-3.01069E-002	-3.93453E-002	6.37830E-001	-4.29606E-002	-6.76600E-004	3.76581E-005	-5.81171E-003	-6.81546E-003	3.12980E-004	4.09018E-004	-6.63064E-003	4.46601E-004
	54	54	4.99016E-002	-1.02495E-002	0.00000E+000	-5.11466E-004	-1.00836E-001	3.90274E-002	3.37466E+001	11	...........	6.51105E-002	-3.77847E-003	5.59068E-001	6.55668E-001	-3.00932E-002	-3.93418E-002	6.37653E-001	-4.28818E-002	-6.67350E-004	3.87274E-005	-5.73016E-003	-6.72027E-003	3.08440E-004	4.03234E-004	-6.53562E-003	4.39517E-004
	55	55	4.99012E-002	-1.01102E-002	0.00000E+000	-5.04510E-004	-9.94473E-002	3.90409E-002	3.37513E+001	11	...........	6.51350E-002	-3.83389E-003	5.58901E-001	6.55667E-001	-3.00612E-002	-3.93408E-002	6.37687E-001	-4.29354E-002	-6.58527E-004	3.87613E-005	-5.65059E-003	-6.62891E-003	3.03925E-004	3.97743E-004	-6.44713E-003	4.34085E-004
	56	56	4.99014E-002	-9.95809E-003	0.00000E+000	-4.96922E-004	-9.79313E-002	3.90516E-002	3.37531E+001	11	...........	6.51574E-002	-3.76042E-003	5.58871E-001	6.56016E-001	-3.00597E-002	-3.93239E-002	6.37667E-001	-4.29771E-002	-6.48843E-004	3.74466E-005	-5.56529E-003	-6.53266E-003	2.99337E-004	3.91591E-004	-6.34994E-003	4.27970E-004
	57	57	4.99016E-002	-9.81003E-003	0.00000E+000	-4.89536E-004	-9.64567E-002	3.90619E-002	3.37757E+001	11	...........	6.51835E-002	-3.73778E-003	5.59019E-001	6.56210E-001	-3.00636E-002	-3.93332E-002	6.37582E-001	-4.29932E-002	-6.39452E-004	3.66677E-005	-5.48399E-003	-6.43744E-003	2.94925E-004	3.85860E-004	-6.25470E-003	4.21764E-004
	58	58	4.99012E-002	-9.67032E-003	0.00000E+000	-4.82560E-004	-9.50647E-002	3.90751E-002	3.38079E+001	11	...........	6.51978E-002	-3.75681E-003	5.58833E-001	6.56327E-001	-3.00751E-002	-3.93439E-002	6.37722E-001	-4.29717E-002	-6.30483E-004	3.63295E-005	-5.40409E-003	-6.34690E-003	2.90836E-004	3.80468E-004	-6.16698E-003	4.15550E-004
	59	59	4.99017E-002	-9.53940E-003	0.00000E+000	-4.76033E-004	-9.37640E-002	3.90879E-002	3.38147E+001	11	...........	6.52175E-002	-3.77278E-003	5.58837E-001	6.56331E-001	-3.00443E-002	-3.93315E-002	6.37803E-001	-4.29993E-002	-6.22136E-004	3.59900E-005	-5.33097E-003	-6.26101E-003	2.86605E-004	3.75199E-004	-6.08426E-003	4.10188E-004
	60	60	4.99017E-002	-9.41379E-003	0.00000E+000	-4.69764E-004	-9.25053E-002	3.91015E-002	3.38258E+001	11	...........	6.52244E-002	-3.74417E-003	5.58820E-001	6.56407E-001	-3.00568E-002	-3.93265E-002	6.37807E-001	-4.29562E-002	-6.14009E-004	3.52468E-005	-5.26061E-003	-6.17927E-003	2.82948E-004	3.70212E-004	-6.00418E-003	4.04381E-004
	61	61	4.99016E-002	-9.28694E-003	0.00000E+000	-4.63433E-004	-9.12393E-002	3.91070E-002	3.38308E+001	11	...........	6.52617E-002	-3.73194E-003	5.58883E-001	6.56291E-001	-3.00518E-002	-3.93257E-002	6.37879E-001	-4.30424E-002	-6.06081E-004	3.46584E-005	-5.19032E-003	-6.09494E-003	2.79089E-004	3.65216E-004	-5.92395E-003	3.99732E-004
	62	62	4.99016E-002	-9.16139E-003	0.00000E+000	-4.57168E-004	-8.99787E-002	3.91198E-002	3.38497E+001	11	...........	6.52726E-002	-3.78819E-003	5.58997E-001	6.56184E-001	-3.00636E-002	-3.93224E-002	6.37831E-001	-4.30046E-002	-5.97988E-004	3.47051E-005	-5.12119E-003	-6.01156E-003	2.75424E-004	3.60247E-004	-5.84341E-003	3.93982E-004
	63	63	4.99016E-002	-9.03655E-003	0.00000E+000	-4.50938E-004	-8.87607E-002	3.91348E-002	3.38575E+001	11	...........	6.52864E-002	-3.71139E-003	5.58971E-001	6.56220E-001	-3.00706E-002	-3.93092E-002	6.37859E-001	-4.30518E-002	-5.89964E-004	3.35381E-005	-5.05117E-003	-5.92997E-003	2.71734E-004	3.55219E-004	-5.76404E-003	3.89040E-004
	64	64	4.99016E-002	-8.91142E-003	0.00000E+000	-4.44694E-004	-8.75253E-002	3.91445E-002	3.38603E+001	11	...........	6.53136E-002	-3.70694E-003	5.59062E-001	6.56177E-001	-3.00664E-002	-3.92979E-002	6.37797E-001	-4.30117E-002	-5.82037E-004	3.30341E-005	-4.98204E-003	-5.84747E-003	2.67934E-004	3.50200E-004	-5.68367E-003	3.83295E-004
	65	65	4.99019E-002	-8.79996E-003	0.00000E+000	-4.39135E-004	-8.64133E-002	3.91523E-002	3.38575E+001	11	...........	6.53210E-002	-3.78347E-003	5.59177E-001	6.56083E-001	-3.00793E-002	-3.93183E-002	6.37785E-001	-4.29712E-002	-5.74822E-004	3.32944E-005	-4.92074E-003	-5.77351E-003	2.64697E-004	3.46000E-004	-5.61249E-003	3.78145E-004
	66	66	4.99018E-002	-8.68102E-003	0.00000E+000	-4.33199E-004	-8.52293E-002	3.91570E-002	3.38828E+001	11	...........	6.53340E-002	-3.84167E-003	5.59207E-001	6.56057E-001	-3.00912E-002	-3.93103E-002	6.37648E-001	-4.30761E-002	-5.67166E-004	3.33496E-005	-4.85449E-003	-5.69525E-003	2.61223E-004	3.41253E-004	-5.53544E-003	3.73945E-004
	67	67	4.99016E-002	-8.56619E-003	0.00000E+000	-4.27466E-004	-8.40847E-002	3.93535E-002	3.37746E+001	11	...........	6.56571E-002	-3.71403E-003	5.59199E-001	6.56170E-001	-3.00686E-002	-3.93131E-002	6.37601E-001	-4.30858E-002	-5.62431E-004	3.18151E-005	-4.79020E-003	-5.62087E-003	2.57573E-004	3.36763E-004	-5.46181E-003	3.69081E-004
	68	68	4.99014E-002	-8.43659E-003	0.00000E+000	-4.20998E-004	-8.27980E-002	3.91125E-002	3.37557E+001	11	...........	6.52561E-002	-3.60681E-003	5.59215E-001	6.56333E-001	-3.00733E-002	-3.93053E-002	6.37482E-001	-4.31186E-002	-5.50539E-004	3.04291E-005	-4.71787E-003	-5.53721E-003	2.53716E-004	3.31603E-004	-5.37818E-003	3.63774E-004
	69	69	4.99026E-002	-8.32594E-003	0.00000E+000	-4.15486E-004	-8.16960E-002	3.91853E-002	3.31248E+001	11	...........	6.53850E-002	-3.67014E-003	5.59117E-001	6.56363E-001	-3.00893E-002	-3.92940E-002	6.37697E-001	-4.31910E-002	-5.44391E-004	3.05573E-005	-4.65517E-003	-5.46484E-003	2.50522E-004	3.27160E-004	-5.30943E-003	3.59605E-004
	70	70	4.99019E-002	-8.14240E-003	0.00000E+000	-4.06322E-004	-7.98673E-002	3.90949E-002	3.35712E+001	11	...........	6.52292E-002	-3.61500E-003	5.59062E-001	6.56384E-001	-3.00871E-002	-3.93083E-002	6.37621E-001	-4.30792E-002	-5.31122E-004	2.94348E-005	-4.55211E-003	-5.34454E-003	2.44981E-004	3.20064E-004	-5.19177E-003	3.50768E-004
	71	71	4.99031E-002	-8.25102E-003	0.00000E+000	-4.11752E-004	-8.09460E-002	3.92355E-002	3.38904E+001	11	...........	6.54649E-002	-3.75333E-003	5.59165E-001	6.56247E-001	-3.00736E-002	-3.93156E-002	6.37742E-001	-4.30272E-002	-5.40152E-004	3.09688E-005	-4.61368E-003	-5.41471E-003	2.48138E-004	3.24393E-004	-5.26202E-003	3.55018E-004
	72	72	4.99020E-002	-8.17688E-003	0.00000E+000	-4.08043E-004	-8.02093E-002	3.91872E-002	3.39699E+001	11	...........	6.53747E-002	-3.85389E-003	5.59227E-001	6.56192E-001	-3.01126E-002	-3.93083E-002	6.37810E-001	-4.30793E-002	-5.34561E-004	3.15128E-005	-4.57274E-003	-5.36561E-003	2.46228E-004	3.21420E-004	-5.21530E-003	3.52254E-004
	73	73	4.99021E-002	-8.07525E-003	0.00000E+000	-4.02972E-004	-7.92000E-002	3.91946E-002	3.39772E+001	11	...........	6.53832E-002	-3.67833E-003	5.59076E-001	6.56245E-001	-3.01071E-002	-3.93369E-002	6.37770E-001	-4.30303E-002	-5.27985E-004	2.97034E-005	-4.51467E-003	-5.29934E-003	2.43122E-004	3.17655E-004	-5.15015E-003	3.47480E-004
	74	74	4.99020E-002	-7.99502E-003	0.00000E+000	-3.98968E-004	-7.84033E-002	3.92169E-002	3.39942E+001	11	...........	6.54276E-002	-3.77514E-003	5.58925E-001	6.56350E-001	-3.01011E-002	-3.93365E-002	6.37793E-001	-4.31417E-002	-5.23096E-004	3.01823E-005	-4.46862E-003	-5.24754E-003	2.40659E-004	3.14496E-004	-5.09917E-003	3.44919E-004
	75	75	4.99019E-002	-7.88863E-003	0.00000E+000	-3.93657E-004	-7.73447E-002	3.92257E-002	3.40087E+001	11	...........	6.54368E-002	-3.86000E-003	5.58974E-001	6.56454E-001	-3.01056E-002	-3.93296E-002	6.37716E-001	-4.30768E-002	-5.16207E-004	3.04501E-005	-4.40954E-003	-5.17853E-003	2.37492E-004	3.10256E-004	-5.03071E-003	3.39817E-004
	76	76	4.99016E-002	-7.77609E-003	0.00000E+000	-3.88039E-004	-7.62480E-002	3.92307E-002	3.40233E+001	11	...........	6.54610E-002	-3.83472E-003	5.59073E-001	6.56452E-001	-3.01136E-002	-3.93203E-002	6.37760E-001	-4.30168E-002	-5.09031E-004	2.98192E-005	-4.34740E-003	-5.10463E-003	2.34166E-004	3.05758E-004	-4.95928E-003	3.34503E-004
	77	77	4.99020E-002	-7.67013E-003	0.00000E+000	-3.82755E-004	-7.51853E-002	3.92262E-002	3.40127E+001	11	...........	6.54431E-002	-3.88958E-003	5.59309E-001	6.56254E-001	-3.00904E-002	-3.93421E-002	6.37786E-001	-4.30910E-002	-5.01957E-004	2.98336E-005	-4.28997E-003	-5.03355E-003	2.30797E-004	3.01759E-004	-4.89190E-003	3.30513E-004
	78	78	4.99021E-002	-7.58866E-003	0.00000E+000	-3.78690E-004	-7.43727E-002	3.92442E-002	3.40315E+001	11	...........	6.54821E-002	-3.88292E-003	5.59351E-001	6.56306E-001	-3.00760E-002	-3.93603E-002	6.37826E-001	-4.31636E-002	-4.96921E-004	2.94661E-005	-4.24472E-003	-4.98048E-003	2.28236E-004	2.98692E-004	-4.84024E-003	3.27554E-004
	79	79	4.99018E-002	-7.48572E-003	0.00000E+000	-3.73551E-004	-7.33447E-002	3.92567E-002	3.40512E+001	11	...........	6.54876E-002	-3.80500E-003	5.59316E-001	6.56372E-001	-3.00782E-002	-3.93475E-002	6.37871E-001	-4.30642E-002	-4.90222E-004	2.84832E-005	-4.18689E-003	-4.91342E-003	2.25157E-004	2.94545E-004	-4.77492E-003	3.22366E-004
	80	80	4.99018E-002	-7.37999E-003	0.00000E+000	-3.68275E-004	-7.22920E-002	3.92623E-002	3.40602E+001	11	...........	6.55028E-002	-3.86375E-003	5.59520E-001	6.56373E-001	-3.00815E-002	-3.93190E-002	6.37937E-001	-4.32132E-002	-4.83410E-004	2.85145E-005	-4.12926E-003	-4.84403E-003	2.22001E-004	2.90174E-004	-4.70797E-003	3.18913E-004
	81	81	4.99022E-002	-7.28412E-003	0.00000E+000	-3.63494E-004	-7.13340E-002	3.92724E-002	3.40777E+001	11	...........	6.55162E-002	-3.88625E-003	5.59596E-001	6.56594E-001	-3.00872E-002	-3.92957E-002	6.37821E-001	-4.33285E-002	-4.77228E-004	2.83079E-005	-4.07617E-003	-4.78271E-003	2.19159E-004	2.86235E-004	-4.64597E-003	3.15610E-004
	82	82	4.99019E-002	-7.19406E-003	0.00000E+000	-3.58997E-004	-7.04353E-002	3.92764E-002	3.40957E+001	11	...........	6.55203E-002	-3.92833E-003	5.59654E-001	6.56709E-001	-3.01071E-002	-3.93072E-002	6.37815E-001	-4.33524E-002	-4.71357E-004	2.82607E-005	-4.02619E-003	-4.72440E-003	2.16592E-004	2.82778E-004	-4.58848E-003	3.11879E-004
	83	83	4.99020E-002	-7.10517E-003	0.00000E+000	-3.54562E-004	-6.95520E-002	3.92841E-002	3.41094E+001	11	...........	6.55458E-002	-3.81292E-003	5.59537E-001	6.56724E-001	-3.01050E-002	-3.93079E-002	6.37777E-001	-4.32297E-002	-4.65714E-004	2.70914E-005	-3.97561E-003	-4.66613E-003	2.13901E-004	2.79289E-004	-4.53151E-003	3.07154E-004
	84	84	4.99022E-002	-7.01691E-003	0.00000E+000	-3.50159E-004	-6.86807E-002	3.92877E-002	3.40996E+001	11	...........	6.55529E-002	-3.76111E-003	5.59607E-001	6.56793E-001	-3.01175E-002	-3.93164E-002	6.37747E-001	-4.32171E-002	-4.59979E-004	2.63914E-005	-3.92671E-003	-4.60865E-003	2.11332E-004	2.75880E-004	-4.47501E-003	3.03250E-004
	85	85	4.99020E-002	-6.93255E-003	0.00000E+000	-3.45948E-004	-6.78360E-002	3.93042E-002	3.40797E+001	11	...........	6.55718E-002	-3.79931E-003	5.59716E-001	6.56703E-001	-3.01297E-002	-3.93175E-002	6.37742E-001	-4.32289E-002	-4.54580E-004	2.63389E-005	-3.88026E-003	-4.55262E-003	2.08876E-004	2.72570E-004	-4.42118E-003	2.99686E-004
	86	86	4.99022E-002	-6.84586E-003	0.00000E+000	-3.41623E-004	-6.69693E-002	3.93072E-002	3.40979E+001	11	...........	6.55850E-002	-3.79472E-003	5.59616E-001	6.56698E-001	-3.01318E-002	-3.93076E-002	6.37711E-001	-4.31510E-002	-4.48986E-004	2.59782E-005	-3.83106E-003	-4.49567E-003	2.06278E-004	2.69095E-004	-4.36568E-003	2.95406E-004
	87	87	4.99022E-002	-6.76120E-003	0.00000E+000	-3.37399E-004	-6.61227E-002	3.93174E-002	3.41098E+001	11	...........	6.55996E-002	-3.82917E-003	5.59691E-001	6.56725E-001	-3.01222E-002	-3.93147E-002	6.37725E-001	-4.31368E-002	-4.43532E-004	2.58898E-005	-3.78418E-003	-4.44025E-003	2.03662E-004	2.65815E-004	-4.31179E-003	2.91657E-004
	88	88	4.99021E-002	-6.68169E-003	0.00000E+000	-3.33430E-004	-6.53320E-002	3.93337E-002	3.41318E+001	11	...........	6.56075E-002	-3.76222E-003	5.59710E-001	6.56660E-001	-3.01269E-002	-3.93189E-002	6.37873E-001	-4.31564E-002	-4.38369E-004	2.51380E-005	-3.73981E-003	-4.38759E-003	2.01299E-004	2.62716E-004	-4.26207E-003	2.88357E-004
	89	89	4.99022E-002	-6.60210E-003	0.00000E+000	-3.29459E-004	-6.45320E-002	3.93406E-002	3.41473E+001	11	...........	6.56199E-002	-3.68694E-003	5.59692E-001	6.56691E-001	-3.01225E-002	-3.92974E-002	6.37886E-001	-4.31131E-002	-4.33229E-004	2.43416E-005	-3.69514E-003	-4.33554E-003	1.98872E-004	2.59445E-004	-4.21139E-003	2.84637E-004
	90	90	4.99023E-002	-6.51796E-003	0.00000E+000	-3.25261E-004	-6.36987E-002	3.93421E-002	3.41493E+001	11	...........	6.56379E-002	-3.60097E-003	5.59548E-001	6.56771E-001	-3.01247E-002	-3.93007E-002	6.37796E-001	-4.31476E-002	-4.27825E-004	2.34710E-005	-3.64711E-003	-4.28081E-003	1.96352E-004	2.56160E-004	-4.15713E-003	2.81234E-004
	91	91	4.99021E-002	-6.44369E-003	0.00000E+000	-3.21554E-004	-6.29807E-002	3.93550E-002	3.41466E+001	11	...........	6.56468E-002	-3.60833E-003	5.59625E-001	6.56811E-001	-3.01504E-002	-3.93106E-002	6.37827E-001	-4.31533E-002	-4.23008E-004	2.32510E-005	-3.60605E-003	-4.23229E-003	1.94280E-004	2.53305E-004	-4.10996E-003	2.78067E-004
	92	92	4.99021E-002	-6.36339E-003	0.00000E+000	-3.17546E-004	-6.21827E-002	3.93512E-002	3.41627E+001	11	...........	6.56743E-002	-3.63583E-003	5.59544E-001	6.56976E-001	-3.01343E-002	-3.93075E-002	6.37914E-001	-4.31061E-002	-4.17911E-004	2.31362E-005	-3.56059E-003	-4.18059E-003	1.91756E-004	2.50129E-004	-4.05930E-003	2.74301E-004
	93	93	4.99024E-002	-6.29208E-003	0.00000E+000	-3.13990E-004	-6.14727E-002	3.93579E-002	3.41686E+001	11	...........	6.56683E-002	-3.59069E-003	5.59427E-001	6.57178E-001	-3.01544E-002	-3.92850E-002	6.37850E-001	-4.31192E-002	-4.13190E-004	2.25929E-005	-3.51996E-003	-4.13502E-003	1.89734E-004	2.47184E-004	-4.01340E-003	2.71309E-004
	94	94	4.99021E-002	-6.22511E-003	0.00000E+000	-3.10646E-004	-6.08067E-002	3.93734E-002	3.41764E+001	11	...........	6.56906E-002	-3.80389E-003	5.59362E-001	6.57343E-001	-3.01960E-002	-3.92643E-002	6.37851E-001	-4.32053E-002	-4.08931E-004	2.36796E-005	-3.48209E-003	-4.09203E-003	1.87973E-004	2.44425E-004	-3.97069E-003	2.68958E-004
	95	95	4.99022E-002	-6.15381E-003	0.00000E+000	-3.07089E-004	-6.00960E-002	3.93782E-002	3.41683E+001	11	...........	6.57049E-002	-3.82611E-003	5.59418E-001	6.57330E-001	-3.01756E-002	-3.92431E-002	6.37892E-001	-4.31607E-002	-4.04335E-004	2.35451E-005	-3.44255E-003	-4.04508E-003	1.85694E-004	2.41494E-004	-3.92546E-003	2.65602E-004
	96	96	4.99025E-002	-6.07721E-003	0.00000E+000	-3.03268E-004	-5.93367E-002	3.93864E-002	3.41644E+001	11	...........	6.57185E-002	-3.67056E-003	5.59403E-001	6.57314E-001	-3.01736E-002	-3.92450E-002	6.37860E-001	-4.30278E-002	-3.99385E-004	2.23067E-005	-3.39961E-003	-3.99463E-003	1.83371E-004	2.38500E-004	-3.87641E-003	2.61489E-004
	97	97	4.99023E-002	-6.01080E-003	0.00000E+000	-2.99953E-004	-5.86733E-002	3.93885E-002	3.41583E+001	11	...........	6.57387E-002	-3.68042E-003	5.59301E-001	6.57391E-001	-3.01839E-002	-3.92565E-002	6.37714E-001	-4.30299E-002	-3.95143E-004	2.21223E-005	-3.36185E-003	-3.95145E-003	1.81429E-004	2.35963E-004	-3.83318E-003	2.58644E-004
	98	98	4.99022E-002	-5.94729E-003	0.00000E+000	-2.96783E-004	-5.80413E-002	3.94094E-002	3.41620E+001	11	...........	6.57486E-002	-3.79125E-003	5.59304E-001	6.57198E-001	-3.01618E-002	-3.93028E-002	6.37729E-001	-4.31254E-002	-3.91026E-004	2.25477E-005	-3.32634E-003	-3.90855E-003	1.79381E-004	2.33745E-004	-3.79276E-003	2.56479E-004
	99	99	4.99025E-002	-5.87918E-003	0.00000E+000	-2.93386E-004	-5.73567E-002	3.94209E-002	3.41737E+001	11	...........	6.57632E-002	-3.79819E-003	5.59106E-001	6.57194E-001	-3.01692E-002	-3.93072E-002	6.37694E-001	-4.30389E-002	-3.86634E-004	2.23303E-005	-3.28709E-003	-3.86376E-003	1.77370E-004	2.31094E-004	-3.74912E-003	2.53033E-004
	100	100	4.99022E-002	-5.81886E-003	0.00000E+000	-2.90373E-004	-5.67607E-002	3.94223E-002	3.41802E+001	11	...........	6.57686E-002	-3.62972E-003	5.59226E-001	6.57066E-001	-3.01715E-002	-3.93203E-002	6.37641E-001	-4.30649E-002	-3.82698E-004	2.11208E-005	-3.25406E-003	-3.82337E-003	1.75564E-004	2.28799E-004	-3.71034E-003	2.50588E-004
	101	101	4.99023E-002	-5.74655E-003	0.00000E+000	-2.86766E-004	-5.60427E-002	3.94667E-002	3.41700E+001	11	...........	6.58381E-002	-3.56917E-003	5.59167E-001	6.57126E-001	-3.01525E-002	-3.92960E-002	6.37759E-001	-4.30393E-002	-3.78342E-004	2.05104E-005	-3.21328E-003	-3.77621E-003	1.73273E-004	2.25816E-004	-3.66491E-003	2.47327E-004
	102	102	4.99023E-002	-5.68421E-003	0.00000E+000	-2.83655E-004	-5.54220E-002	3.95123E-002	3.39511E+001	11	...........	6.59332E-002	-3.70264E-003	5.59012E-001	6.57051E-001	-3.01347E-002	-3.93293E-002	6.37693E-001	-4.29664E-002	-3.74778E-004	2.10466E-005	-3.17754E-003	-3.73482E-003	1.71292E-004	2.23556E-004	-3.62478E-003	2.44230E-004
	103	103	4.99024E-002	-5.60893E-003	0.00000E+000	-2.79899E-004	-5.46713E-002	3.94363E-002	3.40834E+001	11	...........	6.58067E-002	-3.56569E-003	5.59096E-001	6.56917E-001	-3.01568E-002	-3.93339E-002	6.37671E-001	-4.30001E-002	-3.69105E-004	1.99997E-005	-3.13593E-003	-3.68460E-003	1.69148E-004	2.20621E-004	-3.57665E-003	2.41185E-004
	104	104	4.99028E-002	-5.57117E-003	0.00000E+000	-2.78017E-004	-5.42953E-002	3.94430E-002	3.40574E+001	11	...........	6.58011E-002	-3.68611E-003	5.59002E-001	6.56752E-001	-3.01343E-002	-3.93578E-002	6.37823E-001	-4.31571E-002	-3.66589E-004	2.05360E-005	-3.11430E-003	-3.65888E-003	1.67883E-004	2.19269E-004	-3.55342E-003	2.40435E-004
	105	105	4.99025E-002	-5.52948E-003	0.00000E+000	-2.75935E-004	-5.38787E-002	3.94522E-002	3.40893E+001	11	...........	6.58350E-002	-3.66194E-003	5.58978E-001	6.56787E-001	-3.01450E-002	-3.93304E-002	6.37778E-001	-4.31286E-002	-3.64033E-004	2.02487E-005	-3.09086E-003	-3.63169E-003	1.66686E-004	2.17477E-004	-3.52658E-003	2.38479E-004
	106	106	4.99019E-002	-5.45394E-003	0.00000E+000	-2.72162E-004	-5.31267E-002	3.94872E-002	3.41060E+001	11	...........	6.58750E-002	-3.70139E-003	5.59161E-001	6.56940E-001	-3.01368E-002	-3.93253E-002	6.37868E-001	-4.30872E-002	-3.59278E-004	2.01871E-005	-3.04963E-003	-3.58291E-003	1.64364E-004	2.14478E-004	-3.47889E-003	2.34995E-004
	107	107	4.99026E-002	-5.40133E-003	0.00000E+000	-2.69541E-004	-5.26033E-002	3.94812E-002	3.41188E+001	11	...........	6.58861E-002	-3.70569E-003	5.59249E-001	6.57113E-001	-3.01528E-002	-3.92937E-002	6.37886E-001	-4.29410E-002	-3.55873E-004	2.00157E-005	-3.02069E-003	-3.54929E-003	1.62865E-004	2.12239E-004	-3.44544E-003	2.31938E-004
	108	108	4.99025E-002	-5.33781E-003	0.00000E+000	-2.66370E-004	-5.19700E-002	3.94877E-002	3.41518E+001	11	...........	6.58850E-002	-3.66750E-003	5.59312E-001	6.57220E-001	-3.01643E-002	-3.92936E-002	6.37869E-001	-4.30171E-002	-3.51682E-004	1.95764E-005	-2.98550E-003	-3.50812E-003	1.61011E-004	2.09742E-004	-3.40482E-003	2.29617E-004
	109	109	4.99025E-002	-5.28075E-003	0.00000E+000	-2.63522E-004	-5.14053E-002	3.94933E-002	3.41593E+001	11	...........	6.58879E-002	-3.67694E-003	5.59403E-001	6.57189E-001	-3.01911E-002	-3.92847E-002	6.37929E-001	-4.31111E-002	-3.47937E-004	1.94170E-005	-2.95407E-003	-3.47045E-003	1.59432E-004	2.07453E-004	-3.36874E-003	2.27659E-004
	110	110	4.99023E-002	-5.22307E-003	0.00000E+000	-2.60643E-004	-5.08467E-002	3.94986E-002	3.41613E+001	11	...........	6.59012E-002	-3.68833E-003	5.59479E-001	6.57158E-001	-3.02246E-002	-3.92854E-002	6.37851E-001	-4.31274E-002	-3.44207E-004	1.92644E-005	-2.92220E-003	-3.43238E-003	1.57865E-004	2.05190E-004	-3.33154E-003	2.25257E-004
	111	111	4.99024E-002	-5.14457E-003	0.00000E+000	-2.56726E-004	-5.00687E-002	3.95037E-002	3.38320E+001	11	...........	6.59175E-002	-3.71431E-003	5.59587E-001	6.57106E-001	-3.02315E-002	-3.92924E-002	6.37832E-001	-4.31942E-002	-3.39117E-004	1.91085E-005	-2.87883E-003	-3.38053E-003	1.55528E-004	2.02142E-004	-3.28137E-003	2.22215E-004
	112	111.605	4.99011E-002	-5.09324E-003	0.00000E+000	-2.54158E-004	-4.95554E-002	3.94931E-002	3.34479E+001	11	...........	6.59006E-002	-3.60308E-003	5.59439E-001	6.57139E-001	-3.02443E-002	-3.93255E-002	6.37784E-001	-4.31492E-002	-3.35648E-004	1.83513E-005	-2.84936E-003	-3.34697E-003	1.54041E-004	2.00294E-004	-3.24839E-003	2.19769E-004
STARTTIMEOFFSET	QUANT	513151.9	Start Time Offset (s)
