EXPLAIN
TAG	PWR800_DISCHARGE
TITLE	LABEL	PWR Discharge	Test Identifier
DATE	LABEL	10/14/2022	Date
TIME	LABEL	9:32:18	Time
NOTES	NOTES	1	Notes...
	
PSTAT	PSTAT	REF3000-21114	Potentiostat
CAPACITY	QUANT	5.30000E-002	Capacity (A-hr)
CELLTYPE	SELECTOR	1	Cell Type
WORKINGCONNECTION	SELECTOR	0	Working Connection
MAXDISCHARGETIME	VARIABLEANDUNITS	7.20000E+003	s	2.00000E+000	hour(s)	Max Discharge Time
DISCHARGEMODE	MULTIPARAM	0	1.00000E-001	Discharge Mode	Constant Current	Amp(s)
VOLTAGEFINISH	TWOPARAM	T	5.00000E-003	7.20000E+003	Voltage Finish	I (A) <	Max Time(s)
SAMPLETIME	QUANT	1.00000E+000	Sample Period (s)
DISCHARGESTOPAT1	MULTIPARAM	1	5.00000E-002	Stop At 1	|Voltage| < Limit	V
DISCHARGESTOPAT2	MULTIPARAM	0	0.00000E+000	Stop At 2	None	N/A
AESELECTOR	AESELECTOR	0x1	T	Set Limits	AE Channels
AESBHCSELECTOR	TOGGLE	F	Save Both Half Cells
IRCOMP	TOGGLE	F	IR Measure
EOC	QUANT	0.5719779	Open Circuit (V)
SEQUENCER	TOGGLE	TRUE	Run as Sequence
PSTATMODEL	IQUANT	5	Pstat Model
PSTATSECTION	LABEL	REF3000-21114	Pstat Section
PSTATSERIALNO	LABEL	21114	Pstat Serial Number
CTRLMODE	IQUANT	0	Control Mode
ELECTROMETER	IQUANT	0	RE=0 or CS=1
IESTAB	IQUANT	0	I/E Stability
CASPEED	IQUANT	4	Control Amp Speed
CONVENTION	IQUANT	1	Current Convention
ICHRANGE	IQUANT	2	Ich Range
ICHRANGEMODE	TOGGLE	T	Ich Auto Range
ICHOFFSETENABLE	TOGGLE	F	Ich Offset Enable
ICHOFFSET	QUANT	0	Ich Offset (V)
ICHFILTER	IQUANT	1	Ich Filter
VCHRANGE	IQUANT	3	Vch Range
VCHRANGEMODE	TOGGLE	T	Vch Auto Range
VCHOFFSETENABLE	TOGGLE	F	Vch Offset Enable
VCHOFFSET	QUANT	0	Vch Offset (V)
VCHFILTER	IQUANT	1	Vch Filter
ACHRANGE	IQUANT	2	Ach Range
ACHOFFSETENABLE	TOGGLE	F	Ach Offset Enable
ACHOFFSET	QUANT	0	Ach Offset (V)
ACHFILTER	IQUANT	1	Ach Filter
IERANGELOWERLIMIT	IQUANT	9	I/E Range Lower Limit
IERANGEMODE	TOGGLE	F	I/E AutoRange
IERANGE	IQUANT	9	I/E Range
POSFEEDENABLE	TOGGLE	F	Positive Feedback IR Comp
POSFEEDRESISTANCE	QUANT	0	Positive Feedback Resistance (ohm)
ACHSELECT	IQUANT	1	Ach Select
SENSECABLEID	IQUANT	13	Sense Cable ID
PWRCABLEID	IQUANT	13	Power Cable ID
DCCALDATE	LABEL		DC Calibration Date
ACCALDATE	LABEL		AC Calibration Date
THERMOSELECT	IQUANT	1	Thermo Select
FRAMEWORKVERSION	LABEL	7.8.6	Framework Version
INSTRUMENTVERSION	LABEL	4.50	Instrument Version
COMPLIANCEVOLTAGE	IQUANT	0	Compliance Voltage
CURVE	TABLE	250
	Pt	T	Vf	Im	Vu	Pwr	Sig	Ach	Temp	IERange	Over	Vf1	Vf2	Vf3	Vf4	Vf5	Vf6	Vf7	Vf8	Pwr1	Pwr2	Pwr3	Pwr4	Pwr5	Pwr6	Pwr7	Pwr8
	#	s	V	A	V	W	V	V	deg C	#	bits	V	V	V	V	V	V	V	V	W	W	W	W	W	W	W	W
	0	1	3.45037E-001	-1.00079E-001	0.00000E+000	-3.45310E-002	-9.94000E-001	3.68571E-002	3.03645E+001	11	...........	6.12536E-002	-5.21361E-003	6.08129E-001	5.42315E-001	-2.59158E-002	-3.68678E-002	7.06363E-001	-4.37679E-002	-6.13021E-003	5.21774E-004	-6.08610E-002	-5.42744E-002	2.59363E-003	3.68969E-003	-7.06922E-002	4.38026E-003
	1	2	2.59172E-001	-1.00079E-001	0.00000E+000	-2.59378E-002	-9.94000E-001	3.70258E-002	3.03743E+001	11	...........	6.15486E-002	-5.22444E-003	6.08104E-001	5.42277E-001	-2.59104E-002	-3.68686E-002	7.06421E-001	-4.36767E-002	-6.15975E-003	5.22859E-004	-6.08586E-002	-5.42707E-002	2.59310E-003	3.68979E-003	-7.06982E-002	4.37113E-003
	2	3	1.96844E-001	-1.00080E-001	0.00000E+000	-1.97002E-002	-9.94000E-001	3.69739E-002	2.94638E+001	11	...........	6.14447E-002	-5.18250E-003	6.08168E-001	5.42448E-001	-2.59131E-002	-3.68864E-002	7.06417E-001	-4.36476E-002	-6.14940E-003	5.18666E-004	-6.08656E-002	-5.42883E-002	2.59339E-003	3.69160E-003	-7.06984E-002	4.36827E-003
	3	4	1.46672E-001	-1.00080E-001	0.00000E+000	-1.46790E-002	-9.94000E-001	3.68545E-002	2.87429E+001	11	...........	6.12693E-002	-5.18417E-003	6.08255E-001	5.42374E-001	-2.59242E-002	-3.69079E-002	7.06652E-001	-4.35228E-002	-6.13185E-003	5.18833E-004	-6.08743E-002	-5.42809E-002	2.59450E-003	3.69375E-003	-7.07219E-002	4.35577E-003
	4	5	1.06978E-001	-1.00080E-001	0.00000E+000	-1.07064E-002	-9.94000E-001	3.69422E-002	2.85984E+001	11	...........	6.13896E-002	-5.13222E-003	6.08318E-001	5.42450E-001	-2.59074E-002	-3.68840E-002	7.06544E-001	-4.35662E-002	-6.14389E-003	5.13634E-004	-6.08806E-002	-5.42885E-002	2.59282E-003	3.69136E-003	-7.07112E-002	4.36012E-003
	5	6	7.50198E-002	-1.00081E-001	0.00000E+000	-7.50804E-003	-9.94000E-001	3.68426E-002	2.79638E+001	11	...........	6.12258E-002	-5.19111E-003	6.08380E-001	5.42451E-001	-2.59031E-002	-3.68962E-002	7.06606E-001	-4.35092E-002	-6.12753E-003	5.19530E-004	-6.08872E-002	-5.42889E-002	2.59240E-003	3.69260E-003	-7.07176E-002	4.35443E-003
	6	6.55667	5.52718E-002	-1.00081E-001	0.00000E+000	-5.53163E-003	-9.94000E-001	3.69469E-002	2.80362E+001	11	...........	6.13683E-002	-5.18139E-003	6.08582E-001	5.42588E-001	-2.59144E-002	-3.68962E-002	7.06614E-001	-4.34167E-002	-6.14177E-003	5.18556E-004	-6.09072E-002	-5.43025E-002	2.59353E-003	3.69259E-003	-7.07184E-002	4.34517E-003
	7	7	4.97876E-002	-9.59712E-002	0.00000E+000	-4.77818E-003	-9.53128E-001	3.70776E-002	2.83177E+001	11	...........	6.16523E-002	-5.17419E-003	6.08633E-001	5.42759E-001	-2.58888E-002	-3.69339E-002	7.06515E-001	-4.34336E-002	-5.91684E-003	4.96573E-004	-5.84112E-002	-5.20893E-002	2.48458E-003	3.54459E-003	-6.78051E-002	4.16837E-003
	8	8	4.98998E-002	-8.83692E-002	0.00000E+000	-4.40960E-003	-8.77549E-001	3.71551E-002	2.85458E+001	11	...........	6.17787E-002	-5.15167E-003	6.08635E-001	5.42706E-001	-2.59478E-002	-3.69160E-002	7.06483E-001	-4.34469E-002	-5.45934E-003	4.55249E-004	-5.37846E-002	-4.79585E-002	2.29298E-003	3.26223E-003	-6.24313E-002	3.83937E-003
	9	9	4.99340E-002	-8.15559E-002	0.00000E+000	-4.07241E-003	-8.09804E-001	3.72501E-002	2.90222E+001	11	...........	6.19181E-002	-5.18597E-003	6.08633E-001	5.42720E-001	-2.59536E-002	-3.69442E-002	7.06551E-001	-4.36264E-002	-5.04978E-003	4.22947E-004	-4.96376E-002	-4.42620E-002	2.11667E-003	3.01301E-003	-5.76234E-002	3.55799E-003
	10	10	4.99594E-002	-7.77567E-002	0.00000E+000	-3.88468E-003	-7.72029E-001	3.73513E-002	2.93997E+001	11	...........	6.21190E-002	-5.15986E-003	6.08783E-001	5.42895E-001	-2.59746E-002	-3.69569E-002	7.06604E-001	-4.37417E-002	-4.83017E-003	4.01214E-004	-4.73370E-002	-4.22138E-002	2.01970E-003	2.87365E-003	-5.49432E-002	3.40121E-003
	11	11	4.99530E-002	-7.48985E-002	0.00000E+000	-3.74141E-003	-7.43602E-001	3.74422E-002	2.95792E+001	11	...........	6.22775E-002	-5.21639E-003	6.08861E-001	5.42818E-001	-2.59662E-002	-3.69799E-002	7.06599E-001	-4.37574E-002	-4.66449E-003	3.90700E-004	-4.56028E-002	-4.06563E-002	1.94483E-003	2.76974E-003	-5.29232E-002	3.27736E-003
	12	12	4.99471E-002	-7.12166E-002	0.00000E+000	-3.55706E-003	-7.07007E-001	3.74270E-002	2.87029E+001	11	...........	6.22185E-002	-5.15472E-003	6.09093E-001	5.42825E-001	-2.59535E-002	-3.69542E-002	7.06605E-001	-4.36925E-002	-4.43099E-003	3.67102E-004	-4.33775E-002	-3.86581E-002	1.84832E-003	2.63175E-003	-5.03219E-002	3.11163E-003
	13	13	5.00111E-002	-6.96923E-002	0.00000E+000	-3.48539E-003	-6.91865E-001	3.76109E-002	2.97692E+001	11	...........	6.25092E-002	-5.15736E-003	6.09117E-001	5.42937E-001	-2.59544E-002	-3.69189E-002	7.06655E-001	-4.37082E-002	-4.35641E-003	3.59428E-004	-4.24507E-002	-3.78385E-002	1.80882E-003	2.57296E-003	-4.92484E-002	3.04612E-003
	14	14	4.99890E-002	-6.93526E-002	0.00000E+000	-3.46687E-003	-6.88490E-001	3.76030E-002	3.02200E+001	11	...........	6.24979E-002	-5.21917E-003	6.09130E-001	5.42891E-001	-2.59331E-002	-3.69133E-002	7.06590E-001	-4.37049E-002	-4.33440E-003	3.61963E-004	-4.22448E-002	-3.76509E-002	1.79853E-003	2.56004E-003	-4.90039E-002	3.03105E-003
	15	15	4.99736E-002	-6.79479E-002	0.00000E+000	-3.39560E-003	-6.74512E-001	3.77145E-002	3.00088E+001	11	...........	6.26960E-002	-5.22528E-003	6.09169E-001	5.42932E-001	-2.59257E-002	-3.69182E-002	7.06662E-001	-4.36547E-002	-4.26006E-003	3.55046E-004	-4.13917E-002	-3.68911E-002	1.76160E-003	2.50851E-003	-4.80162E-002	2.96625E-003
	16	16	4.99788E-002	-6.62893E-002	0.00000E+000	-3.31306E-003	-6.58017E-001	3.77523E-002	2.99220E+001	11	...........	6.27533E-002	-5.30125E-003	6.09152E-001	5.42738E-001	-2.59090E-002	-3.69154E-002	7.06625E-001	-4.37642E-002	-4.15987E-003	3.51416E-004	-4.03802E-002	-3.59777E-002	1.71749E-003	2.44710E-003	-4.68417E-002	2.90109E-003
	17	17	4.99940E-002	-6.54121E-002	0.00000E+000	-3.27021E-003	-6.49293E-001	3.78972E-002	3.00335E+001	11	...........	6.29937E-002	-5.28014E-003	6.09069E-001	5.42661E-001	-2.58919E-002	-3.69075E-002	7.06593E-001	-4.36962E-002	-4.12055E-003	3.45385E-004	-3.98405E-002	-3.54966E-002	1.69365E-003	2.41420E-003	-4.62198E-002	2.85826E-003
	18	18	4.99844E-002	-6.42433E-002	0.00000E+000	-3.21116E-003	-6.37671E-001	3.78039E-002	2.99610E+001	11	...........	6.28565E-002	-5.25694E-003	6.09011E-001	5.42751E-001	-2.58724E-002	-3.69256E-002	7.06580E-001	-4.37336E-002	-4.03811E-003	3.37723E-004	-3.91249E-002	-3.48681E-002	1.66213E-003	2.37222E-003	-4.53931E-002	2.80959E-003
	19	19	5.00002E-002	-6.43698E-002	0.00000E+000	-3.21850E-003	-6.38939E-001	3.80462E-002	3.05565E+001	11	...........	6.32581E-002	-5.15903E-003	6.08947E-001	5.42683E-001	-2.58769E-002	-3.69261E-002	7.06562E-001	-4.37351E-002	-4.07191E-003	3.32085E-004	-3.91978E-002	-3.49324E-002	1.66569E-003	2.37692E-003	-4.54812E-002	2.81522E-003
	20	20	4.99912E-002	-6.35665E-002	0.00000E+000	-3.17776E-003	-6.30937E-001	3.79553E-002	3.07355E+001	11	...........	6.32401E-002	-5.11764E-003	6.09051E-001	5.42585E-001	-2.59010E-002	-3.69485E-002	7.06700E-001	-4.37696E-002	-4.01995E-003	3.25310E-004	-3.87152E-002	-3.44902E-002	1.64643E-003	2.34868E-003	-4.49224E-002	2.78228E-003
	21	21	4.99699E-002	-6.19722E-002	0.00000E+000	-3.09674E-003	-6.15083E-001	3.79115E-002	2.95983E+001	11	...........	6.32861E-002	-5.16903E-003	6.09136E-001	5.42767E-001	-2.59235E-002	-3.69447E-002	7.06830E-001	-4.37574E-002	-3.92198E-003	3.20336E-004	-3.77495E-002	-3.36364E-002	1.60653E-003	2.28955E-003	-4.38038E-002	2.71174E-003
	22	22	4.99932E-002	-6.11980E-002	0.00000E+000	-3.05948E-003	-6.07403E-001	3.79978E-002	3.00999E+001	11	...........	6.34078E-002	-5.24708E-003	6.09084E-001	5.42852E-001	-2.59015E-002	-3.69336E-002	7.06758E-001	-4.37456E-002	-3.88043E-003	3.21111E-004	-3.72747E-002	-3.32214E-002	1.58512E-003	2.26026E-003	-4.32522E-002	2.67714E-003
	23	23	5.00038E-002	-6.11115E-002	0.00000E+000	-3.05581E-003	-6.06540E-001	3.80660E-002	3.07778E+001	11	...........	6.35106E-002	-5.24917E-003	6.09078E-001	5.42870E-001	-2.59150E-002	-3.69172E-002	7.06740E-001	-4.37201E-002	-3.88123E-003	3.20784E-004	-3.72217E-002	-3.31756E-002	1.58370E-003	2.25607E-003	-4.31899E-002	2.67180E-003
	24	24	4.99892E-002	-6.06518E-002	0.00000E+000	-3.03193E-003	-6.01958E-001	3.81080E-002	3.06888E+001	11	...........	6.35615E-002	-5.36319E-003	6.09296E-001	5.42893E-001	-2.59271E-002	-3.69151E-002	7.06799E-001	-4.37125E-002	-3.85512E-003	3.25287E-004	-3.69549E-002	-3.29274E-002	1.57252E-003	2.23897E-003	-4.28687E-002	2.65124E-003
	25	25	4.99911E-002	-5.99115E-002	0.00000E+000	-2.99504E-003	-5.94597E-001	3.81742E-002	3.07738E+001	11	...........	6.36678E-002	-5.35306E-003	6.09387E-001	5.42879E-001	-2.59367E-002	-3.69017E-002	7.06769E-001	-4.37199E-002	-3.81443E-003	3.20709E-004	-3.65093E-002	-3.25247E-002	1.55390E-003	2.21083E-003	-4.23436E-002	2.61932E-003
	26	26	4.99909E-002	-5.94558E-002	0.00000E+000	-2.97225E-003	-5.90073E-001	3.81773E-002	3.09433E+001	11	...........	6.36887E-002	-5.22528E-003	6.09386E-001	5.42745E-001	-2.59181E-002	-3.68797E-002	7.06727E-001	-4.37075E-002	-3.78667E-003	3.10673E-004	-3.62316E-002	-3.22694E-002	1.54098E-003	2.19272E-003	-4.20191E-002	2.59867E-003
	27	27	4.99840E-002	-5.87820E-002	0.00000E+000	-2.93816E-003	-5.83373E-001	3.82752E-002	3.04572E+001	11	...........	6.38694E-002	-5.21861E-003	6.09443E-001	5.42681E-001	-2.59199E-002	-3.68697E-002	7.06625E-001	-4.37531E-002	-3.75437E-003	3.06760E-004	-3.58243E-002	-3.18999E-002	1.52362E-003	2.16727E-003	-4.15368E-002	2.57189E-003
	28	28	4.99918E-002	-5.69809E-002	0.00000E+000	-2.84858E-003	-5.65453E-001	3.81697E-002	2.99723E+001	11	...........	6.36883E-002	-5.15556E-003	6.09353E-001	5.42644E-001	-2.59572E-002	-3.68761E-002	7.06658E-001	-4.37403E-002	-3.62902E-003	2.93768E-004	-3.47215E-002	-3.09204E-002	1.47907E-003	2.10123E-003	-4.02661E-002	2.49236E-003
	29	29	5.00045E-002	-5.75693E-002	0.00000E+000	-2.87872E-003	-5.71303E-001	3.84702E-002	3.09848E+001	11	...........	6.41924E-002	-5.15222E-003	6.09419E-001	5.42764E-001	-2.59803E-002	-3.68704E-002	7.06695E-001	-4.38004E-002	-3.69551E-003	2.96610E-004	-3.50838E-002	-3.12466E-002	1.49567E-003	2.12261E-003	-4.06840E-002	2.52156E-003
	30	30	4.99837E-002	-5.72147E-002	0.00000E+000	-2.85980E-003	-5.67779E-001	3.83822E-002	3.07020E+001	11	...........	6.40719E-002	-5.21042E-003	6.09439E-001	5.42822E-001	-2.59842E-002	-3.68757E-002	7.06689E-001	-4.37199E-002	-3.66586E-003	2.98113E-004	-3.48689E-002	-3.10574E-002	1.48668E-003	2.10983E-003	-4.04330E-002	2.50142E-003
	31	31	4.99935E-002	-5.60088E-002	0.00000E+000	-2.80007E-003	-5.55793E-001	3.83902E-002	3.08239E+001	11	...........	6.40546E-002	-5.33194E-003	6.09430E-001	5.42573E-001	-2.59968E-002	-3.68906E-002	7.06772E-001	-4.37169E-002	-3.58762E-003	2.98636E-004	-3.41334E-002	-3.03888E-002	1.45605E-003	2.06619E-003	-3.95854E-002	2.44853E-003
	32	32	4.99904E-002	-5.57213E-002	0.00000E+000	-2.78553E-003	-5.52923E-001	3.85815E-002	3.10525E+001	11	...........	6.43910E-002	-5.39778E-003	6.09330E-001	5.42577E-001	-2.60067E-002	-3.69215E-002	7.06702E-001	-4.37257E-002	-3.58795E-003	3.00771E-004	-3.39526E-002	-3.02331E-002	1.44913E-003	2.05732E-003	-3.93784E-002	2.43645E-003
	33	33	4.99852E-002	-5.48415E-002	0.00000E+000	-2.74126E-003	-5.44174E-001	3.84374E-002	3.03791E+001	11	...........	6.41375E-002	-5.42069E-003	6.09303E-001	5.42646E-001	-2.60076E-002	-3.68921E-002	7.06560E-001	-4.36693E-002	-3.51740E-003	2.97279E-004	-3.34151E-002	-2.97595E-002	1.42630E-003	2.02322E-003	-3.87488E-002	2.39489E-003
	34	34	5.00036E-002	-5.47296E-002	0.00000E+000	-2.73668E-003	-5.43060E-001	3.86513E-002	3.09324E+001	11	...........	6.44837E-002	-5.27764E-003	6.09257E-001	5.42745E-001	-2.59854E-002	-3.68732E-002	7.06592E-001	-4.35169E-002	-3.52917E-003	2.88843E-004	-3.33444E-002	-2.97042E-002	1.42217E-003	2.01805E-003	-3.86715E-002	2.38166E-003
	35	35	4.99750E-002	-5.42951E-002	0.00000E+000	-2.71340E-003	-5.38747E-001	3.86311E-002	3.09259E+001	11	...........	6.44601E-002	-5.24764E-003	6.09232E-001	5.42622E-001	-2.59858E-002	-3.68564E-002	7.06591E-001	-4.35535E-002	-3.49987E-003	2.84921E-004	-3.30783E-002	-2.94618E-002	1.41090E-003	2.00112E-003	-3.83645E-002	2.36474E-003
	36	36	5.00088E-002	-5.37043E-002	0.00000E+000	-2.68569E-003	-5.32883E-001	3.86934E-002	3.12969E+001	11	...........	6.45678E-002	-5.25583E-003	6.09466E-001	5.42538E-001	-2.60078E-002	-3.68401E-002	7.06470E-001	-4.37000E-002	-3.46757E-003	2.82261E-004	-3.27310E-002	-2.91367E-002	1.39673E-003	1.97848E-003	-3.79405E-002	2.34688E-003
	37	37	4.99909E-002	-5.31424E-002	0.00000E+000	-2.65664E-003	-5.27280E-001	3.86937E-002	3.11870E+001	11	...........	6.45724E-002	-5.19597E-003	6.09544E-001	5.42447E-001	-2.60106E-002	-3.68347E-002	7.06572E-001	-4.37800E-002	-3.43153E-003	2.76127E-004	-3.23927E-002	-2.88269E-002	1.38226E-003	1.95749E-003	-3.75490E-002	2.32657E-003
	38	38	4.99915E-002	-5.23798E-002	0.00000E+000	-2.61854E-003	-5.19699E-001	3.86518E-002	3.08207E+001	11	...........	6.45044E-002	-5.14806E-003	6.09571E-001	5.42292E-001	-2.60108E-002	-3.68428E-002	7.06524E-001	-4.37696E-002	-3.37873E-003	2.69654E-004	-3.19292E-002	-2.84051E-002	1.36244E-003	1.92982E-003	-3.70075E-002	2.29264E-003
	39	39	4.99925E-002	-5.21460E-002	0.00000E+000	-2.60691E-003	-5.17368E-001	3.88347E-002	3.14767E+001	11	...........	6.47900E-002	-5.22569E-003	6.09545E-001	5.42212E-001	-2.60118E-002	-3.68571E-002	7.06551E-001	-4.37212E-002	-3.37854E-003	2.72499E-004	-3.17854E-002	-2.82742E-002	1.35641E-003	1.92195E-003	-3.68438E-002	2.27989E-003
	40	40	4.99952E-002	-5.18642E-002	0.00000E+000	-2.59296E-003	-5.14569E-001	3.88367E-002	3.16505E+001	11	...........	6.48037E-002	-5.24167E-003	6.09623E-001	5.42222E-001	-2.60169E-002	-3.68869E-002	7.06573E-001	-4.37242E-002	-3.36099E-003	2.71855E-004	-3.16176E-002	-2.81219E-002	1.34935E-003	1.91311E-003	-3.66458E-002	2.26772E-003
	41	41	4.99894E-002	-5.13132E-002	0.00000E+000	-2.56511E-003	-5.09125E-001	3.88673E-002	3.14937E+001	11	...........	6.48532E-002	-5.17097E-003	6.09550E-001	5.42294E-001	-2.60140E-002	-3.69161E-002	7.06408E-001	-4.37229E-002	-3.32782E-003	2.65339E-004	-3.12779E-002	-2.78269E-002	1.33486E-003	1.89428E-003	-3.62481E-002	2.24356E-003
	42	42	4.99893E-002	-5.02806E-002	0.00000E+000	-2.51349E-003	-4.98853E-001	3.88133E-002	3.09131E+001	11	...........	6.47642E-002	-5.17514E-003	6.09597E-001	5.42269E-001	-2.59936E-002	-3.69010E-002	7.06480E-001	-4.37399E-002	-3.25638E-003	2.60209E-004	-3.06509E-002	-2.72656E-002	1.30697E-003	1.85540E-003	-3.55222E-002	2.19927E-003
	43	43	4.99976E-002	-5.03386E-002	0.00000E+000	-2.51681E-003	-4.99416E-001	3.89725E-002	3.10361E+001	11	...........	6.50107E-002	-5.26403E-003	6.09557E-001	5.42228E-001	-2.60003E-002	-3.69156E-002	7.06435E-001	-4.36846E-002	-3.27255E-003	2.64984E-004	-3.06842E-002	-2.72950E-002	1.30882E-003	1.85828E-003	-3.55609E-002	2.19902E-003
	44	44	4.99936E-002	-4.94506E-002	0.00000E+000	-2.47221E-003	-4.90596E-001	3.88567E-002	3.14222E+001	11	...........	6.48340E-002	-5.20861E-003	6.09542E-001	5.42185E-001	-2.59906E-002	-3.69358E-002	7.06475E-001	-4.34954E-002	-3.20608E-003	2.57569E-004	-3.01422E-002	-2.68114E-002	1.28525E-003	1.82650E-003	-3.49356E-002	2.15087E-003
	45	45	4.99898E-002	-4.93507E-002	0.00000E+000	-2.46703E-003	-4.89606E-001	3.90880E-002	3.17508E+001	11	...........	6.52104E-002	-5.14375E-003	6.09536E-001	5.42133E-001	-2.59986E-002	-3.69336E-002	7.06560E-001	-4.35732E-002	-3.21818E-003	2.53848E-004	-3.00810E-002	-2.67546E-002	1.28305E-003	1.82270E-003	-3.48692E-002	2.15037E-003
	46	46	4.99887E-002	-4.88100E-002	0.00000E+000	-2.43995E-003	-4.84241E-001	3.90118E-002	3.17723E+001	11	...........	6.50996E-002	-5.22625E-003	6.09537E-001	5.42145E-001	-2.60164E-002	-3.69193E-002	7.06537E-001	-4.37703E-002	-3.17751E-003	2.55093E-004	-2.97515E-002	-2.64621E-002	1.26986E-003	1.80203E-003	-3.44861E-002	2.13643E-003
	47	47	4.99954E-002	-4.81979E-002	0.00000E+000	-2.40968E-003	-4.78147E-001	3.90247E-002	3.16261E+001	11	...........	6.51105E-002	-5.25542E-003	6.09449E-001	5.42189E-001	-2.60176E-002	-3.69461E-002	7.06606E-001	-4.37297E-002	-3.13819E-003	2.53300E-004	-2.93742E-002	-2.61324E-002	1.25400E-003	1.78073E-003	-3.40570E-002	2.10768E-003
	48	48	4.99966E-002	-4.76715E-002	0.00000E+000	-2.38341E-003	-4.72902E-001	3.90028E-002	3.14709E+001	11	...........	6.50772E-002	-5.19903E-003	6.09443E-001	5.42204E-001	-2.59947E-002	-3.69275E-002	7.06679E-001	-4.37017E-002	-3.10233E-003	2.47846E-004	-2.90531E-002	-2.58477E-002	1.23921E-003	1.76039E-003	-3.36885E-002	2.08333E-003
	49	49	4.99904E-002	-4.75852E-002	0.00000E+000	-2.37881E-003	-4.72037E-001	3.92183E-002	3.20323E+001	11	...........	6.54376E-002	-5.29653E-003	6.09363E-001	5.42360E-001	-2.59924E-002	-3.69485E-002	7.06580E-001	-4.37626E-002	-3.11387E-003	2.52037E-004	-2.89967E-002	-2.58083E-002	1.23685E-003	1.75820E-003	-3.36228E-002	2.08246E-003
	50	50	4.99918E-002	-4.70102E-002	0.00000E+000	-2.35012E-003	-4.66321E-001	3.92022E-002	3.15275E+001	11	...........	6.54176E-002	-5.30417E-003	6.09311E-001	5.42587E-001	-2.59856E-002	-3.69689E-002	7.06481E-001	-4.37539E-002	-3.07530E-003	2.49350E-004	-2.86438E-002	-2.55071E-002	1.22159E-003	1.73791E-003	-3.32118E-002	2.05688E-003
	51	51	4.99855E-002	-4.59532E-002	0.00000E+000	-2.29699E-003	-4.55819E-001	3.91097E-002	3.13467E+001	11	...........	6.52456E-002	-5.24361E-003	6.09214E-001	5.42630E-001	-2.59560E-002	-3.69783E-002	7.06524E-001	-4.37207E-002	-2.99824E-003	2.40961E-004	-2.79953E-002	-2.49356E-002	1.19276E-003	1.69927E-003	-3.24670E-002	2.00911E-003
	52	52	5.00057E-002	-4.60319E-002	0.00000E+000	-2.30186E-003	-4.56610E-001	3.92959E-002	3.20556E+001	11	...........	6.55719E-002	-5.24167E-003	6.09050E-001	5.42628E-001	-2.59349E-002	-3.69801E-002	7.06685E-001	-4.36868E-002	-3.01840E-003	2.41284E-004	-2.80357E-002	-2.49782E-002	1.19383E-003	1.70227E-003	-3.25301E-002	2.01099E-003
	53	53	4.99936E-002	-4.58566E-002	0.00000E+000	-2.29254E-003	-4.54862E-001	3.92717E-002	3.22973E+001	11	...........	6.55447E-002	-5.25667E-003	6.09117E-001	5.42735E-001	-2.59465E-002	-3.69761E-002	7.06604E-001	-4.37682E-002	-3.00566E-003	2.41053E-004	-2.79321E-002	-2.48880E-002	1.18982E-003	1.69560E-003	-3.24025E-002	2.00706E-003
	54	54	4.99871E-002	-4.52242E-002	0.00000E+000	-2.26063E-003	-4.48555E-001	3.93339E-002	3.16597E+001	11	...........	6.56294E-002	-5.17472E-003	6.09112E-001	5.42836E-001	-2.59453E-002	-3.70097E-002	7.06531E-001	-4.37064E-002	-2.96804E-003	2.34023E-004	-2.75466E-002	-2.45493E-002	1.17335E-003	1.67373E-003	-3.19523E-002	1.97659E-003
	55	55	4.99911E-002	-4.38770E-002	0.00000E+000	-2.19346E-003	-4.35172E-001	3.92465E-002	3.12954E+001	11	...........	6.54914E-002	-5.16708E-003	6.09057E-001	5.42921E-001	-2.59690E-002	-3.70092E-002	7.06545E-001	-4.37178E-002	-2.87357E-003	2.26716E-004	-2.67236E-002	-2.38217E-002	1.13944E-003	1.62385E-003	-3.10011E-002	1.91821E-003
	56	56	4.99959E-002	-4.37981E-002	0.00000E+000	-2.18973E-003	-4.34393E-001	3.93967E-002	3.21304E+001	11	...........	6.57440E-002	-5.20556E-003	6.09055E-001	5.42988E-001	-2.59726E-002	-3.70251E-002	7.06530E-001	-4.35771E-002	-2.87946E-003	2.27993E-004	-2.66754E-002	-2.37819E-002	1.13755E-003	1.62163E-003	-3.09447E-002	1.90859E-003
	57	57	4.99948E-002	-4.38744E-002	0.00000E+000	-2.19349E-003	-4.35149E-001	3.94304E-002	3.20387E+001	11	...........	6.57782E-002	-5.23792E-003	6.09099E-001	5.42890E-001	-2.59804E-002	-3.70386E-002	7.06466E-001	-4.36035E-002	-2.88598E-003	2.29810E-004	-2.67238E-002	-2.38190E-002	1.13988E-003	1.62505E-003	-3.09958E-002	1.91308E-003
	58	58	4.99930E-002	-4.29516E-002	0.00000E+000	-2.14728E-003	-4.25973E-001	3.93681E-002	3.19040E+001	11	...........	6.56814E-002	-5.26264E-003	6.09045E-001	5.42852E-001	-2.59700E-002	-3.70069E-002	7.06507E-001	-4.37022E-002	-2.82112E-003	2.26039E-004	-2.61594E-002	-2.33163E-002	1.11545E-003	1.58951E-003	-3.03456E-002	1.87708E-003
	59	59	4.99937E-002	-4.29514E-002	0.00000E+000	-2.14730E-003	-4.25970E-001	3.95731E-002	3.24222E+001	11	...........	6.60157E-002	-5.28333E-003	6.09052E-001	5.42876E-001	-2.59346E-002	-3.70218E-002	7.06474E-001	-4.37542E-002	-2.83547E-003	2.26926E-004	-2.61596E-002	-2.33173E-002	1.11393E-003	1.59014E-003	-3.03440E-002	1.87930E-003
	60	60	4.99892E-002	-4.22740E-002	0.00000E+000	-2.11324E-003	-4.19223E-001	3.94982E-002	3.22418E+001	11	...........	6.58960E-002	-5.32986E-003	6.09017E-001	5.42801E-001	-2.59450E-002	-3.70187E-002	7.06374E-001	-4.37814E-002	-2.78569E-003	2.25315E-004	-2.57456E-002	-2.29464E-002	1.09680E-003	1.56493E-003	-2.98613E-002	1.85081E-003
	61	61	4.99912E-002	-4.13212E-002	0.00000E+000	-2.06570E-003	-4.09765E-001	3.93745E-002	3.14895E+001	11	...........	6.57022E-002	-5.42431E-003	6.08862E-001	5.42863E-001	-2.59429E-002	-3.70182E-002	7.06563E-001	-4.37672E-002	-2.71489E-003	2.24139E-004	-2.51589E-002	-2.24317E-002	1.07199E-003	1.52963E-003	-2.91960E-002	1.80851E-003
	62	62	5.00004E-002	-4.15672E-002	0.00000E+000	-2.07838E-003	-4.12192E-001	3.96631E-002	3.22202E+001	11	...........	6.61858E-002	-5.19375E-003	6.08870E-001	5.42857E-001	-2.59406E-002	-3.70125E-002	7.06465E-001	-4.37303E-002	-2.75116E-003	2.15890E-004	-2.53090E-002	-2.25650E-002	1.07828E-003	1.53851E-003	-2.93658E-002	1.81775E-003
	63	63	4.99923E-002	-4.12859E-002	0.00000E+000	-2.06398E-003	-4.09423E-001	3.95893E-002	3.25258E+001	11	...........	6.60631E-002	-5.12764E-003	6.08818E-001	5.42871E-001	-2.59274E-002	-3.69710E-002	7.06460E-001	-4.37626E-002	-2.72747E-003	2.11699E-004	-2.51356E-002	-2.24129E-002	1.07043E-003	1.52638E-003	-2.91669E-002	1.80678E-003
	64	64	4.99948E-002	-4.08639E-002	0.00000E+000	-2.04298E-003	-4.05248E-001	3.96259E-002	3.24355E+001	11	...........	6.61319E-002	-5.13306E-003	6.08822E-001	5.42828E-001	-2.59207E-002	-3.69683E-002	7.06452E-001	-4.37142E-002	-2.70241E-003	2.09757E-004	-2.48788E-002	-2.21821E-002	1.05922E-003	1.51067E-003	-2.88684E-002	1.78633E-003
	65	65	4.99920E-002	-4.01640E-002	0.00000E+000	-2.00788E-003	-3.98265E-001	3.95997E-002	3.23152E+001	11	...........	6.60721E-002	-5.10889E-003	6.08674E-001	5.42602E-001	-2.59117E-002	-3.69646E-002	7.06338E-001	-4.37096E-002	-2.65372E-003	2.05193E-004	-2.44468E-002	-2.17931E-002	1.04072E-003	1.48464E-003	-2.83693E-002	1.75555E-003
	66	66	4.99904E-002	-3.97000E-002	0.00000E+000	-1.98462E-003	-3.93654E-001	3.97625E-002	3.17739E+001	11	...........	6.63792E-002	-5.14083E-003	6.08588E-001	5.42573E-001	-2.59290E-002	-3.69693E-002	7.06492E-001	-4.37387E-002	-2.63525E-003	2.04091E-004	-2.41609E-002	-2.15401E-002	1.02938E-003	1.46768E-003	-2.80477E-002	1.73643E-003
	67	67	4.99945E-002	-3.88726E-002	0.00000E+000	-1.94342E-003	-3.85427E-001	3.96012E-002	3.23357E+001	11	...........	6.60824E-002	-5.08458E-003	6.08573E-001	5.42779E-001	-2.59212E-002	-3.69637E-002	7.06501E-001	-4.37342E-002	-2.56879E-003	1.97651E-004	-2.36568E-002	-2.10992E-002	1.00763E-003	1.43688E-003	-2.74635E-002	1.70006E-003
	68	68	4.99943E-002	-3.90756E-002	0.00000E+000	-1.95356E-003	-3.87439E-001	3.97624E-002	3.27485E+001	11	...........	6.63290E-002	-5.12708E-003	6.08644E-001	5.42854E-001	-2.58764E-002	-3.69487E-002	7.06458E-001	-4.37267E-002	-2.59185E-003	2.00344E-004	-2.37831E-002	-2.12124E-002	1.01114E-003	1.44380E-003	-2.76053E-002	1.70865E-003
	69	69	4.99937E-002	-3.87777E-002	0.00000E+000	-1.93864E-003	-3.84488E-001	3.97623E-002	3.25213E+001	11	...........	6.63351E-002	-5.16417E-003	6.08631E-001	5.42805E-001	-2.58362E-002	-3.69581E-002	7.06564E-001	-4.37265E-002	-2.57232E-003	2.00254E-004	-2.36013E-002	-2.10487E-002	1.00187E-003	1.43315E-003	-2.73989E-002	1.69561E-003
	70	70	4.99929E-002	-3.78388E-002	0.00000E+000	-1.89167E-003	-3.75151E-001	3.96768E-002	3.23274E+001	11	...........	6.62042E-002	-5.09944E-003	6.08568E-001	5.42625E-001	-2.58265E-002	-3.69740E-002	7.06690E-001	-4.37676E-002	-2.50509E-003	1.92957E-004	-2.30275E-002	-2.05323E-002	9.77246E-004	1.39905E-003	-2.67403E-002	1.65612E-003
	71	71	4.99929E-002	-3.76695E-002	0.00000E+000	-1.88321E-003	-3.73457E-001	3.99147E-002	3.28388E+001	11	...........	6.65969E-002	-5.11542E-003	6.08526E-001	5.42589E-001	-2.58418E-002	-3.70036E-002	7.06774E-001	-4.37551E-002	-2.50867E-003	1.92695E-004	-2.29229E-002	-2.04390E-002	9.73447E-004	1.39391E-003	-2.66238E-002	1.64823E-003
	72	72	4.99862E-002	-3.71790E-002	0.00000E+000	-1.85844E-003	-3.68578E-001	3.97405E-002	3.20662E+001	11	...........	6.62971E-002	-5.09125E-003	6.08451E-001	5.42660E-001	-2.58468E-002	-3.70010E-002	7.06813E-001	-4.37354E-002	-2.46486E-003	1.89287E-004	-2.26216E-002	-2.01756E-002	9.60958E-004	1.37566E-003	-2.62786E-002	1.62604E-003
	73	73	5.00041E-002	-3.68043E-002	0.00000E+000	-1.84037E-003	-3.64853E-001	3.98172E-002	3.26792E+001	11	...........	6.64503E-002	-5.14028E-003	6.08330E-001	5.42773E-001	-2.58160E-002	-3.69719E-002	7.06736E-001	-4.37854E-002	-2.44565E-003	1.89184E-004	-2.23891E-002	-1.99764E-002	9.50138E-004	1.36073E-003	-2.60109E-002	1.61149E-003
	74	74	4.99963E-002	-3.67673E-002	0.00000E+000	-1.83823E-003	-3.64483E-001	3.99183E-002	3.29827E+001	11	...........	6.66164E-002	-5.17556E-003	6.08454E-001	5.42756E-001	-2.57922E-002	-3.69942E-002	7.06725E-001	-4.38287E-002	-2.44931E-003	1.90291E-004	-2.23712E-002	-1.99557E-002	9.48311E-004	1.36018E-003	-2.59844E-002	1.61147E-003
	75	75	4.99924E-002	-3.63238E-002	0.00000E+000	-1.81591E-003	-3.60073E-001	3.99192E-002	3.27030E+001	11	...........	6.66061E-002	-5.19625E-003	6.08577E-001	5.42636E-001	-2.57868E-002	-3.69949E-002	7.06710E-001	-4.38113E-002	-2.41939E-003	1.88747E-004	-2.21058E-002	-1.97106E-002	9.36674E-004	1.34379E-003	-2.56704E-002	1.59139E-003
	76	76	4.99890E-002	-3.52024E-002	0.00000E+000	-1.75973E-003	-3.48920E-001	3.98552E-002	3.21499E+001	11	...........	6.64926E-002	-5.21528E-003	6.08588E-001	5.42412E-001	-2.57769E-002	-3.70165E-002	7.06643E-001	-4.37621E-002	-2.34070E-003	1.83590E-004	-2.14238E-002	-1.90942E-002	9.07411E-004	1.30307E-003	-2.48756E-002	1.54053E-003
	77	77	4.99900E-002	-3.51966E-002	0.00000E+000	-1.75948E-003	-3.48856E-001	3.99631E-002	3.19610E+001	11	...........	6.66817E-002	-5.23069E-003	6.08455E-001	5.42337E-001	-2.57761E-002	-3.70193E-002	7.06702E-001	-4.37425E-002	-2.34697E-003	1.84103E-004	-2.14155E-002	-1.90884E-002	9.07231E-004	1.30295E-003	-2.48735E-002	1.53959E-003
	78	78	4.99997E-002	-3.48097E-002	0.00000E+000	-1.74048E-003	-3.45001E-001	3.99642E-002	3.29101E+001	11	...........	6.66822E-002	-5.21556E-003	6.08548E-001	5.42229E-001	-2.57746E-002	-3.70246E-002	7.06705E-001	-4.37158E-002	-2.32119E-003	1.81552E-004	-2.11834E-002	-1.88749E-002	8.97207E-004	1.28882E-003	-2.46002E-002	1.52174E-003
	79	79	4.99956E-002	-3.47662E-002	0.00000E+000	-1.73816E-003	-3.44571E-001	4.00084E-002	3.28739E+001	11	...........	6.67881E-002	-5.25111E-003	6.08477E-001	5.42122E-001	-2.57828E-002	-3.69979E-002	7.06634E-001	-4.36128E-002	-2.32197E-003	1.82561E-004	-2.11544E-002	-1.88475E-002	8.96369E-004	1.28628E-003	-2.45670E-002	1.51625E-003
	80	80	4.99936E-002	-3.43999E-002	0.00000E+000	-1.71977E-003	-3.40938E-001	4.00252E-002	3.28795E+001	11	...........	6.68004E-002	-5.16222E-003	6.08496E-001	5.42143E-001	-2.57736E-002	-3.69935E-002	7.06467E-001	-4.36772E-002	-2.29793E-003	1.77580E-004	-2.09322E-002	-1.86497E-002	8.86609E-004	1.27257E-003	-2.43024E-002	1.50249E-003
	81	81	4.99964E-002	-3.40129E-002	0.00000E+000	-1.70052E-003	-3.37090E-001	4.00372E-002	3.29328E+001	11	...........	6.68126E-002	-5.08403E-003	6.08458E-001	5.42046E-001	-2.57715E-002	-3.69779E-002	7.06565E-001	-4.37526E-002	-2.27249E-003	1.72922E-004	-2.06954E-002	-1.84365E-002	8.76563E-004	1.25772E-003	-2.40323E-002	1.48815E-003
	82	82	4.99931E-002	-3.37488E-002	0.00000E+000	-1.68721E-003	-3.34461E-001	4.00961E-002	3.32175E+001	11	...........	6.68935E-002	-5.15694E-003	6.08586E-001	5.41865E-001	-2.57993E-002	-3.69575E-002	7.06594E-001	-4.38119E-002	-2.25757E-003	1.74041E-004	-2.05391E-002	-1.82873E-002	8.70695E-004	1.24727E-003	-2.38467E-002	1.47860E-003
	83	83	4.99906E-002	-3.32346E-002	0.00000E+000	-1.66142E-003	-3.29367E-001	4.01303E-002	3.21357E+001	11	...........	6.69606E-002	-5.18639E-003	6.08623E-001	5.41762E-001	-2.58115E-002	-3.69547E-002	7.06522E-001	-4.37460E-002	-2.22541E-003	1.72367E-004	-2.02274E-002	-1.80052E-002	8.57835E-004	1.22817E-003	-2.34810E-002	1.45388E-003
	84	84	4.99967E-002	-3.22827E-002	0.00000E+000	-1.61403E-003	-3.19879E-001	3.99855E-002	3.20210E+001	11	...........	6.67225E-002	-5.18861E-003	6.08679E-001	5.41636E-001	-2.58272E-002	-3.69640E-002	7.06730E-001	-4.37504E-002	-2.15398E-003	1.67502E-004	-1.96498E-002	-1.74855E-002	8.33772E-004	1.19330E-003	-2.28151E-002	1.41238E-003
	85	85	4.99985E-002	-3.23395E-002	0.00000E+000	-1.61693E-003	-3.20450E-001	4.00154E-002	3.26503E+001	11	...........	6.67662E-002	-5.14931E-003	6.08738E-001	5.41606E-001	-2.58456E-002	-3.69774E-002	7.06652E-001	-4.36976E-002	-2.15919E-003	1.66526E-004	-1.96863E-002	-1.75153E-002	8.35833E-004	1.19583E-003	-2.28528E-002	1.41316E-003
	86	86	4.99922E-002	-3.24738E-002	0.00000E+000	-1.62344E-003	-3.21781E-001	4.03007E-002	3.31655E+001	11	...........	6.72493E-002	-5.21944E-003	6.08738E-001	5.41648E-001	-2.58628E-002	-3.69489E-002	7.06732E-001	-4.36210E-002	-2.18384E-003	1.69495E-004	-1.97680E-002	-1.75894E-002	8.39863E-004	1.19987E-003	-2.29503E-002	1.41654E-003
	87	87	4.99890E-002	-3.17371E-002	0.00000E+000	-1.58651E-003	-3.14456E-001	4.01157E-002	3.30907E+001	11	...........	6.69310E-002	-5.22583E-003	6.08663E-001	5.41691E-001	-2.58879E-002	-3.69247E-002	7.06659E-001	-4.35878E-002	-2.12420E-003	1.65853E-004	-1.93172E-002	-1.71917E-002	8.21608E-004	1.17188E-003	-2.24273E-002	1.38335E-003
	88	88	4.99948E-002	-3.13256E-002	0.00000E+000	-1.56612E-003	-3.10363E-001	4.02544E-002	3.26844E+001	11	...........	6.71590E-002	-5.25472E-003	6.08535E-001	5.41828E-001	-2.59025E-002	-3.69069E-002	7.06714E-001	-4.37169E-002	-2.10380E-003	1.64607E-004	-1.90627E-002	-1.69731E-002	8.11412E-004	1.15613E-003	-2.21383E-002	1.36946E-003
	89	89	4.99969E-002	-3.07463E-002	0.00000E+000	-1.53722E-003	-3.04633E-001	4.00583E-002	3.26402E+001	11	...........	6.68380E-002	-5.26931E-003	6.08329E-001	5.41666E-001	-2.59276E-002	-3.69178E-002	7.06640E-001	-4.35512E-002	-2.05502E-003	1.62011E-004	-1.87038E-002	-1.66542E-002	7.97178E-004	1.13508E-003	-2.17265E-002	1.33904E-003
	90	90	4.99966E-002	-3.08934E-002	0.00000E+000	-1.54457E-003	-3.06113E-001	4.03211E-002	3.32432E+001	11	...........	6.72950E-002	-5.21042E-003	6.08241E-001	5.41574E-001	-2.59268E-002	-3.69724E-002	7.06643E-001	-4.36926E-002	-2.07897E-003	1.60967E-004	-1.87906E-002	-1.67310E-002	8.00967E-004	1.14220E-003	-2.18306E-002	1.34981E-003
	91	91	4.99928E-002	-3.05035E-002	0.00000E+000	-1.52496E-003	-3.02235E-001	4.02336E-002	3.26887E+001	11	...........	6.71258E-002	-5.22639E-003	6.08335E-001	5.41561E-001	-2.59007E-002	-3.69647E-002	7.06666E-001	-4.36893E-002	-2.04757E-003	1.59423E-004	-1.85564E-002	-1.65195E-002	7.90063E-004	1.12755E-003	-2.15558E-002	1.33268E-003
	92	92	4.99909E-002	-2.97268E-002	0.00000E+000	-1.48607E-003	-2.94486E-001	4.02752E-002	3.30580E+001	11	...........	6.71993E-002	-5.20403E-003	6.08485E-001	5.41591E-001	-2.59094E-002	-3.69642E-002	7.06632E-001	-4.38096E-002	-1.99762E-003	1.54699E-004	-1.80883E-002	-1.60997E-002	7.70204E-004	1.09883E-003	-2.10059E-002	1.30232E-003
	93	93	4.99958E-002	-2.95966E-002	0.00000E+000	-1.47971E-003	-2.93192E-001	4.02101E-002	3.26907E+001	11	...........	6.70953E-002	-5.21361E-003	6.08390E-001	5.41537E-001	-2.58924E-002	-3.69572E-002	7.06656E-001	-4.37826E-002	-1.98579E-003	1.54305E-004	-1.80063E-002	-1.60277E-002	7.66327E-004	1.09381E-003	-2.09146E-002	1.29582E-003
	94	94	4.99987E-002	-2.94310E-002	0.00000E+000	-1.47151E-003	-2.91557E-001	4.02954E-002	3.32409E+001	11	...........	6.72594E-002	-5.19542E-003	6.08409E-001	5.41459E-001	-2.58867E-002	-3.69817E-002	7.06713E-001	-4.37538E-002	-1.97952E-003	1.52907E-004	-1.79061E-002	-1.59357E-002	7.61872E-004	1.08841E-003	-2.07993E-002	1.28772E-003
	95	95	4.99920E-002	-2.91751E-002	0.00000E+000	-1.45852E-003	-2.89007E-001	4.03619E-002	3.34144E+001	11	...........	6.73740E-002	-5.36069E-003	6.08381E-001	5.41535E-001	-2.58828E-002	-3.70036E-002	7.06738E-001	-4.37515E-002	-1.96565E-003	1.56399E-004	-1.77496E-002	-1.57994E-002	7.55134E-004	1.07959E-003	-2.06192E-002	1.27646E-003
	96	96	4.99814E-002	-2.87985E-002	0.00000E+000	-1.43939E-003	-2.85266E-001	4.03838E-002	3.23392E+001	11	...........	6.73793E-002	-5.27583E-003	6.08429E-001	5.41484E-001	-2.58757E-002	-3.70029E-002	7.06724E-001	-4.37047E-002	-1.94042E-003	1.51936E-004	-1.75218E-002	-1.55939E-002	7.45182E-004	1.06563E-003	-2.03526E-002	1.25863E-003
	97	97	5.00023E-002	-2.80001E-002	0.00000E+000	-1.40007E-003	-2.77339E-001	4.03283E-002	3.29813E+001	11	...........	6.73129E-002	-5.12625E-003	6.08465E-001	5.41463E-001	-2.58889E-002	-3.69747E-002	7.06700E-001	-4.37075E-002	-1.88477E-003	1.43535E-004	-1.70371E-002	-1.51610E-002	7.24891E-004	1.03530E-003	-1.97877E-002	1.22381E-003
	98	98	4.99960E-002	-2.79194E-002	0.00000E+000	-1.39586E-003	-2.76540E-001	4.03568E-002	3.31820E+001	11	...........	6.73517E-002	-5.15611E-003	6.08604E-001	5.41434E-001	-2.58754E-002	-3.70157E-002	7.06547E-001	-4.37426E-002	-1.88042E-003	1.43956E-004	-1.69919E-002	-1.51165E-002	7.22426E-004	1.03346E-003	-1.97264E-002	1.22127E-003
	99	99	5.00000E-002	-2.77379E-002	0.00000E+000	-1.38689E-003	-2.74725E-001	4.03522E-002	3.32467E+001	11	...........	6.73283E-002	-5.08722E-003	6.08547E-001	5.41267E-001	-2.58990E-002	-3.70104E-002	7.06452E-001	-4.38140E-002	-1.86754E-003	1.41109E-004	-1.68798E-002	-1.50136E-002	7.18384E-004	1.02659E-003	-1.95955E-002	1.21531E-003
	100	100	4.99944E-002	-2.73965E-002	0.00000E+000	-1.36967E-003	-2.71320E-001	4.03314E-002	3.34659E+001	11	...........	6.73108E-002	-5.15681E-003	6.08547E-001	5.41331E-001	-2.59157E-002	-3.70261E-002	7.06425E-001	-4.38771E-002	-1.84408E-003	1.41278E-004	-1.66721E-002	-1.48306E-002	7.10000E-004	1.01439E-003	-1.93536E-002	1.20208E-003
	101	101	4.99945E-002	-2.71202E-002	0.00000E+000	-1.35586E-003	-2.68564E-001	4.04953E-002	3.37836E+001	11	...........	6.75717E-002	-5.11986E-003	6.08433E-001	5.41577E-001	-2.59014E-002	-3.70025E-002	7.06385E-001	-4.37258E-002	-1.83255E-003	1.38851E-004	-1.65008E-002	-1.46876E-002	7.02450E-004	1.00351E-003	-1.91573E-002	1.18585E-003
	102	102	4.99950E-002	-2.68381E-002	0.00000E+000	-1.34177E-003	-2.65767E-001	4.04502E-002	3.28437E+001	11	...........	6.74992E-002	-5.12861E-003	6.08417E-001	5.41669E-001	-2.59007E-002	-3.70108E-002	7.06534E-001	-4.37481E-002	-1.81155E-003	1.37642E-004	-1.63288E-002	-1.45374E-002	6.95126E-004	9.93301E-004	-1.89620E-002	1.17412E-003
	103	103	4.99919E-002	-2.59400E-002	0.00000E+000	-1.29679E-003	-2.56841E-001	4.03634E-002	3.31408E+001	11	...........	6.73471E-002	-5.13097E-003	6.08331E-001	5.41822E-001	-2.58981E-002	-3.69926E-002	7.06504E-001	-4.36150E-002	-1.74698E-003	1.33098E-004	-1.57801E-002	-1.40549E-002	6.71796E-004	9.59590E-004	-1.83267E-002	1.13137E-003
	104	104	4.99974E-002	-2.61417E-002	0.00000E+000	-1.30701E-003	-2.58840E-001	4.04937E-002	3.29993E+001	11	...........	6.75668E-002	-5.18514E-003	6.08613E-001	5.41839E-001	-2.58953E-002	-3.69665E-002	7.06546E-001	-4.36962E-002	-1.76631E-003	1.35548E-004	-1.59102E-002	-1.41646E-002	6.76946E-004	9.66367E-004	-1.84703E-002	1.14229E-003
	105	105	4.99944E-002	-2.57833E-002	0.00000E+000	-1.28902E-003	-2.55283E-001	4.04608E-002	3.30765E+001	11	...........	6.75082E-002	-5.13097E-003	6.08753E-001	5.41651E-001	-2.59061E-002	-3.69821E-002	7.06370E-001	-4.37719E-002	-1.74058E-003	1.32293E-004	-1.56957E-002	-1.39656E-002	6.67945E-004	9.53521E-004	-1.82126E-002	1.12859E-003
	106	106	4.99930E-002	-2.54142E-002	0.00000E+000	-1.27053E-003	-2.51617E-001	4.04766E-002	3.35131E+001	11	...........	6.75426E-002	-5.05625E-003	6.08752E-001	5.41512E-001	-2.58893E-002	-3.69872E-002	7.06352E-001	-4.37593E-002	-1.71654E-003	1.28501E-004	-1.54709E-002	-1.37621E-002	6.57956E-004	9.40001E-004	-1.79514E-002	1.11211E-003
	107	107	4.99981E-002	-2.53289E-002	0.00000E+000	-1.26639E-003	-2.50769E-001	4.05781E-002	3.38399E+001	11	...........	6.77233E-002	-5.11819E-003	6.08718E-001	5.41475E-001	-2.59104E-002	-3.70003E-002	7.06467E-001	-4.37275E-002	-1.71535E-003	1.29638E-004	-1.54181E-002	-1.37150E-002	6.56281E-004	9.37175E-004	-1.78940E-002	1.10757E-003
	108	108	4.99918E-002	-2.49769E-002	0.00000E+000	-1.24864E-003	-2.47261E-001	4.05160E-002	3.39593E+001	11	...........	6.76061E-002	-5.11722E-003	6.08654E-001	5.41643E-001	-2.59272E-002	-3.70028E-002	7.06400E-001	-4.37067E-002	-1.68859E-003	1.27813E-004	-1.52023E-002	-1.35286E-002	6.47583E-004	9.24216E-004	-1.76437E-002	1.09166E-003
	109	109	4.99958E-002	-2.45430E-002	0.00000E+000	-1.22705E-003	-2.42937E-001	4.05532E-002	3.31864E+001	11	...........	6.76453E-002	-5.17458E-003	6.08591E-001	5.41690E-001	-2.59325E-002	-3.70019E-002	7.06420E-001	-4.37288E-002	-1.66022E-003	1.27000E-004	-1.49367E-002	-1.32947E-002	6.36461E-004	9.08138E-004	-1.73377E-002	1.07323E-003
	110	110	4.99926E-002	-2.40164E-002	0.00000E+000	-1.20064E-003	-2.37704E-001	4.04218E-002	3.31042E+001	11	...........	6.74503E-002	-5.21514E-003	6.08721E-001	5.41679E-001	-2.59335E-002	-3.70018E-002	7.06405E-001	-4.37318E-002	-1.61991E-003	1.25249E-004	-1.46193E-002	-1.30092E-002	6.22829E-004	8.88651E-004	-1.69653E-002	1.05028E-003
	111	111	4.99995E-002	-2.39836E-002	0.00000E+000	-1.19917E-003	-2.37379E-001	4.06112E-002	3.38997E+001	11	...........	6.77567E-002	-5.28875E-003	6.08623E-001	5.41675E-001	-2.59637E-002	-3.69926E-002	7.06458E-001	-4.37156E-002	-1.62505E-003	1.26843E-004	-1.45970E-002	-1.29913E-002	6.22704E-004	8.87217E-004	-1.69434E-002	1.04846E-003
	112	112	4.99962E-002	-2.39192E-002	0.00000E+000	-1.19587E-003	-2.36738E-001	4.06011E-002	3.40520E+001	11	...........	6.77322E-002	-5.36986E-003	6.08548E-001	5.41685E-001	-2.59585E-002	-3.69971E-002	7.06470E-001	-4.37156E-002	-1.62010E-003	1.28443E-004	-1.45560E-002	-1.29567E-002	6.20906E-004	8.84941E-004	-1.68982E-002	1.04564E-003
	113	113	4.99946E-002	-2.35726E-002	0.00000E+000	-1.17850E-003	-2.33292E-001	4.05894E-002	3.37012E+001	11	...........	6.77151E-002	-5.25944E-003	6.08537E-001	5.41627E-001	-2.59433E-002	-3.69961E-002	7.06395E-001	-4.36835E-002	-1.59622E-003	1.23979E-004	-1.43448E-002	-1.27676E-002	6.11552E-004	8.72095E-004	-1.66516E-002	1.02973E-003
	114	114	4.99941E-002	-2.30904E-002	0.00000E+000	-1.15438E-003	-2.28507E-001	4.04879E-002	3.30804E+001	11	...........	6.75682E-002	-5.35194E-003	6.08768E-001	5.41590E-001	-2.59458E-002	-3.69990E-002	7.06430E-001	-4.37179E-002	-1.56017E-003	1.23578E-004	-1.40567E-002	-1.25055E-002	5.99099E-004	8.54321E-004	-1.63117E-002	1.00946E-003
	115	115	4.99933E-002	-2.28005E-002	0.00000E+000	-1.13987E-003	-2.25633E-001	4.07288E-002	3.38389E+001	11	...........	6.79946E-002	-5.15319E-003	6.08723E-001	5.41634E-001	-2.59794E-002	-3.70144E-002	7.06459E-001	-4.36753E-002	-1.55031E-003	1.17495E-004	-1.38792E-002	-1.23495E-002	5.92343E-004	8.43946E-004	-1.61076E-002	9.95816E-004
	116	116	4.99960E-002	-2.24709E-002	0.00000E+000	-1.12345E-003	-2.22347E-001	4.04934E-002	3.35346E+001	11	...........	6.75725E-002	-5.16931E-003	6.08438E-001	5.41627E-001	-2.59793E-002	-3.70262E-002	7.06557E-001	-4.36696E-002	-1.51841E-003	1.16159E-004	-1.36721E-002	-1.21708E-002	5.83778E-004	8.32012E-004	-1.58769E-002	9.81294E-004
	117	117	4.99888E-002	-2.23949E-002	0.00000E+000	-1.11949E-003	-2.21595E-001	4.06664E-002	3.30454E+001	11	...........	6.78478E-002	-5.17583E-003	6.08326E-001	5.41660E-001	-2.59807E-002	-3.70086E-002	7.06469E-001	-4.36721E-002	-1.51944E-003	1.15912E-004	-1.36234E-002	-1.21304E-002	5.81834E-004	8.28803E-004	-1.58213E-002	9.78030E-004
	118	118	5.00033E-002	-2.20176E-002	0.00000E+000	-1.10095E-003	-2.17827E-001	4.06618E-002	3.39753E+001	11	...........	6.78519E-002	-5.19111E-003	6.08198E-001	5.41651E-001	-2.59519E-002	-3.70019E-002	7.06535E-001	-4.37237E-002	-1.49394E-003	1.14296E-004	-1.33911E-002	-1.19259E-002	5.71399E-004	8.14694E-004	-1.55562E-002	9.62692E-004
	119	119	4.99956E-002	-2.19182E-002	0.00000E+000	-1.09581E-003	-2.16839E-001	4.06816E-002	3.42146E+001	11	...........	6.78696E-002	-5.16736E-003	6.08189E-001	5.41647E-001	-2.59431E-002	-3.70112E-002	7.06491E-001	-4.37850E-002	-1.48758E-003	1.13259E-004	-1.33304E-002	-1.18719E-002	5.68625E-004	8.11220E-004	-1.54850E-002	9.59688E-004
	120	120	4.99945E-002	-2.17002E-002	0.00000E+000	-1.08489E-003	-2.14679E-001	4.06840E-002	3.42175E+001	11	...........	6.78838E-002	-5.27083E-003	6.08138E-001	5.41782E-001	-2.59614E-002	-3.70169E-002	7.06337E-001	-4.37861E-002	-1.47309E-003	1.14378E-004	-1.31967E-002	-1.17568E-002	5.63367E-004	8.03274E-004	-1.53276E-002	9.50166E-004
	121	121	4.99951E-002	-2.12932E-002	0.00000E+000	-1.06455E-003	-2.10624E-001	4.07008E-002	3.36410E+001	11	...........	6.79157E-002	-5.23014E-003	6.08137E-001	5.41711E-001	-2.59815E-002	-3.70037E-002	7.06464E-001	-4.37819E-002	-1.44614E-003	1.11366E-004	-1.29492E-002	-1.15348E-002	5.53229E-004	7.87927E-004	-1.50429E-002	9.32257E-004
	122	122	4.99958E-002	-2.08450E-002	0.00000E+000	-1.04216E-003	-2.06179E-001	4.05688E-002	3.34595E+001	11	...........	6.77087E-002	-5.21917E-003	6.08221E-001	5.41691E-001	-2.59701E-002	-3.70068E-002	7.06576E-001	-4.37919E-002	-1.41139E-003	1.08794E-004	-1.26784E-002	-1.12916E-002	5.41348E-004	7.71407E-004	-1.47286E-002	9.12844E-004
	123	123	4.99957E-002	-2.09063E-002	0.00000E+000	-1.04522E-003	-2.06779E-001	4.08378E-002	3.40379E+001	11	...........	6.81461E-002	-5.16708E-003	6.08277E-001	5.41838E-001	-2.59481E-002	-3.70250E-002	7.06711E-001	-4.38879E-002	-1.42468E-003	1.08024E-004	-1.27168E-002	-1.13278E-002	5.42477E-004	7.74055E-004	-1.47747E-002	9.17533E-004
	124	124	4.99960E-002	-2.05253E-002	0.00000E+000	-1.02618E-003	-2.02999E-001	4.06115E-002	3.32904E+001	11	...........	6.77807E-002	-5.13903E-003	6.08385E-001	5.41848E-001	-2.59643E-002	-3.70469E-002	7.06615E-001	-4.38594E-002	-1.39122E-003	1.05480E-004	-1.24873E-002	-1.11216E-002	5.32925E-004	7.60399E-004	-1.45035E-002	9.00228E-004
	125	125	4.99942E-002	-2.04481E-002	0.00000E+000	-1.02229E-003	-2.02245E-001	4.08677E-002	3.42546E+001	11	...........	6.82071E-002	-5.18819E-003	6.08433E-001	5.41940E-001	-2.59526E-002	-3.70336E-002	7.06619E-001	-4.38715E-002	-1.39471E-003	1.06089E-004	-1.24413E-002	-1.10816E-002	5.30682E-004	7.57267E-004	-1.44490E-002	8.97089E-004
	126	126	4.99968E-002	-1.99436E-002	0.00000E+000	-9.97115E-004	-1.97216E-001	4.07287E-002	3.37439E+001	11	...........	6.79632E-002	-5.15361E-003	6.08331E-001	5.42092E-001	-2.59336E-002	-3.70189E-002	7.06616E-001	-4.37833E-002	-1.35543E-003	1.02781E-004	-1.21323E-002	-1.08112E-002	5.17209E-004	7.38289E-004	-1.40925E-002	8.73196E-004
	127	127	4.99967E-002	-1.96481E-002	0.00000E+000	-9.82341E-004	-1.94268E-001	4.06271E-002	3.39573E+001	11	...........	6.77828E-002	-5.27361E-003	6.08171E-001	5.42199E-001	-2.59436E-002	-3.70050E-002	7.06699E-001	-4.36499E-002	-1.33180E-003	1.03617E-004	-1.19494E-002	-1.06532E-002	5.09743E-004	7.27079E-004	-1.38853E-002	8.57638E-004
	128	128	4.99953E-002	-1.96987E-002	0.00000E+000	-9.84844E-004	-1.94779E-001	4.08355E-002	3.40699E+001	11	...........	6.81408E-002	-5.28708E-003	6.08301E-001	5.42266E-001	-2.59382E-002	-3.69925E-002	7.06665E-001	-4.35089E-002	-1.34229E-003	1.04149E-004	-1.19827E-002	-1.06819E-002	5.10949E-004	7.28705E-004	-1.39204E-002	8.57069E-004
	129	129	4.99965E-002	-1.94876E-002	0.00000E+000	-9.74311E-004	-1.92669E-001	4.08092E-002	3.44725E+001	11	...........	6.81229E-002	-5.32125E-003	6.08342E-001	5.42169E-001	-2.59468E-002	-3.69789E-002	7.06599E-001	-4.37310E-002	-1.32755E-003	1.03698E-004	-1.18551E-002	-1.05655E-002	5.05640E-004	7.20628E-004	-1.37699E-002	8.52210E-004
	130	130	4.99963E-002	-1.92661E-002	0.00000E+000	-9.63235E-004	-1.90475E-001	4.08134E-002	3.45172E+001	11	...........	6.81076E-002	-5.28514E-003	6.08414E-001	5.41937E-001	-2.59649E-002	-3.70128E-002	7.06682E-001	-4.37274E-002	-1.31217E-003	1.01824E-004	-1.17218E-002	-1.04410E-002	5.00242E-004	7.13092E-004	-1.36150E-002	8.42456E-004
	131	131	4.99949E-002	-1.90278E-002	0.00000E+000	-9.51291E-004	-1.88107E-001	4.08295E-002	3.45554E+001	11	...........	6.81456E-002	-5.33917E-003	6.08386E-001	5.41973E-001	-2.59825E-002	-3.70233E-002	7.06782E-001	-4.37263E-002	-1.29666E-003	1.01592E-004	-1.15762E-002	-1.03125E-002	4.94389E-004	7.04472E-004	-1.34485E-002	8.32013E-004
	132	132	4.99951E-002	-1.86800E-002	0.00000E+000	-9.33910E-004	-1.84648E-001	4.08783E-002	3.37026E+001	11	...........	6.82181E-002	-5.33972E-003	6.08276E-001	5.41903E-001	-2.59990E-002	-3.70372E-002	7.06737E-001	-4.37025E-002	-1.27432E-003	9.97462E-005	-1.13626E-002	-1.01228E-002	4.85663E-004	6.91857E-004	-1.32019E-002	8.16364E-004
	133	133	4.99931E-002	-1.80463E-002	0.00000E+000	-9.02191E-004	-1.78353E-001	4.06128E-002	3.31616E+001	11	...........	6.77768E-002	-5.17556E-003	6.08390E-001	5.41872E-001	-2.59829E-002	-3.70107E-002	7.06727E-001	-4.37985E-002	-1.22312E-003	9.33996E-005	-1.09792E-002	-9.77878E-003	4.68895E-004	6.67906E-004	-1.27538E-002	7.90400E-004
	134	134	5.00000E-002	-1.82942E-002	0.00000E+000	-9.14709E-004	-1.80811E-001	4.10746E-002	3.46084E+001	11	...........	6.85475E-002	-5.14125E-003	6.08493E-001	5.41749E-001	-2.59697E-002	-3.70143E-002	7.06722E-001	-4.38290E-002	-1.25402E-003	9.40551E-005	-1.11319E-002	-9.91086E-003	4.75095E-004	6.77147E-004	-1.29289E-002	8.01817E-004
	135	135	4.99950E-002	-1.81095E-002	0.00000E+000	-9.05385E-004	-1.78987E-001	4.08598E-002	3.43845E+001	11	...........	6.81821E-002	-5.16806E-003	6.08440E-001	5.41702E-001	-2.59572E-002	-3.70329E-002	7.06715E-001	-4.37900E-002	-1.23474E-003	9.35908E-005	-1.10185E-002	-9.80994E-003	4.70072E-004	6.70647E-004	-1.27982E-002	7.93014E-004
	136	136	4.99957E-002	-1.77232E-002	0.00000E+000	-8.86082E-004	-1.75145E-001	4.08177E-002	3.39492E+001	11	...........	6.81353E-002	-5.13181E-003	6.08411E-001	5.41778E-001	-2.59693E-002	-3.70039E-002	7.06624E-001	-4.38153E-002	-1.20757E-003	9.09518E-005	-1.07830E-002	-9.60203E-003	4.60258E-004	6.55826E-004	-1.25236E-002	7.76545E-004
	137	137	4.99968E-002	-1.75149E-002	0.00000E+000	-8.75688E-004	-1.73069E-001	4.09264E-002	3.45040E+001	11	...........	6.82929E-002	-5.22597E-003	6.08475E-001	5.41856E-001	-2.59719E-002	-3.70114E-002	7.06581E-001	-4.38911E-002	-1.19614E-003	9.15322E-005	-1.06574E-002	-9.49053E-003	4.54895E-004	6.48250E-004	-1.23757E-002	7.68747E-004
	138	138	4.99943E-002	-1.73176E-002	0.00000E+000	-8.65781E-004	-1.71105E-001	4.09182E-002	3.39575E+001	11	...........	6.82812E-002	-5.37833E-003	6.08502E-001	5.41858E-001	-2.59651E-002	-3.70111E-002	7.06570E-001	-4.39522E-002	-1.18247E-003	9.31397E-005	-1.05378E-002	-9.38367E-003	4.49653E-004	6.40943E-004	-1.22361E-002	7.61146E-004
	139	139	4.99970E-002	-1.70268E-002	0.00000E+000	-8.51291E-004	-1.68206E-001	4.07977E-002	3.38956E+001	11	...........	6.80747E-002	-5.35028E-003	6.08311E-001	5.41727E-001	-2.59703E-002	-3.70206E-002	7.06536E-001	-4.38960E-002	-1.15910E-003	9.10984E-005	-1.03576E-002	-9.22390E-003	4.42192E-004	6.30343E-004	-1.20301E-002	7.47410E-004
	140	140	4.99982E-002	-1.70172E-002	0.00000E+000	-8.50829E-004	-1.68101E-001	4.09862E-002	3.45941E+001	11	...........	6.83853E-002	-5.25097E-003	6.08278E-001	5.41594E-001	-2.59606E-002	-3.70133E-002	7.06550E-001	-4.38231E-002	-1.16372E-003	8.93567E-005	-1.03512E-002	-9.21640E-003	4.41775E-004	6.29863E-004	-1.20235E-002	7.45745E-004
	141	141	4.99899E-002	-1.67309E-002	0.00000E+000	-8.36374E-004	-1.65247E-001	4.09016E-002	3.41265E+001	11	...........	6.82576E-002	-5.19167E-003	6.08299E-001	5.41603E-001	-2.59732E-002	-3.70064E-002	7.06658E-001	-4.37872E-002	-1.14201E-003	8.68611E-005	-1.01774E-002	-9.06148E-003	4.34554E-004	6.19149E-004	-1.18230E-002	7.32598E-004
	142	142	5.00019E-002	-1.65597E-002	0.00000E+000	-8.28014E-004	-1.63560E-001	4.09813E-002	3.47459E+001	11	...........	6.83811E-002	-5.21944E-003	6.08382E-001	5.41500E-001	-2.60036E-002	-3.70099E-002	7.06621E-001	-4.37381E-002	-1.13237E-003	8.64322E-005	-1.00746E-002	-8.96706E-003	4.30611E-004	6.12871E-004	-1.17014E-002	7.24287E-004
	143	143	4.99922E-002	-1.63144E-002	0.00000E+000	-8.15594E-004	-1.61117E-001	4.09418E-002	3.41142E+001	11	...........	6.83149E-002	-5.35500E-003	6.08297E-001	5.41709E-001	-2.60049E-002	-3.70029E-002	7.06603E-001	-4.37392E-002	-1.11452E-003	8.73637E-005	-9.92401E-003	-8.83766E-003	4.24254E-004	6.03681E-004	-1.15278E-002	7.13579E-004
	144	144	4.99973E-002	-1.59052E-002	0.00000E+000	-7.95216E-004	-1.57048E-001	4.08292E-002	3.36135E+001	11	...........	6.81433E-002	-5.25694E-003	6.08113E-001	5.41865E-001	-2.59807E-002	-3.70206E-002	7.06616E-001	-4.37417E-002	-1.08383E-003	8.36125E-005	-9.67213E-003	-8.61845E-003	4.13227E-004	5.88818E-004	-1.12388E-002	6.95718E-004
	145	145	4.99980E-002	-1.58502E-002	0.00000E+000	-7.92476E-004	-1.56499E-001	4.09788E-002	3.44924E+001	11	...........	6.83879E-002	-5.13319E-003	6.07899E-001	5.41889E-001	-2.59882E-002	-3.70156E-002	7.06646E-001	-4.37762E-002	-1.08396E-003	8.13619E-005	-9.63529E-003	-8.58903E-003	4.11917E-004	5.86702E-004	-1.12004E-002	6.93860E-004
	146	146	4.99971E-002	-1.57815E-002	0.00000E+000	-7.89027E-004	-1.55819E-001	4.09832E-002	3.47502E+001	11	...........	6.84043E-002	-5.22875E-003	6.07920E-001	5.41719E-001	-2.59753E-002	-3.70092E-002	7.06646E-001	-4.37903E-002	-1.07952E-003	8.25173E-005	-9.59387E-003	-8.54912E-003	4.09928E-004	5.84059E-004	-1.11519E-002	6.91074E-004
	147	147	4.99948E-002	-1.55878E-002	0.00000E+000	-7.79310E-004	-1.53901E-001	4.09972E-002	3.44209E+001	11	...........	6.83974E-002	-5.22514E-003	6.08034E-001	5.41791E-001	-2.59556E-002	-3.70344E-002	7.06799E-001	-4.38113E-002	-1.06617E-003	8.14485E-005	-9.47792E-003	-8.44534E-003	4.04590E-004	5.77286E-004	-1.10174E-002	6.82922E-004
	148	148	4.99968E-002	-1.53401E-002	0.00000E+000	-7.66954E-004	-1.51447E-001	4.09884E-002	3.41195E+001	11	...........	6.84067E-002	-5.25986E-003	6.08152E-001	5.41870E-001	-2.59682E-002	-3.70482E-002	7.06873E-001	-4.37865E-002	-1.04936E-003	8.06867E-005	-9.32911E-003	-8.31233E-003	3.98354E-004	5.68322E-004	-1.08435E-002	6.71689E-004
	149	149	4.99969E-002	-1.50690E-002	0.00000E+000	-7.53404E-004	-1.48743E-001	4.09507E-002	3.45208E+001	11	...........	6.83464E-002	-5.36500E-003	6.08343E-001	5.41755E-001	-2.59751E-002	-3.70201E-002	7.06736E-001	-4.37910E-002	-1.02991E-003	8.08454E-005	-9.16714E-003	-8.16373E-003	3.91420E-004	5.57858E-004	-1.06498E-002	6.59888E-004
	150	150	4.99973E-002	-1.50564E-002	0.00000E+000	-7.52780E-004	-1.48623E-001	4.10376E-002	3.44657E+001	11	...........	6.84722E-002	-5.34153E-003	6.08255E-001	5.41807E-001	-2.59683E-002	-3.70097E-002	7.06735E-001	-4.36144E-002	-1.03095E-003	8.04243E-005	-9.15815E-003	-8.15768E-003	3.90990E-004	5.57234E-004	-1.06409E-002	6.56678E-004
	151	151	4.99967E-002	-1.47538E-002	0.00000E+000	-7.37642E-004	-1.45600E-001	4.09246E-002	3.42376E+001	11	...........	6.82776E-002	-5.27472E-003	6.08172E-001	5.41922E-001	-2.59212E-002	-3.69882E-002	7.06796E-001	-4.36153E-002	-1.00736E-003	7.78223E-005	-8.97287E-003	-7.99543E-003	3.82438E-004	5.45717E-004	-1.04279E-002	6.43492E-004
	152	152	4.99973E-002	-1.47188E-002	0.00000E+000	-7.35900E-004	-1.45254E-001	4.11231E-002	3.49108E+001	11	...........	6.86328E-002	-5.15889E-003	6.08067E-001	5.41739E-001	-2.59318E-002	-3.69862E-002	7.06803E-001	-4.36618E-002	-1.01019E-003	7.59327E-005	-8.95002E-003	-7.97376E-003	3.81685E-004	5.44394E-004	-1.04033E-002	6.42650E-004
	153	153	4.99961E-002	-1.45506E-002	0.00000E+000	-7.27472E-004	-1.43577E-001	4.10097E-002	3.46994E+001	11	...........	6.84364E-002	-5.14639E-003	6.08024E-001	5.41695E-001	-2.58982E-002	-3.69735E-002	7.06840E-001	-4.37387E-002	-9.95789E-004	7.48829E-005	-8.84710E-003	-7.88198E-003	3.76834E-004	5.37985E-004	-1.02849E-002	6.36424E-004
	154	154	4.99943E-002	-1.43116E-002	0.00000E+000	-7.15497E-004	-1.41185E-001	4.10610E-002	3.48416E+001	11	...........	6.85274E-002	-5.17847E-003	6.07855E-001	5.41672E-001	-2.58792E-002	-3.69472E-002	7.06926E-001	-4.37540E-002	-9.80733E-004	7.41120E-005	-8.69935E-003	-7.75217E-003	3.70371E-004	5.28772E-004	-1.01172E-002	6.26188E-004
	155	155	4.99970E-002	-1.39420E-002	0.00000E+000	-6.97056E-004	-1.37523E-001	4.09255E-002	3.33204E+001	11	...........	6.83000E-002	-5.14903E-003	6.07860E-001	5.41796E-001	-2.58879E-002	-3.69281E-002	7.06833E-001	-4.37571E-002	-9.52235E-004	7.17875E-005	-8.47475E-003	-7.55369E-003	3.60928E-004	5.14849E-004	-9.85464E-003	6.10059E-004
	156	156	4.99983E-002	-1.39375E-002	0.00000E+000	-6.96851E-004	-1.37481E-001	4.11417E-002	3.47404E+001	11	...........	6.86521E-002	-5.15889E-003	6.07949E-001	5.41860E-001	-2.58772E-002	-3.68958E-002	7.06784E-001	-4.37007E-002	-9.56837E-004	7.19019E-005	-8.47329E-003	-7.55216E-003	3.60663E-004	5.14235E-004	-9.85079E-003	6.09078E-004
	157	157	4.99967E-002	-1.38551E-002	0.00000E+000	-6.92707E-004	-1.36662E-001	4.11034E-002	3.50839E+001	11	...........	6.86062E-002	-5.13847E-003	6.07957E-001	5.41917E-001	-2.58365E-002	-3.69085E-002	7.06752E-001	-4.37635E-002	-9.50544E-004	7.11939E-005	-8.42329E-003	-7.50829E-003	3.57967E-004	5.11369E-004	-9.79209E-003	6.06346E-004
	158	158	4.99952E-002	-1.36478E-002	0.00000E+000	-6.82324E-004	-1.34599E-001	4.10960E-002	3.41827E+001	11	...........	6.85937E-002	-5.22681E-003	6.07912E-001	5.41915E-001	-2.58321E-002	-3.69236E-002	7.06856E-001	-4.38379E-002	-9.36155E-004	7.13345E-005	-8.29666E-003	-7.39596E-003	3.52551E-004	5.03926E-004	-9.64704E-003	5.98292E-004
	159	159	4.99972E-002	-1.32650E-002	0.00000E+000	-6.63211E-004	-1.30800E-001	4.09563E-002	3.41044E+001	11	...........	6.83478E-002	-5.22028E-003	6.08027E-001	5.41727E-001	-2.58346E-002	-3.69342E-002	7.06928E-001	-4.37813E-002	-9.06630E-004	6.92468E-005	-8.06545E-003	-7.18599E-003	3.42695E-004	4.89930E-004	-9.37738E-003	5.80756E-004
	160	160	4.99965E-002	-1.33204E-002	0.00000E+000	-6.65971E-004	-1.31341E-001	4.11809E-002	3.49608E+001	11	...........	6.87187E-002	-5.34861E-003	6.08058E-001	5.41625E-001	-2.58432E-002	-3.69118E-002	7.06922E-001	-4.36537E-002	-9.15358E-004	7.12454E-005	-8.09954E-003	-7.21463E-003	3.44240E-004	4.91678E-004	-9.41645E-003	5.81483E-004
	161	161	4.99970E-002	-1.32107E-002	0.00000E+000	-6.60496E-004	-1.30253E-001	4.10929E-002	3.50887E+001	11	...........	6.85904E-002	-5.27792E-003	6.08137E-001	5.41436E-001	-2.58414E-002	-3.69192E-002	7.06864E-001	-4.36793E-002	-9.06129E-004	6.97251E-005	-8.03392E-003	-7.15276E-003	3.41383E-004	4.87729E-004	-9.33818E-003	5.77035E-004
	162	162	4.99971E-002	-1.30694E-002	0.00000E+000	-6.53432E-004	-1.28851E-001	4.11083E-002	3.48675E+001	11	...........	6.85851E-002	-5.27542E-003	6.08163E-001	5.41349E-001	-2.58446E-002	-3.69169E-002	7.06907E-001	-4.36504E-002	-8.96366E-004	6.89465E-005	-7.94832E-003	-7.07510E-003	3.37773E-004	4.82482E-004	-9.23884E-003	5.70484E-004
	163	163	4.99935E-002	-1.28450E-002	0.00000E+000	-6.42167E-004	-1.26639E-001	4.11159E-002	3.45837E+001	11	...........	6.86051E-002	-5.37139E-003	6.08079E-001	5.41233E-001	-2.58543E-002	-3.69210E-002	7.06891E-001	-4.36881E-002	-8.81234E-004	6.89956E-005	-7.81078E-003	-6.95214E-003	3.32099E-004	4.74250E-004	-9.08003E-003	5.61174E-004
	164	164	4.99994E-002	-1.25503E-002	0.00000E+000	-6.27505E-004	-1.23706E-001	4.11024E-002	3.44258E+001	11	...........	6.85829E-002	-5.33611E-003	6.08046E-001	5.41246E-001	-2.58335E-002	-3.69314E-002	7.06951E-001	-4.37161E-002	-8.60734E-004	6.69696E-005	-7.63113E-003	-6.79279E-003	3.24217E-004	4.63499E-004	-8.87242E-003	5.48649E-004
	165	165	4.99979E-002	-1.24033E-002	0.00000E+000	-6.20138E-004	-1.22237E-001	4.09486E-002	3.42925E+001	11	...........	6.83525E-002	-5.29556E-003	6.08077E-001	5.41328E-001	-2.58571E-002	-3.69385E-002	7.06970E-001	-4.36669E-002	-8.47796E-004	6.56823E-005	-7.54216E-003	-6.71425E-003	3.20713E-004	4.58158E-004	-8.76875E-003	5.41614E-004
	166	166	4.99975E-002	-1.24694E-002	0.00000E+000	-6.23438E-004	-1.22896E-001	4.12448E-002	3.52779E+001	11	...........	6.88365E-002	-5.22653E-003	6.08124E-001	5.41352E-001	-2.58526E-002	-3.69104E-002	7.06969E-001	-4.36968E-002	-8.58349E-004	6.51716E-005	-7.58293E-003	-6.75033E-003	3.22366E-004	4.60250E-004	-8.81547E-003	5.44872E-004
	167	167	4.99962E-002	-1.23305E-002	0.00000E+000	-6.16480E-004	-1.21507E-001	4.11694E-002	3.50827E+001	11	...........	6.87175E-002	-5.20722E-003	6.08242E-001	5.41448E-001	-2.59011E-002	-3.69342E-002	7.06921E-001	-4.37772E-002	-8.47323E-004	6.42078E-005	-7.49994E-003	-6.67634E-003	3.19374E-004	4.55418E-004	-8.71671E-003	5.39796E-004
	168	168	4.99964E-002	-1.20599E-002	0.00000E+000	-6.02952E-004	-1.18814E-001	4.08661E-002	3.43469E+001	11	...........	6.84714E-002	-5.24917E-003	6.08405E-001	5.41433E-001	-2.59162E-002	-3.69440E-002	7.07014E-001	-4.36986E-002	-8.25758E-004	6.33044E-005	-7.33731E-003	-6.52963E-003	3.12547E-004	4.45541E-004	-8.52652E-003	5.27001E-004
	169	169	4.99961E-002	-1.18952E-002	0.00000E+000	-5.94712E-004	-1.17170E-001	4.12827E-002	3.46526E+001	11	...........	6.88792E-002	-5.21014E-003	6.08428E-001	5.41142E-001	-2.59153E-002	-3.69214E-002	7.06993E-001	-4.37326E-002	-8.19329E-004	6.19755E-005	-7.23736E-003	-6.43698E-003	3.08267E-004	4.39186E-004	-8.40980E-003	5.20207E-004
	170	170	4.99975E-002	-1.17380E-002	0.00000E+000	-5.86871E-004	-1.15592E-001	4.10268E-002	3.49427E+001	11	...........	6.84669E-002	-5.14208E-003	6.08362E-001	5.41160E-001	-2.59140E-002	-3.69075E-002	7.06935E-001	-4.36518E-002	-8.03665E-004	6.03578E-005	-7.14096E-003	-6.35214E-003	3.04179E-004	4.33220E-004	-8.29801E-003	5.12385E-004
	171	171	4.99961E-002	-1.16914E-002	0.00000E+000	-5.84523E-004	-1.15126E-001	4.12041E-002	3.44276E+001	11	...........	6.87521E-002	-5.17014E-003	6.08287E-001	5.41201E-001	-2.59112E-002	-3.69075E-002	7.06982E-001	-4.37364E-002	-8.03807E-004	6.04461E-005	-7.11172E-003	-6.32738E-003	3.02938E-004	4.31500E-004	-8.26559E-003	5.11339E-004
	172	172	4.99985E-002	-1.14997E-002	0.00000E+000	-5.74966E-004	-1.13239E-001	4.11718E-002	3.52370E+001	11	...........	6.87029E-002	-5.18778E-003	6.08305E-001	5.41164E-001	-2.59142E-002	-3.69076E-002	7.06899E-001	-4.36692E-002	-7.90060E-004	5.96577E-005	-6.99530E-003	-6.22320E-003	2.98004E-004	4.24425E-004	-8.12910E-003	5.02181E-004
	173	173	4.99966E-002	-1.14265E-002	0.00000E+000	-5.71286E-004	-1.12509E-001	4.12085E-002	3.51110E+001	11	...........	6.87829E-002	-5.15944E-003	6.08259E-001	5.41194E-001	-2.59110E-002	-3.69406E-002	7.06876E-001	-4.36600E-002	-7.85948E-004	5.89544E-005	-6.95027E-003	-6.18395E-003	2.96072E-004	4.22101E-004	-8.07711E-003	4.98881E-004
	174	174	4.99948E-002	-1.12460E-002	0.00000E+000	-5.62244E-004	-1.10713E-001	4.11531E-002	3.46346E+001	11	...........	6.86746E-002	-5.13736E-003	6.08305E-001	5.41124E-001	-2.59143E-002	-3.69671E-002	7.06950E-001	-4.36968E-002	-7.72316E-004	5.77749E-005	-6.84102E-003	-6.08549E-003	2.91433E-004	4.15733E-004	-7.95038E-003	4.91416E-004
	175	175	5.00004E-002	-1.10638E-002	0.00000E+000	-5.53194E-004	-1.08903E-001	4.11661E-002	3.51684E+001	11	...........	6.87072E-002	-5.09917E-003	6.08339E-001	5.41107E-001	-2.59214E-002	-3.69768E-002	7.06888E-001	-4.36871E-002	-7.60163E-004	5.64162E-005	-6.73054E-003	-5.98669E-003	2.86789E-004	4.09104E-004	-7.82086E-003	4.83345E-004
	176	176	4.99971E-002	-1.10470E-002	0.00000E+000	-5.52317E-004	-1.08732E-001	4.12233E-002	3.55059E+001	11	...........	6.87958E-002	-5.22958E-003	6.08387E-001	5.41033E-001	-2.59308E-002	-3.69896E-002	7.06936E-001	-4.36561E-002	-7.59987E-004	5.77712E-005	-6.72084E-003	-5.97679E-003	2.86458E-004	4.08624E-004	-7.80952E-003	4.82269E-004
	177	177	4.99953E-002	-1.08796E-002	0.00000E+000	-5.43931E-004	-1.07067E-001	4.12373E-002	3.53797E+001	11	...........	6.88172E-002	-5.42194E-003	6.08515E-001	5.41103E-001	-2.59386E-002	-3.69919E-002	7.06784E-001	-4.36556E-002	-7.48706E-004	5.89888E-005	-6.62042E-003	-5.88701E-003	2.82203E-004	4.02459E-004	-7.68955E-003	4.74957E-004
	178	178	4.99931E-002	-1.05908E-002	0.00000E+000	-5.29465E-004	-1.04209E-001	4.11432E-002	3.35047E+001	11	...........	6.86447E-002	-5.32653E-003	6.08457E-001	5.41123E-001	-2.59193E-002	-3.70046E-002	7.06788E-001	-4.37889E-002	-7.27001E-004	5.64121E-005	-6.44403E-003	-5.73091E-003	2.74506E-004	3.91907E-004	-7.48543E-003	4.63758E-004
	179	179	5.00018E-002	-1.04787E-002	0.00000E+000	-5.23954E-004	-1.03090E-001	4.12259E-002	3.47473E+001	11	...........	6.88185E-002	-5.23264E-003	6.08291E-001	5.41097E-001	-2.59060E-002	-3.69964E-002	7.06903E-001	-4.37515E-002	-7.21128E-004	5.48312E-005	-6.37409E-003	-5.67000E-003	2.71461E-004	3.87674E-004	-7.40742E-003	4.58459E-004
	180	180	4.99970E-002	-1.04901E-002	0.00000E+000	-5.24471E-004	-1.03192E-001	4.12514E-002	3.53966E+001	11	...........	6.88457E-002	-5.20444E-003	6.08329E-001	5.40959E-001	-2.59496E-002	-3.70031E-002	7.06852E-001	-4.37158E-002	-7.22195E-004	5.45949E-005	-6.38140E-003	-5.67469E-003	2.72212E-004	3.88164E-004	-7.41491E-003	4.58581E-004
	181	181	4.99971E-002	-1.03708E-002	0.00000E+000	-5.18511E-004	-1.02041E-001	4.12787E-002	3.47890E+001	11	...........	6.88787E-002	-5.24153E-003	6.08531E-001	5.40873E-001	-2.59643E-002	-3.70271E-002	7.06712E-001	-4.37112E-002	-7.14330E-004	5.43590E-005	-6.31097E-003	-5.60931E-003	2.69271E-004	3.84002E-004	-7.32919E-003	4.53322E-004
	182	182	4.99967E-002	-1.01287E-002	0.00000E+000	-5.06403E-004	-9.96487E-002	4.11588E-002	3.47928E+001	11	...........	6.86819E-002	-5.22931E-003	6.08648E-001	5.40784E-001	-2.59483E-002	-3.70117E-002	7.06879E-001	-4.37515E-002	-6.95659E-004	5.29661E-005	-6.16482E-003	-5.47744E-003	2.62823E-004	3.74880E-004	-7.15977E-003	4.43146E-004
	183	183	4.99973E-002	-1.00242E-002	0.00000E+000	-5.01184E-004	-9.86133E-002	4.13627E-002	3.40980E+001	11	...........	6.90264E-002	-5.16958E-003	6.08626E-001	5.40706E-001	-2.59212E-002	-3.69933E-002	7.06850E-001	-4.37244E-002	-6.91935E-004	5.18210E-005	-6.10100E-003	-5.42015E-003	2.59840E-004	3.70829E-004	-7.08562E-003	4.38303E-004
	184	184	4.99980E-002	-9.85402E-003	0.00000E+000	-4.92681E-004	-9.69127E-002	4.11061E-002	3.45744E+001	11	...........	6.86071E-002	-5.21111E-003	6.08559E-001	5.40697E-001	-2.59361E-002	-3.70085E-002	7.06858E-001	-4.37757E-002	-6.76055E-004	5.13504E-005	-5.99676E-003	-5.32804E-003	2.55575E-004	3.64682E-004	-6.96539E-003	4.31366E-004
	185	185	4.99982E-002	-9.90397E-003	0.00000E+000	-4.95180E-004	-9.74133E-002	4.13383E-002	3.53914E+001	11	...........	6.89736E-002	-5.22903E-003	6.08519E-001	5.40472E-001	-2.59433E-002	-3.69940E-002	7.06914E-001	-4.38015E-002	-6.83112E-004	5.17881E-005	-6.02675E-003	-5.35282E-003	2.56942E-004	3.66388E-004	-7.00125E-003	4.33809E-004
	186	186	4.99970E-002	-9.80650E-003	0.00000E+000	-4.90295E-004	-9.64440E-002	4.13050E-002	3.54642E+001	11	...........	6.89279E-002	-5.24653E-003	6.08759E-001	5.40407E-001	-2.59349E-002	-3.69951E-002	7.06764E-001	-4.36286E-002	-6.75942E-004	5.14501E-005	-5.96979E-003	-5.29951E-003	2.54330E-004	3.62793E-004	-6.93088E-003	4.27844E-004
	187	187	4.99965E-002	-9.68415E-003	0.00000E+000	-4.84174E-004	-9.52187E-002	4.12783E-002	3.44435E+001	11	...........	6.88796E-002	-5.23875E-003	6.08928E-001	5.40359E-001	-2.59122E-002	-3.69751E-002	7.06666E-001	-4.36490E-002	-6.67040E-004	5.07329E-005	-5.89695E-003	-5.23292E-003	2.50938E-004	3.58073E-004	-6.84346E-003	4.22704E-004
	188	188	4.99982E-002	-9.47543E-003	0.00000E+000	-4.73754E-004	-9.31433E-002	4.12072E-002	3.52620E+001	11	...........	6.87719E-002	-5.21958E-003	6.08964E-001	5.40420E-001	-2.59181E-002	-3.69519E-002	7.06736E-001	-4.36292E-002	-6.51644E-004	4.94578E-005	-5.77019E-003	-5.12071E-003	2.45585E-004	3.50135E-004	-6.69662E-003	4.13405E-004
	189	189	4.99969E-002	-9.47753E-003	0.00000E+000	-4.73847E-004	-9.31580E-002	4.13393E-002	3.55941E+001	11	...........	6.89901E-002	-5.27708E-003	6.08953E-001	5.40300E-001	-2.59097E-002	-3.69624E-002	7.06775E-001	-4.36733E-002	-6.53856E-004	5.00137E-005	-5.77137E-003	-5.12071E-003	2.45560E-004	3.50312E-004	-6.69849E-003	4.13916E-004
	190	190	4.99975E-002	-9.32859E-003	0.00000E+000	-4.66406E-004	-9.16707E-002	4.12495E-002	3.48127E+001	11	...........	6.88393E-002	-5.37694E-003	6.08947E-001	5.40374E-001	-2.59025E-002	-3.69356E-002	7.06748E-001	-4.37307E-002	-6.42174E-004	5.01593E-005	-5.68062E-003	-5.04093E-003	2.41634E-004	3.44557E-004	-6.59297E-003	4.07946E-004
	191	191	4.99979E-002	-9.16396E-003	0.00000E+000	-4.58178E-004	-9.00307E-002	4.11647E-002	3.49549E+001	11	...........	6.87082E-002	-5.30736E-003	6.08992E-001	5.40272E-001	-2.59024E-002	-3.69244E-002	7.06607E-001	-4.37222E-002	-6.29639E-004	4.86364E-005	-5.58078E-003	-4.95103E-003	2.37368E-004	3.38374E-004	-6.47532E-003	4.00669E-004
	192	192	4.99971E-002	-9.17097E-003	0.00000E+000	-4.58522E-004	-9.00980E-002	4.13793E-002	3.52800E+001	11	...........	6.90447E-002	-5.25250E-003	6.09010E-001	5.40288E-001	-2.59175E-002	-3.69361E-002	7.06592E-001	-4.37349E-002	-6.33207E-004	4.81705E-005	-5.58521E-003	-4.95497E-003	2.37688E-004	3.38740E-004	-6.48013E-003	4.01091E-004
	193	193	4.99978E-002	-9.06262E-003	0.00000E+000	-4.53111E-004	-8.90180E-002	4.13247E-002	3.55720E+001	11	...........	6.89628E-002	-5.15458E-003	6.08990E-001	5.40388E-001	-2.58960E-002	-3.69411E-002	7.06632E-001	-4.37800E-002	-6.24983E-004	4.67140E-005	-5.51905E-003	-4.89733E-003	2.34685E-004	3.34783E-004	-6.40394E-003	3.96761E-004
	194	194	4.99970E-002	-8.94303E-003	0.00000E+000	-4.47125E-004	-8.78407E-002	4.13046E-002	3.54374E+001	11	...........	6.89175E-002	-5.15375E-003	6.08994E-001	5.40337E-001	-2.58943E-002	-3.69733E-002	7.06677E-001	-4.37383E-002	-6.16331E-004	4.60901E-005	-5.44625E-003	-4.83225E-003	2.31573E-004	3.30654E-004	-6.31983E-003	3.91153E-004
	195	195	4.99969E-002	-8.78976E-003	0.00000E+000	-4.39461E-004	-8.63187E-002	4.12397E-002	3.50532E+001	11	...........	6.88218E-002	-5.15861E-003	6.08942E-001	5.40330E-001	-2.58332E-002	-3.70072E-002	7.06758E-001	-4.36701E-002	-6.04927E-004	4.53429E-005	-5.35246E-003	-4.74937E-003	2.27068E-004	3.25285E-004	-6.21224E-003	3.83850E-004
	196	196	4.99989E-002	-8.76310E-003	0.00000E+000	-4.38145E-004	-8.60513E-002	4.13629E-002	3.54660E+001	11	...........	6.90072E-002	-5.20236E-003	6.08813E-001	5.40303E-001	-2.58537E-002	-3.69965E-002	7.06881E-001	-4.36531E-002	-6.04717E-004	4.55888E-005	-5.33509E-003	-4.73473E-003	2.26559E-004	3.24204E-004	-6.19447E-003	3.82536E-004
	197	197	4.99979E-002	-8.67892E-003	0.00000E+000	-4.33928E-004	-8.52107E-002	4.13416E-002	3.53624E+001	11	...........	6.89706E-002	-5.33722E-003	6.08813E-001	5.40234E-001	-2.58371E-002	-3.69957E-002	7.06739E-001	-4.36812E-002	-5.98590E-004	4.63213E-005	-5.28384E-003	-4.68865E-003	2.24238E-004	3.21083E-004	-6.13373E-003	3.79106E-004
	198	198	4.99952E-002	-8.40366E-003	0.00000E+000	-4.20142E-004	-8.24720E-002	4.10582E-002	3.37971E+001	11	...........	6.85093E-002	-5.33542E-003	6.08843E-001	5.40181E-001	-2.58068E-002	-3.69896E-002	7.06723E-001	-4.36272E-002	-5.75729E-004	4.48370E-005	-5.11651E-003	-4.53950E-003	2.16872E-004	3.10848E-004	-5.93906E-003	3.66628E-004
	199	199	4.99991E-002	-8.45683E-003	0.00000E+000	-4.22834E-004	-8.29973E-002	4.15456E-002	3.55197E+001	11	...........	6.93229E-002	-5.22542E-003	6.08877E-001	5.40257E-001	-2.58181E-002	-3.69939E-002	7.06776E-001	-4.35686E-002	-5.86252E-004	4.41905E-005	-5.14917E-003	-4.56886E-003	2.18339E-004	3.12851E-004	-5.97709E-003	3.68452E-004
	200	200	4.99969E-002	-8.33350E-003	0.00000E+000	-4.16649E-004	-8.17747E-002	4.13067E-002	3.53598E+001	11	...........	6.89256E-002	-5.22083E-003	6.08805E-001	5.40286E-001	-2.58087E-002	-3.69781E-002	7.06783E-001	-4.36812E-002	-5.74391E-004	4.35078E-005	-5.07348E-003	-4.50247E-003	2.15077E-004	3.08157E-004	-5.88998E-003	3.64018E-004
	201	201	4.99977E-002	-8.19655E-003	0.00000E+000	-4.09808E-004	-8.04167E-002	4.12326E-002	3.46655E+001	11	...........	6.87874E-002	-5.19472E-003	6.08568E-001	5.40311E-001	-2.58047E-002	-3.69608E-002	7.06829E-001	-4.36233E-002	-5.63819E-004	4.25788E-005	-4.98815E-003	-4.42868E-003	2.11510E-004	3.02951E-004	-5.79356E-003	3.57561E-004
	202	202	4.99989E-002	-8.15657E-003	0.00000E+000	-4.07819E-004	-8.00147E-002	4.13637E-002	3.55445E+001	11	...........	6.90237E-002	-5.13458E-003	6.08539E-001	5.40303E-001	-2.57937E-002	-3.69640E-002	7.06924E-001	-4.35774E-002	-5.62997E-004	4.18806E-005	-4.96359E-003	-4.40702E-003	2.10388E-004	3.01500E-004	-5.76608E-003	3.55442E-004
	203	203	4.99971E-002	-8.12359E-003	0.00000E+000	-4.06156E-004	-7.96860E-002	4.14273E-002	3.53491E+001	11	...........	6.91287E-002	-5.24403E-003	6.08456E-001	5.40239E-001	-2.57596E-002	-3.69329E-002	7.06979E-001	-4.36131E-002	-5.61573E-004	4.26003E-005	-4.94284E-003	-4.38868E-003	2.09260E-004	3.00028E-004	-5.74320E-003	3.54294E-004
	204	204	4.99969E-002	-7.92324E-003	0.00000E+000	-3.96137E-004	-7.77007E-002	4.12759E-002	3.49091E+001	11	...........	6.88855E-002	-5.17528E-003	6.08267E-001	5.40275E-001	-2.57879E-002	-3.69057E-002	7.06910E-001	-4.36221E-002	-5.45797E-004	4.10050E-005	-4.81945E-003	-4.28073E-003	2.04324E-004	2.92413E-004	-5.60102E-003	3.45628E-004
	205	205	4.99978E-002	-7.88943E-003	0.00000E+000	-3.94454E-004	-7.73627E-002	4.14014E-002	3.50593E+001	11	...........	6.90872E-002	-5.14694E-003	6.08103E-001	5.40411E-001	-2.58032E-002	-3.69156E-002	7.06889E-001	-4.36632E-002	-5.45059E-004	4.06065E-005	-4.79759E-003	-4.26354E-003	2.03573E-004	2.91243E-004	-5.57696E-003	3.44478E-004
	206	206	4.99978E-002	-7.83034E-003	0.00000E+000	-3.91500E-004	-7.67867E-002	4.13609E-002	3.51517E+001	11	...........	6.90118E-002	-5.28986E-003	6.07936E-001	5.40527E-001	-2.57864E-002	-3.69232E-002	7.06901E-001	-4.37649E-002	-5.40386E-004	4.14214E-005	-4.76035E-003	-4.23251E-003	2.01916E-004	2.89121E-004	-5.53527E-003	3.42694E-004
	207	207	4.99978E-002	-7.69173E-003	0.00000E+000	-3.84570E-004	-7.54187E-002	4.13270E-002	3.53345E+001	11	...........	6.89671E-002	-5.21819E-003	6.07973E-001	5.40529E-001	-2.57933E-002	-3.68850E-002	7.06869E-001	-4.37319E-002	-5.30477E-004	4.01370E-005	-4.67637E-003	-4.15760E-003	1.98395E-004	2.83710E-004	-5.43705E-003	3.36375E-004
	208	208	4.99972E-002	-7.61577E-003	0.00000E+000	-3.80767E-004	-7.46627E-002	4.14442E-002	3.43661E+001	11	...........	6.91642E-002	-5.20556E-003	6.08004E-001	5.40393E-001	-2.58181E-002	-3.69037E-002	7.06912E-001	-4.36571E-002	-5.26739E-004	3.96443E-005	-4.63042E-003	-4.11551E-003	1.96624E-004	2.81051E-004	-5.38368E-003	3.32482E-004
	209	209	4.99979E-002	-7.45407E-003	0.00000E+000	-3.72688E-004	-7.30460E-002	4.12514E-002	3.48481E+001	11	...........	6.88390E-002	-5.16333E-003	6.07865E-001	5.40407E-001	-2.58433E-002	-3.69011E-002	7.07000E-001	-4.36039E-002	-5.13131E-004	3.84878E-005	-4.53107E-003	-4.02823E-003	1.92638E-004	2.75063E-004	-5.27003E-003	3.25026E-004
	210	210	4.99978E-002	-7.44922E-003	0.00000E+000	-3.72445E-004	-7.29993E-002	4.13384E-002	3.54117E+001	11	...........	6.89785E-002	-5.22694E-003	6.07836E-001	5.40623E-001	-2.58296E-002	-3.68940E-002	7.06975E-001	-4.37051E-002	-5.13836E-004	3.89367E-005	-4.52790E-003	-4.02722E-003	1.92410E-004	2.74832E-004	-5.26641E-003	3.25569E-004
	211	211	4.99978E-002	-7.42009E-003	0.00000E+000	-3.70988E-004	-7.27113E-002	4.14837E-002	3.56867E+001	11	...........	6.92180E-002	-5.15639E-003	6.07821E-001	5.40718E-001	-2.58172E-002	-3.69176E-002	7.06893E-001	-4.37385E-002	-5.13604E-004	3.82609E-005	-4.51008E-003	-4.01217E-003	1.91566E-004	2.73932E-004	-5.24521E-003	3.24543E-004
	212	212	4.99978E-002	-7.28456E-003	0.00000E+000	-3.64212E-004	-7.13607E-002	4.14127E-002	3.53890E+001	11	...........	6.90906E-002	-5.14611E-003	6.07805E-001	5.40771E-001	-2.58510E-002	-3.69225E-002	7.06898E-001	-4.37531E-002	-5.03294E-004	3.74871E-005	-4.42759E-003	-3.93928E-003	1.88313E-004	2.68964E-004	-5.14944E-003	3.18722E-004
	213	213	4.99974E-002	-7.15024E-003	0.00000E+000	-3.57494E-004	-7.00193E-002	4.12167E-002	3.45396E+001	11	...........	6.87671E-002	-5.10028E-003	6.07679E-001	5.40855E-001	-2.58599E-002	-3.68983E-002	7.06810E-001	-4.37099E-002	-4.91701E-004	3.64682E-005	-4.34505E-003	-3.86724E-003	1.84904E-004	2.63832E-004	-5.05386E-003	3.12536E-004
	214	214	4.99982E-002	-7.15820E-003	0.00000E+000	-3.57897E-004	-7.00993E-002	4.15113E-002	3.46850E+001	11	...........	6.92743E-002	-5.15847E-003	6.07633E-001	5.40951E-001	-2.58490E-002	-3.68942E-002	7.06687E-001	-4.37596E-002	-4.95879E-004	3.69254E-005	-4.34956E-003	-3.87223E-003	1.85032E-004	2.64096E-004	-5.05860E-003	3.13240E-004
	215	215	4.99979E-002	-7.01505E-003	0.00000E+000	-3.50738E-004	-6.86733E-002	4.13783E-002	3.56068E+001	11	...........	6.90667E-002	-5.20819E-003	6.07626E-001	5.40963E-001	-2.58864E-002	-3.68846E-002	7.06592E-001	-4.37596E-002	-4.84506E-004	3.65357E-005	-4.26253E-003	-3.79488E-003	1.81594E-004	2.58747E-004	-4.95678E-003	3.06976E-004
	216	216	4.99977E-002	-7.00510E-003	0.00000E+000	-3.50239E-004	-6.85787E-002	4.14532E-002	3.57287E+001	11	...........	6.91736E-002	-5.25389E-003	6.07800E-001	5.41094E-001	-2.58801E-002	-3.69179E-002	7.06595E-001	-4.37814E-002	-4.84568E-004	3.68040E-005	-4.25770E-003	-3.79042E-003	1.81293E-004	2.58614E-004	-4.94977E-003	3.06693E-004
	217	217	4.99968E-002	-6.91793E-003	0.00000E+000	-3.45875E-004	-6.77093E-002	4.14437E-002	3.56993E+001	11	...........	6.91429E-002	-5.19708E-003	6.07830E-001	5.41167E-001	-2.58850E-002	-3.69401E-002	7.06655E-001	-4.37129E-002	-4.78326E-004	3.59531E-005	-4.20493E-003	-3.74376E-003	1.79071E-004	2.55549E-004	-4.88859E-003	3.02403E-004
	218	218	4.99966E-002	-6.75429E-003	0.00000E+000	-3.37691E-004	-6.60720E-002	4.13059E-002	3.39752E+001	11	...........	6.89350E-002	-5.12083E-003	6.07740E-001	5.41293E-001	-2.58800E-002	-3.69108E-002	7.06604E-001	-4.36965E-002	-4.65607E-004	3.45876E-005	-4.10485E-003	-3.65605E-003	1.74801E-004	2.49306E-004	-4.77261E-003	2.95139E-004
	219	219	4.99998E-002	-6.75645E-003	0.00000E+000	-3.37821E-004	-6.60933E-002	4.15282E-002	3.51485E+001	11	...........	6.92937E-002	-5.15375E-003	6.07902E-001	5.41393E-001	-2.59285E-002	-3.69304E-002	7.06609E-001	-4.37336E-002	-4.68180E-004	3.48211E-005	-4.10726E-003	-3.65789E-003	1.75184E-004	2.49519E-004	-4.77417E-003	2.95484E-004
	220	220	4.99982E-002	-6.68732E-003	0.00000E+000	-3.34354E-004	-6.53967E-002	4.13748E-002	3.50668E+001	11	...........	6.90335E-002	-5.17639E-003	6.07975E-001	5.41383E-001	-2.59226E-002	-3.69322E-002	7.06588E-001	-4.37426E-002	-4.61649E-004	3.46162E-005	-4.06572E-003	-3.62040E-003	1.73353E-004	2.46978E-004	-4.72518E-003	2.92521E-004
	221	221	4.99976E-002	-6.65148E-003	0.00000E+000	-3.32558E-004	-6.50427E-002	4.14909E-002	3.51437E+001	11	...........	6.92287E-002	-5.20458E-003	6.07839E-001	5.41293E-001	-2.59283E-002	-3.69558E-002	7.06595E-001	-4.37687E-002	-4.60474E-004	3.46182E-005	-4.04303E-003	-3.60040E-003	1.72462E-004	2.45811E-004	-4.69991E-003	2.91127E-004
	222	222	4.99971E-002	-6.56431E-003	0.00000E+000	-3.28197E-004	-6.41667E-002	4.14597E-002	3.55655E+001	11	...........	6.91931E-002	-5.19889E-003	6.07815E-001	5.41225E-001	-2.59501E-002	-3.69900E-002	7.06471E-001	-4.37332E-002	-4.54205E-004	3.41271E-005	-3.98988E-003	-3.55277E-003	1.70345E-004	2.42814E-004	-4.63749E-003	2.87078E-004
	223	223	4.99957E-002	-6.46090E-003	0.00000E+000	-3.23017E-004	-6.31527E-002	4.14027E-002	3.44046E+001	11	...........	6.90939E-002	-5.16764E-003	6.07917E-001	5.41127E-001	-2.59674E-002	-3.70135E-002	7.06562E-001	-4.38194E-002	-4.46409E-004	3.33876E-005	-3.92769E-003	-3.49617E-003	1.67772E-004	2.39140E-004	-4.56503E-003	2.83113E-004
	224	224	5.00012E-002	-6.39590E-003	0.00000E+000	-3.19803E-004	-6.25100E-002	4.14017E-002	3.52934E+001	11	...........	6.90890E-002	-5.07431E-003	6.08061E-001	5.41059E-001	-2.59549E-002	-3.70187E-002	7.06599E-001	-4.38356E-002	-4.41887E-004	3.24548E-005	-3.88910E-003	-3.46056E-003	1.66005E-004	2.36768E-004	-4.51934E-003	2.80368E-004
	225	225	4.99978E-002	-6.38152E-003	0.00000E+000	-3.19062E-004	-6.23680E-002	4.14355E-002	3.54790E+001	11	...........	6.91460E-002	-5.17403E-003	6.08178E-001	5.41078E-001	-2.59690E-002	-3.70017E-002	7.06555E-001	-4.37342E-002	-4.41256E-004	3.30181E-005	-3.88109E-003	-3.45290E-003	1.65722E-004	2.36127E-004	-4.50889E-003	2.79090E-004
	226	226	4.99976E-002	-6.34389E-003	0.00000E+000	-3.17179E-004	-6.19933E-002	4.15066E-002	3.57815E+001	11	...........	6.92599E-002	-5.19361E-003	6.08225E-001	5.41054E-001	-2.59707E-002	-3.70331E-002	7.06585E-001	-4.37444E-002	-4.39377E-004	3.29477E-005	-3.85851E-003	-3.43239E-003	1.64755E-004	2.34934E-004	-4.48250E-003	2.77510E-004
	227	227	4.99985E-002	-6.26521E-003	0.00000E+000	-3.13251E-004	-6.12087E-002	4.14178E-002	3.54576E+001	11	...........	6.90871E-002	-5.28000E-003	6.08167E-001	5.40897E-001	-2.59765E-002	-3.70036E-002	7.06681E-001	-4.37592E-002	-4.32845E-004	3.30803E-005	-3.81029E-003	-3.38884E-003	1.62748E-004	2.31836E-004	-4.42751E-003	2.74161E-004
	228	228	4.99976E-002	-6.11916E-003	0.00000E+000	-3.05943E-004	-5.97540E-002	4.13706E-002	3.47703E+001	11	...........	6.90394E-002	-5.26972E-003	6.08171E-001	5.40874E-001	-2.59728E-002	-3.69943E-002	7.06678E-001	-4.37540E-002	-4.22464E-004	3.22463E-005	-3.72150E-003	-3.30970E-003	1.58932E-004	2.26374E-004	-4.32428E-003	2.67738E-004
	229	229	4.99980E-002	-6.10204E-003	0.00000E+000	-3.05090E-004	-5.95820E-002	4.15029E-002	3.50570E+001	11	...........	6.92358E-002	-5.30042E-003	6.08095E-001	5.40925E-001	-2.59457E-002	-3.69978E-002	7.06514E-001	-4.37563E-002	-4.22480E-004	3.23434E-005	-3.71062E-003	-3.30075E-003	1.58322E-004	2.25762E-004	-4.31118E-003	2.67003E-004
	230	230	4.99984E-002	-6.05688E-003	0.00000E+000	-3.02834E-004	-5.91347E-002	4.14223E-002	3.55447E+001	11	...........	6.91372E-002	-5.42500E-003	6.07955E-001	5.40951E-001	-2.59629E-002	-3.70015E-002	7.06730E-001	-4.38168E-002	-4.18756E-004	3.28586E-005	-3.68231E-003	-3.27647E-003	1.57254E-004	2.24114E-004	-4.28058E-003	2.65393E-004
	231	231	4.99979E-002	-6.02196E-003	0.00000E+000	-3.01085E-004	-5.87887E-002	4.15353E-002	3.57158E+001	11	...........	6.92990E-002	-5.31486E-003	6.08110E-001	5.40917E-001	-2.59506E-002	-3.69975E-002	7.06833E-001	-4.38500E-002	-4.17316E-004	3.20059E-005	-3.66201E-003	-3.25738E-003	1.56273E-004	2.22797E-004	-4.25652E-003	2.64063E-004
	232	232	4.99978E-002	-5.95445E-003	0.00000E+000	-2.97710E-004	-5.81140E-002	4.14818E-002	3.57620E+001	11	...........	6.92255E-002	-5.33681E-003	6.08264E-001	5.40917E-001	-2.59090E-002	-3.69929E-002	7.06876E-001	-4.37660E-002	-4.12200E-004	3.17777E-005	-3.62188E-003	-3.22086E-003	1.54274E-004	2.20273E-004	-4.20906E-003	2.60602E-004
	233	233	4.99976E-002	-5.86654E-003	0.00000E+000	-2.93313E-004	-5.72413E-002	4.15077E-002	3.40584E+001	11	...........	6.92680E-002	-5.20639E-003	6.08368E-001	5.40758E-001	-2.59029E-002	-3.69978E-002	7.06833E-001	-4.37749E-002	-4.06364E-004	3.05435E-005	-3.56902E-003	-3.17238E-003	1.51961E-004	2.17049E-004	-4.14667E-003	2.56807E-004
	234	234	4.99981E-002	-5.73099E-003	0.00000E+000	-2.86539E-004	-5.58900E-002	4.13320E-002	3.49564E+001	11	...........	6.89810E-002	-5.08028E-003	6.08370E-001	5.40707E-001	-2.59139E-002	-3.70351E-002	7.06699E-001	-4.38000E-002	-3.95329E-004	2.91150E-005	-3.48656E-003	-3.09879E-003	1.48512E-004	2.12248E-004	-4.05009E-003	2.51017E-004
	235	235	4.99978E-002	-5.77233E-003	0.00000E+000	-2.88604E-004	-5.63040E-002	4.15465E-002	3.55089E+001	11	...........	6.93533E-002	-5.21569E-003	6.08391E-001	5.40668E-001	-2.58776E-002	-3.70512E-002	7.06577E-001	-4.37776E-002	-4.00330E-004	3.01067E-005	-3.51183E-003	-3.12091E-003	1.49374E-004	2.13872E-004	-4.07859E-003	2.52699E-004
	236	236	4.99987E-002	-5.70782E-003	0.00000E+000	-2.85383E-004	-5.56647E-002	4.15143E-002	3.57261E+001	11	...........	6.92740E-002	-5.14806E-003	6.08404E-001	5.40704E-001	-2.58758E-002	-3.70203E-002	7.06624E-001	-4.37787E-002	-3.95403E-004	2.93841E-005	-3.47266E-003	-3.08624E-003	1.47694E-004	2.11305E-004	-4.03328E-003	2.49881E-004
	237	237	4.99976E-002	-5.65925E-003	0.00000E+000	-2.82949E-004	-5.51800E-002	4.15293E-002	3.57898E+001	11	...........	6.93071E-002	-5.13903E-003	6.08477E-001	5.40782E-001	-2.58710E-002	-3.69858E-002	7.06598E-001	-4.38012E-002	-3.92226E-004	2.90830E-005	-3.44353E-003	-3.06042E-003	1.46410E-004	2.09312E-004	-3.99882E-003	2.47882E-004
	238	238	4.99959E-002	-5.51525E-003	0.00000E+000	-2.75740E-004	-5.37473E-002	4.14789E-002	3.40805E+001	11	...........	6.92230E-002	-5.13069E-003	6.08335E-001	5.40815E-001	-2.59194E-002	-3.70162E-002	7.06515E-001	-4.38031E-002	-3.81782E-004	2.82970E-005	-3.35512E-003	-2.98273E-003	1.42952E-004	2.04154E-004	-3.89660E-003	2.41585E-004
	239	239	5.00002E-002	-5.47595E-003	0.00000E+000	-2.73798E-004	-5.33593E-002	4.14957E-002	3.51112E+001	11	...........	6.92274E-002	-5.18903E-003	6.08273E-001	5.40871E-001	-2.58978E-002	-3.70129E-002	7.06477E-001	-4.38117E-002	-3.79085E-004	2.84148E-005	-3.33087E-003	-2.96178E-003	1.41815E-004	2.02681E-004	-3.86863E-003	2.39910E-004
	240	240	4.99980E-002	-5.48137E-003	0.00000E+000	-2.74057E-004	-5.34107E-002	4.15035E-002	3.52986E+001	11	...........	6.92508E-002	-5.29736E-003	6.08274E-001	5.40994E-001	-2.58946E-002	-3.70424E-002	7.06501E-001	-4.39119E-002	-3.79589E-004	2.90368E-005	-3.33418E-003	-2.96539E-003	1.41938E-004	2.03043E-004	-3.87259E-003	2.40698E-004
	241	241	4.99984E-002	-5.43367E-003	0.00000E+000	-2.71675E-004	-5.29367E-002	4.15191E-002	3.50265E+001	11	...........	6.93075E-002	-5.26250E-003	6.08426E-001	5.40926E-001	-2.58651E-002	-3.70611E-002	7.06658E-001	-4.38365E-002	-3.76594E-004	2.85947E-005	-3.30599E-003	-2.93921E-003	1.40543E-004	2.01378E-004	-3.83975E-003	2.38193E-004
	242	242	4.99983E-002	-5.35334E-003	0.00000E+000	-2.67658E-004	-5.21407E-002	4.14749E-002	3.55475E+001	11	...........	6.92183E-002	-5.30056E-003	6.08282E-001	5.41001E-001	-2.58640E-002	-3.70647E-002	7.06663E-001	-4.37553E-002	-3.70549E-004	2.83757E-005	-3.25634E-003	-2.89616E-003	1.38459E-004	1.98420E-004	-3.78301E-003	2.34237E-004
	243	243	4.99978E-002	-5.33189E-003	0.00000E+000	-2.66583E-004	-5.19253E-002	4.15400E-002	3.56692E+001	11	...........	6.93286E-002	-5.36931E-003	6.08303E-001	5.41050E-001	-2.58657E-002	-3.70433E-002	7.06590E-001	-4.37107E-002	-3.69653E-004	2.86286E-005	-3.24341E-003	-2.88482E-003	1.37913E-004	1.97511E-004	-3.76746E-003	2.33061E-004
	244	244	4.99981E-002	-5.28368E-003	0.00000E+000	-2.64174E-004	-5.14480E-002	4.15118E-002	3.57129E+001	11	...........	6.92778E-002	-5.16625E-003	6.08371E-001	5.40947E-001	-2.58676E-002	-3.70576E-002	7.06532E-001	-4.36826E-002	-3.66042E-004	2.72968E-005	-3.21443E-003	-2.85819E-003	1.36676E-004	1.95801E-004	-3.73309E-003	2.30805E-004
	245	245	4.99979E-002	-5.22679E-003	0.00000E+000	-2.61329E-004	-5.08953E-002	4.14999E-002	3.49837E+001	11	...........	6.92464E-002	-5.14222E-003	6.08329E-001	5.40958E-001	-2.58868E-002	-3.70606E-002	7.06639E-001	-4.37139E-002	-3.61937E-004	2.68773E-005	-3.17961E-003	-2.82747E-003	1.35305E-004	1.93708E-004	-3.69346E-003	2.28483E-004
	246	246	4.99982E-002	-5.14734E-003	0.00000E+000	-2.57358E-004	-5.01093E-002	4.14704E-002	3.56712E+001	11	...........	6.92133E-002	-5.16833E-003	6.08346E-001	5.41009E-001	-2.58949E-002	-3.70347E-002	7.06648E-001	-4.37857E-002	-3.56265E-004	2.66032E-005	-3.13136E-003	-2.78476E-003	1.33290E-004	1.90630E-004	-3.63736E-003	2.25380E-004
	247	247	4.99975E-002	-5.11790E-003	0.00000E+000	-2.55882E-004	-4.98160E-002	4.15123E-002	3.52559E+001	11	...........	6.92853E-002	-5.29069E-003	6.08363E-001	5.41030E-001	-2.59053E-002	-3.69962E-002	7.06652E-001	-4.37481E-002	-3.54595E-004	2.70773E-005	-3.11354E-003	-2.76894E-003	1.32581E-004	1.89343E-004	-3.61658E-003	2.23898E-004
	248	248	4.99988E-002	-5.07372E-003	0.00000E+000	-2.53680E-004	-4.93767E-002	4.15076E-002	3.49283E+001	11	...........	6.92597E-002	-5.19556E-003	6.08385E-001	5.41063E-001	-2.59371E-002	-3.70069E-002	7.06592E-001	-4.37310E-002	-3.51404E-004	2.63608E-005	-3.08677E-003	-2.74520E-003	1.31597E-004	1.87763E-004	-3.58505E-003	2.21879E-004
	249	248.248	4.99978E-002	-5.05706E-003	0.00000E+000	-2.52842E-004	-4.92174E-002	4.15403E-002	3.42064E+001	11	...........	6.93434E-002	-5.07271E-003	6.08344E-001	5.41232E-001	-2.59838E-002	-3.69726E-002	7.06627E-001	-4.37494E-002	-3.50674E-004	2.56530E-005	-3.07643E-003	-2.73705E-003	1.31402E-004	1.86973E-004	-3.57346E-003	2.21244E-004
STARTTIMEOFFSET	QUANT	652908.8	Start Time Offset (s)
