EXPLAIN
TAG	PWR800_DISCHARGE
TITLE	LABEL	PWR Discharge	Test Identifier
DATE	LABEL	10/14/2022	Date
TIME	LABEL	16:18:20	Time
NOTES	NOTES	1	Notes...
	
PSTAT	PSTAT	REF3000-21114	Potentiostat
CAPACITY	QUANT	5.30000E-002	Capacity (A-hr)
CELLTYPE	SELECTOR	1	Cell Type
WORKINGCONNECTION	SELECTOR	0	Working Connection
MAXDISCHARGETIME	VARIABLEANDUNITS	7.20000E+003	s	2.00000E+000	hour(s)	Max Discharge Time
DISCHARGEMODE	MULTIPARAM	0	1.00000E-001	Discharge Mode	Constant Current	Amp(s)
VOLTAGEFINISH	TWOPARAM	T	5.00000E-003	7.20000E+003	Voltage Finish	I (A) <	Max Time(s)
SAMPLETIME	QUANT	1.00000E+000	Sample Period (s)
DISCHARGESTOPAT1	MULTIPARAM	1	5.00000E-002	Stop At 1	|Voltage| < Limit	V
DISCHARGESTOPAT2	MULTIPARAM	0	0.00000E+000	Stop At 2	None	N/A
AESELECTOR	AESELECTOR	0x1	T	Set Limits	AE Channels
AESBHCSELECTOR	TOGGLE	F	Save Both Half Cells
IRCOMP	TOGGLE	F	IR Measure
EOC	QUANT	0.5720067	Open Circuit (V)
SEQUENCER	TOGGLE	TRUE	Run as Sequence
PSTATMODEL	IQUANT	5	Pstat Model
PSTATSECTION	LABEL	REF3000-21114	Pstat Section
PSTATSERIALNO	LABEL	21114	Pstat Serial Number
CTRLMODE	IQUANT	0	Control Mode
ELECTROMETER	IQUANT	0	RE=0 or CS=1
IESTAB	IQUANT	0	I/E Stability
CASPEED	IQUANT	4	Control Amp Speed
CONVENTION	IQUANT	1	Current Convention
ICHRANGE	IQUANT	2	Ich Range
ICHRANGEMODE	TOGGLE	T	Ich Auto Range
ICHOFFSETENABLE	TOGGLE	F	Ich Offset Enable
ICHOFFSET	QUANT	0	Ich Offset (V)
ICHFILTER	IQUANT	1	Ich Filter
VCHRANGE	IQUANT	3	Vch Range
VCHRANGEMODE	TOGGLE	T	Vch Auto Range
VCHOFFSETENABLE	TOGGLE	F	Vch Offset Enable
VCHOFFSET	QUANT	0	Vch Offset (V)
VCHFILTER	IQUANT	1	Vch Filter
ACHRANGE	IQUANT	2	Ach Range
ACHOFFSETENABLE	TOGGLE	F	Ach Offset Enable
ACHOFFSET	QUANT	0	Ach Offset (V)
ACHFILTER	IQUANT	1	Ach Filter
IERANGELOWERLIMIT	IQUANT	9	I/E Range Lower Limit
IERANGEMODE	TOGGLE	F	I/E AutoRange
IERANGE	IQUANT	9	I/E Range
POSFEEDENABLE	TOGGLE	F	Positive Feedback IR Comp
POSFEEDRESISTANCE	QUANT	0	Positive Feedback Resistance (ohm)
ACHSELECT	IQUANT	1	Ach Select
SENSECABLEID	IQUANT	13	Sense Cable ID
PWRCABLEID	IQUANT	13	Power Cable ID
DCCALDATE	LABEL		DC Calibration Date
ACCALDATE	LABEL		AC Calibration Date
THERMOSELECT	IQUANT	1	Thermo Select
FRAMEWORKVERSION	LABEL	7.8.6	Framework Version
INSTRUMENTVERSION	LABEL	4.50	Instrument Version
COMPLIANCEVOLTAGE	IQUANT	0	Compliance Voltage
CURVE	TABLE	242
	Pt	T	Vf	Im	Vu	Pwr	Sig	Ach	Temp	IERange	Over	Vf1	Vf2	Vf3	Vf4	Vf5	Vf6	Vf7	Vf8	Pwr1	Pwr2	Pwr3	Pwr4	Pwr5	Pwr6	Pwr7	Pwr8
	#	s	V	A	V	W	V	V	deg C	#	bits	V	V	V	V	V	V	V	V	W	W	W	W	W	W	W	W
	0	1	3.47599E-001	-1.00083E-001	0.00000E+000	-3.47887E-002	-9.94000E-001	3.62883E-002	3.18003E+001	11	...........	6.02611E-002	-5.49708E-003	6.11179E-001	5.27282E-001	-2.57682E-002	-3.68185E-002	7.08404E-001	-4.38854E-002	-6.03110E-003	5.50163E-004	-6.11684E-002	-5.27718E-002	2.57895E-003	3.68489E-003	-7.08990E-002	4.39217E-003
	1	2	2.61463E-001	-1.00083E-001	0.00000E+000	-2.61679E-002	-9.94000E-001	3.64554E-002	3.12906E+001	11	...........	6.05540E-002	-5.48097E-003	6.11112E-001	5.27231E-001	-2.57592E-002	-3.68518E-002	7.08483E-001	-4.38783E-002	-6.06041E-003	5.48550E-004	-6.11617E-002	-5.27666E-002	2.57805E-003	3.68823E-003	-7.09069E-002	4.39146E-003
	2	3	1.97589E-001	-1.00083E-001	0.00000E+000	-1.97753E-002	-9.94000E-001	3.64496E-002	3.07875E+001	11	...........	6.05261E-002	-5.53014E-003	6.11046E-001	5.27217E-001	-2.57346E-002	-3.68615E-002	7.08494E-001	-4.39499E-002	-6.05764E-003	5.53473E-004	-6.11553E-002	-5.27655E-002	2.57560E-003	3.68921E-003	-7.09083E-002	4.39864E-003
	3	4	1.46073E-001	-1.00083E-001	0.00000E+000	-1.46194E-002	-9.94000E-001	3.63323E-002	3.01447E+001	11	...........	6.03589E-002	-5.51264E-003	6.11050E-001	5.27165E-001	-2.57362E-002	-3.68589E-002	7.08522E-001	-4.38785E-002	-6.04089E-003	5.51721E-004	-6.11556E-002	-5.27602E-002	2.57576E-003	3.68894E-003	-7.09109E-002	4.39148E-003
	4	5	1.03799E-001	-1.00083E-001	0.00000E+000	-1.03885E-002	-9.94000E-001	3.62841E-002	2.87290E+001	11	...........	6.02728E-002	-5.41389E-003	6.10959E-001	5.27142E-001	-2.57689E-002	-3.68326E-002	7.08461E-001	-4.38721E-002	-6.03226E-003	5.41836E-004	-6.11464E-002	-5.27577E-002	2.57902E-003	3.68631E-003	-7.09047E-002	4.39084E-003
	5	6	6.99563E-002	-1.00083E-001	0.00000E+000	-7.00143E-003	-9.94000E-001	3.63156E-002	2.87255E+001	11	...........	6.03389E-002	-5.34792E-003	6.10987E-001	5.27029E-001	-2.57422E-002	-3.68219E-002	7.08533E-001	-4.38982E-002	-6.03889E-003	5.35235E-004	-6.11494E-002	-5.27466E-002	2.57636E-003	3.68525E-003	-7.09120E-002	4.39346E-003
	6	6.28	5.30134E-002	-1.00083E-001	0.00000E+000	-5.30574E-003	-9.94000E-001	3.62670E-002	2.89868E+001	11	...........	6.02098E-002	-5.39831E-003	6.11038E-001	5.26979E-001	-2.57614E-002	-3.68368E-002	7.08471E-001	-4.38894E-002	-6.02598E-003	5.40279E-004	-6.11544E-002	-5.27416E-002	2.57828E-003	3.68674E-003	-7.09058E-002	4.39258E-003
	7	7	4.97709E-002	-9.36438E-002	0.00000E+000	-4.66073E-003	-9.29964E-001	3.64530E-002	2.91825E+001	11	...........	6.05671E-002	-5.46740E-003	6.11087E-001	5.26965E-001	-2.57473E-002	-3.68152E-002	7.08463E-001	-4.39819E-002	-5.67173E-003	5.11988E-004	-5.72245E-002	-4.93470E-002	2.41107E-003	3.44751E-003	-6.63431E-002	4.11863E-003
	8	8	4.98669E-002	-8.40441E-002	0.00000E+000	-4.19102E-003	-8.34528E-001	3.65458E-002	2.97464E+001	11	...........	6.06910E-002	-5.47014E-003	6.11124E-001	5.27112E-001	-2.57176E-002	-3.68297E-002	7.08541E-001	-4.39215E-002	-5.10072E-003	4.59733E-004	-5.13614E-002	-4.43007E-002	2.16142E-003	3.09532E-003	-5.95487E-002	3.69134E-003
	9	9	4.99046E-002	-7.76817E-002	0.00000E+000	-3.87668E-003	-7.71266E-001	3.66383E-002	3.01673E+001	11	...........	6.08653E-002	-5.45444E-003	6.11119E-001	5.26959E-001	-2.57082E-002	-3.68512E-002	7.08474E-001	-4.39458E-002	-4.72812E-003	4.23711E-004	-4.74728E-002	-4.09351E-002	1.99706E-003	2.86267E-003	-5.50355E-002	3.41379E-003
	10	10	4.99252E-002	-7.38616E-002	0.00000E+000	-3.68755E-003	-7.33277E-001	3.67344E-002	3.01372E+001	11	...........	6.09858E-002	-5.50764E-003	6.11170E-001	5.26880E-001	-2.57204E-002	-3.68621E-002	7.08468E-001	-4.38303E-002	-4.50451E-003	4.06803E-004	-4.51420E-002	-3.89162E-002	1.89975E-003	2.72269E-003	-5.23286E-002	3.23737E-003
	11	11	4.99345E-002	-6.99800E-002	0.00000E+000	-3.49442E-003	-6.94706E-001	3.67488E-002	3.02409E+001	11	...........	6.10201E-002	-5.46736E-003	6.11245E-001	5.26853E-001	-2.57403E-002	-3.68715E-002	7.08480E-001	-4.39031E-002	-4.27019E-003	3.82606E-004	-4.27749E-002	-3.68692E-002	1.80131E-003	2.58027E-003	-4.95794E-002	3.07234E-003
	12	12	4.99431E-002	-6.78180E-002	0.00000E+000	-3.38704E-003	-6.73206E-001	3.68343E-002	3.02983E+001	11	...........	6.11640E-002	-5.40722E-003	6.11403E-001	5.26835E-001	-2.57475E-002	-3.68812E-002	7.08469E-001	-4.39967E-002	-4.14802E-003	3.66707E-004	-4.14641E-002	-3.57289E-002	1.74614E-003	2.50121E-003	-4.80470E-002	2.98377E-003
	13	13	4.99545E-002	-6.67739E-002	0.00000E+000	-3.33565E-003	-6.62824E-001	3.70147E-002	3.10320E+001	11	...........	6.14437E-002	-5.45556E-003	6.11395E-001	5.26760E-001	-2.57619E-002	-3.68808E-002	7.08467E-001	-4.39528E-002	-4.10284E-003	3.64289E-004	-4.08252E-002	-3.51738E-002	1.72023E-003	2.46268E-003	-4.73071E-002	2.93490E-003
	14	14	4.99530E-002	-6.57128E-002	0.00000E+000	-3.28255E-003	-6.52263E-001	3.70799E-002	3.09475E+001	11	...........	6.15650E-002	-5.43625E-003	6.11364E-001	5.26592E-001	-2.57649E-002	-3.69062E-002	7.08365E-001	-4.38969E-002	-4.04561E-003	3.57231E-004	-4.01745E-002	-3.46038E-002	1.69308E-003	2.42521E-003	-4.65487E-002	2.88459E-003
	15	15	4.99483E-002	-6.36247E-002	0.00000E+000	-3.17795E-003	-6.31506E-001	3.70597E-002	3.07517E+001	11	...........	6.15417E-002	-5.40694E-003	6.11357E-001	5.26589E-001	-2.57687E-002	-3.69156E-002	7.08300E-001	-4.38489E-002	-3.91557E-003	3.44015E-004	-3.88975E-002	-3.35041E-002	1.63953E-003	2.34874E-003	-4.50654E-002	2.78987E-003
	16	16	4.99607E-002	-6.33061E-002	0.00000E+000	-3.16282E-003	-6.28339E-001	3.72751E-002	3.13687E+001	11	...........	6.18972E-002	-5.46653E-003	6.11301E-001	5.26609E-001	-2.57721E-002	-3.69451E-002	7.08325E-001	-4.38701E-002	-3.91847E-003	3.46064E-004	-3.86991E-002	-3.33376E-002	1.63153E-003	2.33885E-003	-4.48413E-002	2.77725E-003
	17	17	4.99472E-002	-6.20668E-002	0.00000E+000	-3.10006E-003	-6.16023E-001	3.72249E-002	3.12005E+001	11	...........	6.18285E-002	-5.46486E-003	6.11349E-001	5.26488E-001	-2.57614E-002	-3.69147E-002	7.08296E-001	-4.38638E-002	-3.83749E-003	3.39186E-004	-3.79445E-002	-3.26774E-002	1.59893E-003	2.29118E-003	-4.39617E-002	2.72248E-003
	18	18	4.99670E-002	-6.11126E-002	0.00000E+000	-3.05361E-003	-6.06541E-001	3.73119E-002	3.13963E+001	11	...........	6.19617E-002	-5.49389E-003	6.11620E-001	5.26535E-001	-2.57829E-002	-3.69162E-002	7.08273E-001	-4.38583E-002	-3.78664E-003	3.35746E-004	-3.73777E-002	-3.21779E-002	1.57566E-003	2.25605E-003	-4.32844E-002	2.68030E-003
	19	19	4.99496E-002	-6.06384E-002	0.00000E+000	-3.02887E-003	-6.01817E-001	3.73977E-002	3.11800E+001	11	...........	6.21189E-002	-5.49625E-003	6.11570E-001	5.26754E-001	-2.57993E-002	-3.69311E-002	7.08225E-001	-4.38422E-002	-3.76679E-003	3.33284E-004	-3.70846E-002	-3.19415E-002	1.56443E-003	2.23944E-003	-4.29457E-002	2.65852E-003
	20	20	4.99632E-002	-5.95412E-002	0.00000E+000	-2.97487E-003	-5.90915E-001	3.73484E-002	3.16899E+001	11	...........	6.22074E-002	-5.44250E-003	6.11578E-001	5.26853E-001	-2.58315E-002	-3.69256E-002	7.08282E-001	-4.39269E-002	-3.70390E-003	3.24053E-004	-3.64141E-002	-3.13695E-002	1.53804E-003	2.19859E-003	-4.21720E-002	2.61546E-003
	21	21	4.99510E-002	-5.89020E-002	0.00000E+000	-2.94221E-003	-5.84553E-001	3.73462E-002	3.18209E+001	11	...........	6.22943E-002	-5.51083E-003	6.11597E-001	5.26864E-001	-2.58450E-002	-3.69489E-002	7.08205E-001	-4.40192E-002	-3.66926E-003	3.24599E-004	-3.60242E-002	-3.10333E-002	1.52232E-003	2.17636E-003	-4.17147E-002	2.59281E-003
	22	22	4.99386E-002	-5.77530E-002	0.00000E+000	-2.88411E-003	-5.73121E-001	3.73571E-002	3.08279E+001	11	...........	6.23136E-002	-5.46306E-003	6.11639E-001	5.26801E-001	-2.58783E-002	-3.69419E-002	7.08313E-001	-4.40353E-002	-3.59880E-003	3.15508E-004	-3.53240E-002	-3.04244E-002	1.49455E-003	2.13351E-003	-4.09072E-002	2.54317E-003
	23	23	4.99891E-002	-5.69400E-002	0.00000E+000	-2.84638E-003	-5.65039E-001	3.74352E-002	3.16230E+001	11	...........	6.24506E-002	-5.45167E-003	6.11692E-001	5.26795E-001	-2.58544E-002	-3.69360E-002	7.08264E-001	-4.40958E-002	-3.55594E-003	3.10418E-004	-3.48298E-002	-2.99957E-002	1.47215E-003	2.10314E-003	-4.03286E-002	2.51082E-003
	24	24	4.99570E-002	-5.70177E-002	0.00000E+000	-2.84843E-003	-5.65813E-001	3.75024E-002	3.20478E+001	11	...........	6.25444E-002	-5.45903E-003	6.11575E-001	5.26755E-001	-2.58362E-002	-3.69451E-002	7.08384E-001	-4.40647E-002	-3.56614E-003	3.11261E-004	-3.48706E-002	-3.00344E-002	1.47312E-003	2.10653E-003	-4.03904E-002	2.51247E-003
	25	25	4.99588E-002	-5.62949E-002	0.00000E+000	-2.81242E-003	-5.58625E-001	3.75622E-002	3.18119E+001	11	...........	6.26575E-002	-5.38569E-003	6.11613E-001	5.26689E-001	-2.58261E-002	-3.69368E-002	7.08357E-001	-4.40349E-002	-3.52730E-003	3.03187E-004	-3.44307E-002	-2.96499E-002	1.45388E-003	2.07935E-003	-3.98769E-002	2.47894E-003
	26	26	4.99624E-002	-5.55765E-002	0.00000E+000	-2.77673E-003	-5.51475E-001	3.75888E-002	3.20097E+001	11	...........	6.27165E-002	-5.46083E-003	6.11732E-001	5.26731E-001	-2.58314E-002	-3.69294E-002	7.08312E-001	-4.39526E-002	-3.48556E-003	3.03494E-004	-3.39979E-002	-2.92739E-002	1.43562E-003	2.05241E-003	-3.93655E-002	2.44273E-003
	27	27	4.99555E-002	-5.49736E-002	0.00000E+000	-2.74623E-003	-5.45489E-001	3.76932E-002	3.19778E+001	11	...........	6.28740E-002	-5.59361E-003	6.11785E-001	5.26816E-001	-2.58165E-002	-3.69394E-002	7.08291E-001	-4.39862E-002	-3.45641E-003	3.07501E-004	-3.36320E-002	-2.89610E-002	1.41923E-003	2.03069E-003	-3.89373E-002	2.41808E-003
	28	28	4.99558E-002	-5.40547E-002	0.00000E+000	-2.70035E-003	-5.36351E-001	3.76567E-002	3.16452E+001	11	...........	6.28186E-002	-5.49167E-003	6.11680E-001	5.26798E-001	-2.58321E-002	-3.69794E-002	7.08280E-001	-4.38242E-002	-3.39564E-003	2.96851E-004	-3.30642E-002	-2.84759E-002	1.39635E-003	1.99891E-003	-3.82859E-002	2.36890E-003
	29	29	4.99718E-002	-5.37416E-002	0.00000E+000	-2.68557E-003	-5.33236E-001	3.78007E-002	3.18413E+001	11	...........	6.30843E-002	-5.54028E-003	6.11650E-001	5.26729E-001	-2.58283E-002	-3.69796E-002	7.08406E-001	-4.38100E-002	-3.39025E-003	2.97743E-004	-3.28711E-002	-2.83072E-002	1.38806E-003	1.98734E-003	-3.80709E-002	2.35442E-003
	30	30	4.99535E-002	-5.26484E-002	0.00000E+000	-2.62997E-003	-5.22367E-001	3.77547E-002	3.18002E+001	11	...........	6.29807E-002	-5.59764E-003	6.11690E-001	5.26710E-001	-2.58521E-002	-3.69831E-002	7.08441E-001	-4.38350E-002	-3.31583E-003	2.94707E-004	-3.22045E-002	-2.77304E-002	1.36107E-003	1.94710E-003	-3.72983E-002	2.30784E-003
	31	31	4.99563E-002	-5.26807E-002	0.00000E+000	-2.63173E-003	-5.22679E-001	3.79463E-002	3.21885E+001	11	...........	6.33111E-002	-5.46181E-003	6.11703E-001	5.26747E-001	-2.58321E-002	-3.69861E-002	7.08417E-001	-4.38529E-002	-3.33527E-003	2.87732E-004	-3.22249E-002	-2.77494E-002	1.36085E-003	1.94845E-003	-3.73199E-002	2.31020E-003
	32	32	4.99663E-002	-5.16246E-002	0.00000E+000	-2.57949E-003	-5.12199E-001	3.79119E-002	3.16002E+001	11	...........	6.32574E-002	-5.49750E-003	6.11691E-001	5.26765E-001	-2.58364E-002	-3.69717E-002	7.08487E-001	-4.39100E-002	-3.26564E-003	2.83806E-004	-3.15783E-002	-2.71941E-002	1.33379E-003	1.90865E-003	-3.65754E-002	2.26684E-003
	33	33	4.99569E-002	-5.05144E-002	0.00000E+000	-2.52354E-003	-5.01165E-001	3.78033E-002	3.16804E+001	11	...........	6.30749E-002	-5.36931E-003	6.11866E-001	5.26771E-001	-2.58467E-002	-3.69724E-002	7.08407E-001	-4.39587E-002	-3.18619E-003	2.71227E-004	-3.09080E-002	-2.66095E-002	1.30563E-003	1.86764E-003	-3.57847E-002	2.22055E-003
	34	34	4.99639E-002	-5.09346E-002	0.00000E+000	-2.54489E-003	-5.05350E-001	3.80789E-002	3.24867E+001	11	...........	6.35319E-002	-5.44750E-003	6.11843E-001	5.26819E-001	-2.58679E-002	-3.69667E-002	7.08523E-001	-4.38446E-002	-3.23598E-003	2.77466E-004	-3.11640E-002	-2.68333E-002	1.31757E-003	1.88288E-003	-3.60884E-002	2.23321E-003
	35	35	4.99604E-002	-5.03895E-002	0.00000E+000	-2.51748E-003	-4.99927E-001	3.80723E-002	3.23373E+001	11	...........	6.35107E-002	-5.48986E-003	6.11842E-001	5.26868E-001	-2.58653E-002	-3.69835E-002	7.08509E-001	-4.38842E-002	-3.20027E-003	2.76631E-004	-3.08304E-002	-2.65486E-002	1.30334E-003	1.86358E-003	-3.57014E-002	2.21130E-003
	36	36	4.99628E-002	-4.94485E-002	0.00000E+000	-2.47059E-003	-4.90581E-001	3.80007E-002	3.20390E+001	11	...........	6.33883E-002	-5.47306E-003	6.11975E-001	5.26994E-001	-2.58567E-002	-3.70067E-002	7.08530E-001	-4.38963E-002	-3.13446E-003	2.70634E-004	-3.02612E-002	-2.60591E-002	1.27857E-003	1.82992E-003	-3.50358E-002	2.17060E-003
	37	37	4.99560E-002	-4.94276E-002	0.00000E+000	-2.46921E-003	-4.90367E-001	3.81756E-002	3.25367E+001	11	...........	6.36876E-002	-5.42153E-003	6.11730E-001	5.26926E-001	-2.58292E-002	-3.70276E-002	7.08562E-001	-4.40193E-002	-3.14793E-003	2.67973E-004	-3.02363E-002	-2.60447E-002	1.27667E-003	1.83019E-003	-3.50225E-002	2.17577E-003
	38	38	4.99578E-002	-4.83683E-002	0.00000E+000	-2.41637E-003	-4.79823E-001	3.81029E-002	3.14364E+001	11	...........	6.35500E-002	-5.49778E-003	6.11701E-001	5.26885E-001	-2.58482E-002	-3.70453E-002	7.08500E-001	-4.40268E-002	-3.07380E-003	2.65918E-004	-2.95869E-002	-2.54845E-002	1.25023E-003	1.79182E-003	-3.42689E-002	2.12950E-003
	39	39	4.99691E-002	-4.76980E-002	0.00000E+000	-2.38343E-003	-4.73157E-001	3.81347E-002	3.23592E+001	11	...........	6.36322E-002	-5.33569E-003	6.11635E-001	5.26874E-001	-2.58679E-002	-3.70447E-002	7.08487E-001	-4.39861E-002	-3.03513E-003	2.54502E-004	-2.91738E-002	-2.51308E-002	1.23385E-003	1.76696E-003	-3.37934E-002	2.09805E-003
	40	40	4.99642E-002	-4.79853E-002	0.00000E+000	-2.39755E-003	-4.76011E-001	3.82510E-002	3.25324E+001	11	...........	6.38183E-002	-5.33639E-003	6.11722E-001	5.26847E-001	-2.58543E-002	-3.70378E-002	7.08555E-001	-4.39081E-002	-3.06234E-003	2.56068E-004	-2.93536E-002	-2.52809E-002	1.24063E-003	1.77727E-003	-3.40002E-002	2.10694E-003
	41	41	4.99564E-002	-4.70406E-002	0.00000E+000	-2.34998E-003	-4.66628E-001	3.81837E-002	3.23298E+001	11	...........	6.36965E-002	-5.39917E-003	6.11615E-001	5.26987E-001	-2.58290E-002	-3.70517E-002	7.08569E-001	-4.39126E-002	-2.99632E-003	2.53980E-004	-2.87707E-002	-2.47898E-002	1.21501E-003	1.74293E-003	-3.33315E-002	2.06568E-003
	42	42	4.99642E-002	-4.68793E-002	0.00000E+000	-2.34228E-003	-4.65019E-001	3.83612E-002	3.28070E+001	11	...........	6.40112E-002	-5.34014E-003	6.11627E-001	5.27042E-001	-2.58183E-002	-3.70314E-002	7.08589E-001	-4.39263E-002	-3.00080E-003	2.50342E-004	-2.86726E-002	-2.47074E-002	1.21034E-003	1.73600E-003	-3.32181E-002	2.05923E-003
	43	43	4.99553E-002	-4.61478E-002	0.00000E+000	-2.30533E-003	-4.57749E-001	3.83700E-002	3.25378E+001	11	...........	6.40076E-002	-5.46569E-003	6.11626E-001	5.26855E-001	-2.58189E-002	-3.70035E-002	7.08552E-001	-4.39437E-002	-2.95381E-003	2.52230E-004	-2.82252E-002	-2.43132E-002	1.19149E-003	1.70763E-003	-3.26981E-002	2.02791E-003
	44	44	4.99575E-002	-4.49088E-002	0.00000E+000	-2.24353E-003	-4.45424E-001	3.82128E-002	3.17149E+001	11	...........	6.37528E-002	-5.43958E-003	6.11586E-001	5.26858E-001	-2.58128E-002	-3.70364E-002	7.08522E-001	-4.39294E-002	-2.86306E-003	2.44285E-004	-2.74656E-002	-2.36606E-002	1.15922E-003	1.66326E-003	-3.18188E-002	1.97282E-003
	45	45	4.99728E-002	-4.51102E-002	0.00000E+000	-2.25428E-003	-4.47417E-001	3.84993E-002	3.27489E+001	11	...........	6.42376E-002	-5.48333E-003	6.11502E-001	5.26978E-001	-2.58082E-002	-3.70479E-002	7.08600E-001	-4.38978E-002	-2.89778E-003	2.47355E-004	-2.75850E-002	-2.37721E-002	1.16421E-003	1.67124E-003	-3.19651E-002	1.98024E-003
	46	46	4.99569E-002	-4.48807E-002	0.00000E+000	-2.24210E-003	-4.45143E-001	3.84836E-002	3.31205E+001	11	...........	6.41958E-002	-5.46014E-003	6.11619E-001	5.27146E-001	-2.58267E-002	-3.70336E-002	7.08719E-001	-4.40143E-002	-2.88115E-003	2.45055E-004	-2.74499E-002	-2.36586E-002	1.15912E-003	1.66209E-003	-3.18078E-002	1.97539E-003
	47	47	4.99599E-002	-4.42328E-002	0.00000E+000	-2.20987E-003	-4.38702E-001	3.85027E-002	3.24745E+001	11	...........	6.42446E-002	-5.40069E-003	6.11818E-001	5.27155E-001	-2.58167E-002	-3.70278E-002	7.08650E-001	-4.39524E-002	-2.84172E-003	2.38888E-004	-2.70624E-002	-2.33175E-002	1.14194E-003	1.63784E-003	-3.13456E-002	1.94414E-003
	48	48	4.99646E-002	-4.34443E-002	0.00000E+000	-2.17067E-003	-4.30867E-001	3.84723E-002	3.28220E+001	11	...........	6.41912E-002	-5.48292E-003	6.11881E-001	5.27021E-001	-2.58175E-002	-3.70165E-002	7.08626E-001	-4.39799E-002	-2.78874E-003	2.38201E-004	-2.65827E-002	-2.28960E-002	1.12162E-003	1.60816E-003	-3.07858E-002	1.91067E-003
	49	49	4.99602E-002	-4.34420E-002	0.00000E+000	-2.17037E-003	-4.30845E-001	3.85795E-002	3.31822E+001	11	...........	6.43772E-002	-5.52292E-003	6.11919E-001	5.27024E-001	-2.58072E-002	-3.70292E-002	7.08642E-001	-4.37633E-002	-2.79667E-003	2.39926E-004	-2.65830E-002	-2.28949E-002	1.12112E-003	1.60862E-003	-3.07848E-002	1.90117E-003
	50	50	4.99581E-002	-4.26592E-002	0.00000E+000	-2.13117E-003	-4.23054E-001	3.86241E-002	3.22002E+001	11	...........	6.44374E-002	-5.53167E-003	6.11859E-001	5.27050E-001	-2.58131E-002	-3.70478E-002	7.08622E-001	-4.38143E-002	-2.74885E-003	2.35976E-004	-2.61014E-002	-2.24835E-002	1.10116E-003	1.58043E-003	-3.02292E-002	1.86908E-003
	51	51	4.99622E-002	-4.15410E-002	0.00000E+000	-2.07548E-003	-4.11945E-001	3.84688E-002	3.22517E+001	11	...........	6.41931E-002	-5.49444E-003	6.11674E-001	5.27274E-001	-2.58308E-002	-3.70079E-002	7.08631E-001	-4.39254E-002	-2.66664E-003	2.28245E-004	-2.54095E-002	-2.19035E-002	1.07304E-003	1.53735E-003	-2.94372E-002	1.82471E-003
	52	52	4.99678E-002	-4.17781E-002	0.00000E+000	-2.08756E-003	-4.14304E-001	3.86465E-002	3.25909E+001	11	...........	6.44747E-002	-5.40903E-003	6.11759E-001	5.26907E-001	-2.58381E-002	-3.69940E-002	7.08555E-001	-4.38686E-002	-2.69363E-003	2.25979E-004	-2.55581E-002	-2.20132E-002	1.07946E-003	1.54554E-003	-2.96021E-002	1.83275E-003
	53	53	4.99577E-002	-4.15439E-002	0.00000E+000	-2.07544E-003	-4.11966E-001	3.87552E-002	3.30924E+001	11	...........	6.46411E-002	-5.41153E-003	6.11737E-001	5.26743E-001	-2.58142E-002	-3.69993E-002	7.08589E-001	-4.38825E-002	-2.68544E-003	2.24816E-004	-2.54140E-002	-2.18829E-002	1.07242E-003	1.53709E-003	-2.94375E-002	1.82305E-003
	54	54	4.99660E-002	-4.10071E-002	0.00000E+000	-2.04896E-003	-4.06655E-001	3.87299E-002	3.31170E+001	11	...........	6.46340E-002	-5.51292E-003	6.11861E-001	5.26877E-001	-2.58217E-002	-3.70361E-002	7.08605E-001	-4.38604E-002	-2.65045E-003	2.26069E-004	-2.50906E-002	-2.16057E-002	1.05887E-003	1.51874E-003	-2.90578E-002	1.79859E-003
	55	55	4.99561E-002	-4.05925E-002	0.00000E+000	-2.02784E-003	-4.02523E-001	3.87364E-002	3.25262E+001	11	...........	6.46250E-002	-5.46069E-003	6.11790E-001	5.27031E-001	-2.57849E-002	-3.70504E-002	7.08622E-001	-4.38708E-002	-2.62329E-003	2.21663E-004	-2.48341E-002	-2.13935E-002	1.04667E-003	1.50397E-003	-2.87647E-002	1.78083E-003
	56	56	4.99717E-002	-3.99616E-002	0.00000E+000	-1.99695E-003	-3.96247E-001	3.87538E-002	3.31376E+001	11	...........	6.46593E-002	-5.52625E-003	6.11796E-001	5.27268E-001	-2.58000E-002	-3.70210E-002	7.08665E-001	-4.38349E-002	-2.58389E-003	2.20838E-004	-2.44483E-002	-2.10705E-002	1.03101E-003	1.47942E-003	-2.83194E-002	1.75171E-003
	57	57	4.99583E-002	-3.99071E-002	0.00000E+000	-1.99369E-003	-3.95709E-001	3.87568E-002	3.33621E+001	11	...........	6.46628E-002	-5.58486E-003	6.11888E-001	5.27377E-001	-2.58076E-002	-3.70097E-002	7.08496E-001	-4.39274E-002	-2.58050E-003	2.22875E-004	-2.44187E-002	-2.10461E-002	1.02991E-003	1.47695E-003	-2.82740E-002	1.75301E-003
	58	58	4.99640E-002	-3.94765E-002	0.00000E+000	-1.97240E-003	-3.91431E-001	3.88248E-002	3.34889E+001	11	...........	6.47662E-002	-5.67625E-003	6.11824E-001	5.27301E-001	-2.58174E-002	-3.70278E-002	7.08458E-001	-4.39707E-002	-2.55674E-003	2.24078E-004	-2.41527E-002	-2.08160E-002	1.01918E-003	1.46173E-003	-2.79674E-002	1.73581E-003
	59	59	4.99602E-002	-3.90529E-002	0.00000E+000	-1.95109E-003	-3.87213E-001	3.88637E-002	3.30536E+001	11	...........	6.48260E-002	-5.61042E-003	6.11859E-001	5.27204E-001	-2.58235E-002	-3.70169E-002	7.08612E-001	-4.39340E-002	-2.53164E-003	2.19103E-004	-2.38949E-002	-2.05888E-002	1.00848E-003	1.44562E-003	-2.76733E-002	1.71575E-003
	60	60	4.99611E-002	-3.79142E-002	0.00000E+000	-1.89423E-003	-3.75897E-001	3.88002E-002	3.29729E+001	11	...........	6.47326E-002	-5.51944E-003	6.11973E-001	5.27220E-001	-2.57768E-002	-3.70039E-002	7.08651E-001	-4.39110E-002	-2.45428E-003	2.09265E-004	-2.32024E-002	-1.99891E-002	9.77306E-004	1.40297E-003	-2.68679E-002	1.66485E-003
	61	61	4.99594E-002	-3.78536E-002	0.00000E+000	-1.89115E-003	-3.75288E-001	3.88800E-002	3.26254E+001	11	...........	6.48528E-002	-5.51375E-003	6.12014E-001	5.27199E-001	-2.57617E-002	-3.70354E-002	7.08543E-001	-4.38893E-002	-2.45491E-003	2.08716E-004	-2.31670E-002	-1.99564E-002	9.75173E-004	1.40193E-003	-2.68209E-002	1.66137E-003
	62	62	4.99682E-002	-3.74685E-002	0.00000E+000	-1.87223E-003	-3.71456E-001	3.88717E-002	3.32343E+001	11	...........	6.48468E-002	-5.46986E-003	6.11975E-001	5.27189E-001	-2.57551E-002	-3.70568E-002	7.08623E-001	-4.39111E-002	-2.42971E-003	2.04948E-004	-2.29298E-002	-1.97530E-002	9.65007E-004	1.38846E-003	-2.65511E-002	1.64529E-003
	63	63	4.99616E-002	-3.74744E-002	0.00000E+000	-1.87228E-003	-3.71513E-001	3.90118E-002	3.36390E+001	11	...........	6.50849E-002	-5.55806E-003	6.11972E-001	5.27301E-001	-2.57519E-002	-3.70525E-002	7.08569E-001	-4.39549E-002	-2.43901E-003	2.08285E-004	-2.29333E-002	-1.97603E-002	9.65038E-004	1.38852E-003	-2.65532E-002	1.64718E-003
	64	64	4.99623E-002	-3.69400E-002	0.00000E+000	-1.84561E-003	-3.66207E-001	3.89638E-002	3.32830E+001	11	...........	6.50036E-002	-5.41028E-003	6.12017E-001	5.27289E-001	-2.57500E-002	-3.70560E-002	7.08691E-001	-4.39010E-002	-2.40123E-003	1.99856E-004	-2.26079E-002	-1.94780E-002	9.51204E-004	1.36885E-003	-2.61790E-002	1.62170E-003
	65	65	4.99619E-002	-3.62080E-002	0.00000E+000	-1.80902E-003	-3.58920E-001	3.89018E-002	3.30213E+001	11	...........	6.49060E-002	-5.33889E-003	6.12081E-001	5.27310E-001	-2.57386E-002	-3.70692E-002	7.08635E-001	-4.39156E-002	-2.35011E-003	1.93310E-004	-2.21622E-002	-1.90928E-002	9.31943E-004	1.34220E-003	-2.56582E-002	1.59009E-003
	66	66	4.99638E-002	-3.61868E-002	0.00000E+000	-1.80803E-003	-3.58711E-001	3.90839E-002	3.37325E+001	11	...........	6.52024E-002	-5.35625E-003	6.12229E-001	5.27245E-001	-2.57437E-002	-3.70653E-002	7.08473E-001	-4.39211E-002	-2.35946E-003	1.93825E-004	-2.21546E-002	-1.90793E-002	9.31583E-004	1.34127E-003	-2.56373E-002	1.58936E-003
	67	67	4.99595E-002	-3.57741E-002	0.00000E+000	-1.78725E-003	-3.54607E-001	3.90445E-002	3.35815E+001	11	...........	6.51465E-002	-5.42319E-003	6.12218E-001	5.27263E-001	-2.57147E-002	-3.70436E-002	7.08456E-001	-4.39462E-002	-2.33056E-003	1.94010E-004	-2.19015E-002	-1.88623E-002	9.19920E-004	1.32520E-003	-2.53443E-002	1.57214E-003
	68	68	4.99575E-002	-3.47840E-002	0.00000E+000	-1.73772E-003	-3.44755E-001	3.89580E-002	3.28869E+001	11	...........	6.49912E-002	-5.43750E-003	6.12207E-001	5.27322E-001	-2.57157E-002	-3.70503E-002	7.08487E-001	-4.38160E-002	-2.26065E-003	1.89138E-004	-2.12950E-002	-1.83424E-002	8.94494E-004	1.28876E-003	-2.46440E-002	1.52409E-003
	69	69	4.99713E-002	-3.48323E-002	0.00000E+000	-1.74061E-003	-3.45235E-001	3.91418E-002	3.36472E+001	11	...........	6.53142E-002	-5.54722E-003	6.12133E-001	5.27392E-001	-2.57125E-002	-3.70050E-002	7.08526E-001	-4.39549E-002	-2.27504E-003	1.93222E-004	-2.13220E-002	-1.83703E-002	8.95625E-004	1.28897E-003	-2.46796E-002	1.53105E-003
	70	70	4.99624E-002	-3.46721E-002	0.00000E+000	-1.73230E-003	-3.43648E-001	3.89663E-002	3.32586E+001	11	...........	6.52850E-002	-5.50444E-003	6.12169E-001	5.27323E-001	-2.57237E-002	-3.69694E-002	7.08484E-001	-4.39178E-002	-2.26357E-003	1.90850E-004	-2.12252E-002	-1.82834E-002	8.91895E-004	1.28181E-003	-2.45646E-002	1.52272E-003
	71	71	4.99600E-002	-3.38620E-002	0.00000E+000	-1.69175E-003	-3.35592E-001	3.91105E-002	3.37134E+001	11	...........	6.52546E-002	-5.48028E-003	6.12290E-001	5.27246E-001	-2.57322E-002	-3.69353E-002	7.08516E-001	-4.38679E-002	-2.20965E-003	1.85573E-004	-2.07334E-002	-1.78536E-002	8.71344E-004	1.25070E-003	-2.39918E-002	1.48545E-003
	72	72	4.99653E-002	-3.38322E-002	0.00000E+000	-1.69043E-003	-3.35291E-001	3.91821E-002	3.40035E+001	11	...........	6.53650E-002	-5.44569E-003	6.12340E-001	5.27285E-001	-2.57214E-002	-3.69268E-002	7.08664E-001	-4.38453E-002	-2.21144E-003	1.84240E-004	-2.07168E-002	-1.78392E-002	8.70210E-004	1.24931E-003	-2.39756E-002	1.48338E-003
	73	73	4.99577E-002	-3.33894E-002	0.00000E+000	-1.66806E-003	-3.30896E-001	3.91970E-002	3.31269E+001	11	...........	6.53960E-002	-5.43639E-003	6.12391E-001	5.27472E-001	-2.57296E-002	-3.69393E-002	7.08735E-001	-4.38988E-002	-2.18353E-003	1.81518E-004	-2.04474E-002	-1.76120E-002	8.59095E-004	1.23338E-003	-2.36642E-002	1.46575E-003
	74	74	4.99617E-002	-3.23379E-002	0.00000E+000	-1.61566E-003	-3.20429E-001	3.90861E-002	3.29221E+001	11	...........	6.52072E-002	-5.47625E-003	6.12143E-001	5.27558E-001	-2.57261E-002	-3.69581E-002	7.08727E-001	-4.39861E-002	-2.10866E-003	1.77090E-004	-1.97954E-002	-1.70601E-002	8.31928E-004	1.19515E-003	-2.29187E-002	1.42242E-003
	75	75	4.99677E-002	-3.23868E-002	0.00000E+000	-1.61829E-003	-3.20905E-001	3.92732E-002	3.38542E+001	11	...........	6.55101E-002	-5.55292E-003	6.12233E-001	5.27519E-001	-2.57333E-002	-3.69378E-002	7.08578E-001	-4.40207E-002	-2.12166E-003	1.79841E-004	-1.98283E-002	-1.70847E-002	8.33420E-004	1.19630E-003	-2.29486E-002	1.42569E-003
	76	76	4.99630E-002	-3.22876E-002	0.00000E+000	-1.61319E-003	-3.19925E-001	3.93033E-002	3.40886E+001	11	...........	6.55793E-002	-5.53583E-003	6.12013E-001	5.27606E-001	-2.57239E-002	-3.69300E-002	7.08646E-001	-4.39739E-002	-2.11740E-003	1.78739E-004	-1.97604E-002	-1.70351E-002	8.30563E-004	1.19238E-003	-2.28805E-002	1.41981E-003
	77	77	4.99637E-002	-3.18921E-002	0.00000E+000	-1.59345E-003	-3.16007E-001	3.92815E-002	3.36064E+001	11	...........	6.55358E-002	-5.45278E-003	6.11940E-001	5.27688E-001	-2.57374E-002	-3.69199E-002	7.08599E-001	-4.39007E-002	-2.09008E-003	1.73901E-004	-1.95161E-002	-1.68291E-002	8.20820E-004	1.17745E-003	-2.25988E-002	1.40009E-003
	78	78	4.99605E-002	-3.11348E-002	0.00000E+000	-1.55551E-003	-3.08479E-001	3.92323E-002	3.36012E+001	11	...........	6.54596E-002	-5.39917E-003	6.12030E-001	5.27707E-001	-2.57574E-002	-3.69315E-002	7.08472E-001	-4.40085E-002	-2.03807E-003	1.68102E-004	-1.90555E-002	-1.64301E-002	8.01951E-004	1.14986E-003	-2.20581E-002	1.37020E-003
	79	79	4.99637E-002	-3.10572E-002	0.00000E+000	-1.55173E-003	-3.07715E-001	3.93599E-002	3.39296E+001	11	...........	6.56604E-002	-5.41833E-003	6.11903E-001	5.27753E-001	-2.57568E-002	-3.69631E-002	7.08458E-001	-4.39233E-002	-2.03923E-003	1.68278E-004	-1.90040E-002	-1.63905E-002	7.99933E-004	1.14797E-003	-2.20027E-002	1.36413E-003
	80	80	4.99638E-002	-3.08554E-002	0.00000E+000	-1.54165E-003	-3.05730E-001	3.93271E-002	3.42433E+001	11	...........	6.56260E-002	-5.41917E-003	6.11869E-001	5.27753E-001	-2.57700E-002	-3.69456E-002	7.08462E-001	-4.38878E-002	-2.02491E-003	1.67210E-004	-1.88795E-002	-1.62840E-002	7.95143E-004	1.13997E-003	-2.18599E-002	1.35417E-003
	81	81	4.99617E-002	-3.05404E-002	0.00000E+000	-1.52585E-003	-3.02594E-001	3.93453E-002	3.36550E+001	11	...........	6.56485E-002	-5.40514E-003	6.12040E-001	5.27824E-001	-2.57596E-002	-3.69236E-002	7.08537E-001	-4.39283E-002	-2.00493E-003	1.65075E-004	-1.86919E-002	-1.61199E-002	7.86707E-004	1.12766E-003	-2.16390E-002	1.34159E-003
	82	82	4.99635E-002	-2.97426E-002	0.00000E+000	-1.48604E-003	-2.94647E-001	3.92855E-002	3.38447E+001	11	...........	6.55428E-002	-5.26611E-003	6.12013E-001	5.28046E-001	-2.57672E-002	-3.69190E-002	7.08468E-001	-4.39924E-002	-1.94941E-003	1.56628E-004	-1.82028E-002	-1.57054E-002	7.66383E-004	1.09807E-003	-2.10716E-002	1.30845E-003
	83	83	4.99598E-002	-2.94959E-002	0.00000E+000	-1.47361E-003	-2.92197E-001	3.93925E-002	3.37535E+001	11	...........	6.57119E-002	-5.38306E-003	6.11877E-001	5.27992E-001	-2.57906E-002	-3.69233E-002	7.08424E-001	-4.40072E-002	-1.93824E-003	1.58778E-004	-1.80479E-002	-1.55736E-002	7.60716E-004	1.08909E-003	-2.08956E-002	1.29803E-003
	84	84	4.99692E-002	-2.93331E-002	0.00000E+000	-1.46575E-003	-2.90591E-001	3.94258E-002	3.43552E+001	11	...........	6.57808E-002	-5.39042E-003	6.11792E-001	5.28039E-001	-2.57821E-002	-3.69242E-002	7.08299E-001	-4.39021E-002	-1.92955E-003	1.58118E-004	-1.79457E-002	-1.54890E-002	7.56268E-004	1.08310E-003	-2.07766E-002	1.28778E-003
	85	85	4.99636E-002	-2.91226E-002	0.00000E+000	-1.45507E-003	-2.88495E-001	3.94397E-002	3.41913E+001	11	...........	6.57887E-002	-5.36167E-003	6.11689E-001	5.28100E-001	-2.57892E-002	-3.69507E-002	7.08236E-001	-4.38411E-002	-1.91594E-003	1.56146E-004	-1.78140E-002	-1.53796E-002	7.51047E-004	1.07610E-003	-2.06256E-002	1.27677E-003
	86	86	4.99622E-002	-2.85130E-002	0.00000E+000	-1.42457E-003	-2.82432E-001	3.93896E-002	3.38931E+001	11	...........	6.57178E-002	-5.39667E-003	6.11656E-001	5.28028E-001	-2.57794E-002	-3.69457E-002	7.08414E-001	-4.38093E-002	-1.87381E-003	1.53875E-004	-1.74401E-002	-1.50556E-002	7.35048E-004	1.05343E-003	-2.01990E-002	1.24913E-003
	87	87	4.99602E-002	-2.83506E-002	0.00000E+000	-1.41640E-003	-2.80822E-001	3.95127E-002	3.45099E+001	11	...........	6.59199E-002	-5.50431E-003	6.11798E-001	5.28041E-001	-2.57862E-002	-3.69571E-002	7.08646E-001	-4.38294E-002	-1.86887E-003	1.56050E-004	-1.73448E-002	-1.49703E-002	7.31055E-004	1.04775E-003	-2.00905E-002	1.24259E-003
	88	88	4.99651E-002	-2.77960E-002	0.00000E+000	-1.38883E-003	-2.75293E-001	3.94753E-002	3.35282E+001	11	...........	6.58662E-002	-5.54417E-003	6.11706E-001	5.28090E-001	-2.57654E-002	-3.69444E-002	7.08494E-001	-4.38440E-002	-1.83082E-003	1.54106E-004	-1.70030E-002	-1.46788E-002	7.16176E-004	1.02691E-003	-1.96933E-002	1.21869E-003
	89	89	4.99638E-002	-2.72252E-002	0.00000E+000	-1.36028E-003	-2.69613E-001	3.93521E-002	3.38014E+001	11	...........	6.56558E-002	-5.58653E-003	6.11537E-001	5.28086E-001	-2.57646E-002	-3.69458E-002	7.08406E-001	-4.38511E-002	-1.78749E-003	1.52094E-004	-1.66492E-002	-1.43772E-002	7.01446E-004	1.00586E-003	-1.92865E-002	1.19386E-003
	90	90	4.99581E-002	-2.73848E-002	0.00000E+000	-1.36809E-003	-2.71204E-001	3.95592E-002	3.40168E+001	11	...........	6.60026E-002	-5.43153E-003	6.11483E-001	5.27932E-001	-2.57637E-002	-3.69399E-002	7.08433E-001	-4.39736E-002	-1.80747E-003	1.48741E-004	-1.67453E-002	-1.44573E-002	7.05536E-004	1.01159E-003	-1.94003E-002	1.20421E-003
	91	91	4.99690E-002	-2.70970E-002	0.00000E+000	-1.35401E-003	-2.68339E-001	3.95929E-002	3.45258E+001	11	...........	6.60469E-002	-5.34375E-003	6.11492E-001	5.27870E-001	-2.57814E-002	-3.69346E-002	7.08412E-001	-4.38867E-002	-1.78967E-003	1.44800E-004	-1.65696E-002	-1.43037E-002	6.98598E-004	1.00082E-003	-1.91958E-002	1.18920E-003
	92	92	4.99664E-002	-2.67409E-002	0.00000E+000	-1.33615E-003	-2.64805E-001	3.95436E-002	3.47369E+001	11	...........	6.59781E-002	-5.28903E-003	6.11524E-001	5.27818E-001	-2.57676E-002	-3.69224E-002	7.08382E-001	-4.38689E-002	-1.76432E-003	1.41434E-004	-1.63527E-002	-1.41143E-002	6.89051E-004	9.87339E-004	-1.89428E-002	1.17310E-003
	93	93	4.99598E-002	-2.63895E-002	0.00000E+000	-1.31842E-003	-2.61307E-001	3.95703E-002	3.42215E+001	11	...........	6.60215E-002	-5.40236E-003	6.11587E-001	5.27696E-001	-2.57542E-002	-3.69006E-002	7.08283E-001	-4.38915E-002	-1.74228E-003	1.42566E-004	-1.61395E-002	-1.39257E-002	6.79640E-004	9.73788E-004	-1.86913E-002	1.15828E-003
	94	94	4.99616E-002	-2.56544E-002	0.00000E+000	-1.28174E-003	-2.53999E-001	3.94656E-002	3.37084E+001	11	...........	6.58283E-002	-5.23236E-003	6.11677E-001	5.27577E-001	-2.57457E-002	-3.68932E-002	7.08350E-001	-4.38847E-002	-1.68879E-003	1.34233E-004	-1.56922E-002	-1.35347E-002	6.60491E-004	9.46473E-004	-1.81723E-002	1.12584E-003
	95	95	4.99686E-002	-2.57829E-002	0.00000E+000	-1.28833E-003	-2.55281E-001	3.96740E-002	3.47908E+001	11	...........	6.62032E-002	-5.28111E-003	6.11762E-001	5.27440E-001	-2.57462E-002	-3.68997E-002	7.08366E-001	-4.39101E-002	-1.70691E-003	1.36162E-004	-1.57730E-002	-1.35989E-002	6.63812E-004	9.51380E-004	-1.82637E-002	1.13213E-003
	96	96	4.99619E-002	-2.55651E-002	0.00000E+000	-1.27728E-003	-2.53113E-001	3.96389E-002	3.49642E+001	11	...........	6.61472E-002	-5.38333E-003	6.11932E-001	5.27391E-001	-2.57283E-002	-3.68771E-002	7.08309E-001	-4.38978E-002	-1.69106E-003	1.37626E-004	-1.56441E-002	-1.34828E-002	6.57748E-004	9.42767E-004	-1.81080E-002	1.12225E-003
	97	97	4.99626E-002	-2.51086E-002	0.00000E+000	-1.25449E-003	-2.48566E-001	3.96352E-002	3.43358E+001	11	...........	6.61303E-002	-5.34125E-003	6.11931E-001	5.27480E-001	-2.57243E-002	-3.68749E-002	7.08466E-001	-4.38187E-002	-1.66044E-003	1.34111E-004	-1.53647E-002	-1.32443E-002	6.45901E-004	9.25876E-004	-1.77886E-002	1.10023E-003
	98	98	4.99652E-002	-2.46524E-002	0.00000E+000	-1.23176E-003	-2.44028E-001	3.95788E-002	3.46845E+001	11	...........	6.60461E-002	-5.27736E-003	6.11924E-001	5.27519E-001	-2.57112E-002	-3.68836E-002	7.08332E-001	-4.39238E-002	-1.62820E-003	1.30100E-004	-1.50854E-002	-1.30046E-002	6.33845E-004	9.09271E-004	-1.74621E-002	1.08283E-003
	99	99	4.99580E-002	-2.44524E-002	0.00000E+000	-1.22159E-003	-2.42047E-001	3.96964E-002	3.35556E+001	11	...........	6.62340E-002	-5.27333E-003	6.11897E-001	5.27482E-001	-2.56981E-002	-3.68951E-002	7.08267E-001	-4.39311E-002	-1.61958E-003	1.28946E-004	-1.49624E-002	-1.28982E-002	6.28379E-004	9.02175E-004	-1.73188E-002	1.07422E-003
	100	100	4.99699E-002	-2.38347E-002	0.00000E+000	-1.19102E-003	-2.35909E-001	3.95374E-002	3.43921E+001	11	...........	6.59583E-002	-5.30528E-003	6.11788E-001	5.27447E-001	-2.57210E-002	-3.68890E-002	7.08341E-001	-4.39482E-002	-1.57209E-003	1.26450E-004	-1.45818E-002	-1.25715E-002	6.13051E-004	8.79238E-004	-1.68831E-002	1.04749E-003
	101	101	4.99627E-002	-2.39250E-002	0.00000E+000	-1.19536E-003	-2.36804E-001	3.97021E-002	3.47318E+001	11	...........	6.62346E-002	-5.36264E-003	6.11825E-001	5.27451E-001	-2.57207E-002	-3.68696E-002	7.08399E-001	-4.38735E-002	-1.58466E-003	1.28301E-004	-1.46379E-002	-1.26193E-002	6.15367E-004	8.82104E-004	-1.69484E-002	1.04967E-003
	102	102	4.99638E-002	-2.36641E-002	0.00000E+000	-1.18235E-003	-2.34205E-001	3.97676E-002	3.49844E+001	11	...........	6.63371E-002	-5.38208E-003	6.11837E-001	5.27479E-001	-2.57222E-002	-3.68753E-002	7.08382E-001	-4.38713E-002	-1.56981E-003	1.27362E-004	-1.44786E-002	-1.24823E-002	6.08694E-004	8.72621E-004	-1.67632E-002	1.03817E-003
	103	103	4.99641E-002	-2.33470E-002	0.00000E+000	-1.16651E-003	-2.31055E-001	3.97156E-002	3.48392E+001	11	...........	6.62590E-002	-5.38931E-003	6.11755E-001	5.27568E-001	-2.57187E-002	-3.68615E-002	7.08382E-001	-4.38586E-002	-1.54695E-003	1.25824E-004	-1.42827E-002	-1.23172E-002	6.00457E-004	8.60607E-004	-1.65386E-002	1.02397E-003
	104	104	4.99622E-002	-2.28746E-002	0.00000E+000	-1.14287E-003	-2.26361E-001	3.97432E-002	3.42244E+001	11	...........	6.63169E-002	-5.44139E-003	6.11835E-001	5.27522E-001	-2.57361E-002	-3.68635E-002	7.08351E-001	-4.38676E-002	-1.51698E-003	1.24470E-004	-1.39955E-002	-1.20669E-002	5.88704E-004	8.43239E-004	-1.62033E-002	1.00346E-003
	105	105	4.99629E-002	-2.24104E-002	0.00000E+000	-1.11969E-003	-2.21740E-001	3.96357E-002	3.41092E+001	11	...........	6.61228E-002	-5.24514E-003	6.11865E-001	5.27631E-001	-2.57308E-002	-3.68771E-002	7.08306E-001	-4.38969E-002	-1.48184E-003	1.17546E-004	-1.37122E-002	-1.18245E-002	5.76639E-004	8.26432E-004	-1.58735E-002	9.83750E-004
	106	106	4.99680E-002	-2.25189E-002	0.00000E+000	-1.12522E-003	-2.22814E-001	3.98562E-002	3.50972E+001	11	...........	6.65021E-002	-5.32222E-003	6.11781E-001	5.27792E-001	-2.57406E-002	-3.69053E-002	7.08289E-001	-4.40047E-002	-1.49755E-003	1.19851E-004	-1.37766E-002	-1.18853E-002	5.79649E-004	8.31066E-004	-1.59499E-002	9.90938E-004
	107	107	4.99647E-002	-2.24101E-002	0.00000E+000	-1.11971E-003	-2.21733E-001	3.97906E-002	3.52739E+001	11	...........	6.63943E-002	-5.44014E-003	6.11760E-001	5.27933E-001	-2.57560E-002	-3.68846E-002	7.08379E-001	-4.39661E-002	-1.48790E-003	1.21914E-004	-1.37096E-002	-1.18310E-002	5.77194E-004	8.26587E-004	-1.58748E-002	9.85284E-004
	108	108	4.99644E-002	-2.21067E-002	0.00000E+000	-1.10455E-003	-2.18704E-001	3.98137E-002	3.47534E+001	11	...........	6.64169E-002	-5.51222E-003	6.11779E-001	5.27899E-001	-2.57621E-002	-3.68821E-002	7.08395E-001	-4.38022E-002	-1.46826E-003	1.21857E-004	-1.35244E-002	-1.16701E-002	5.69515E-004	8.15342E-004	-1.56603E-002	9.68324E-004
	109	109	4.99645E-002	-2.16769E-002	0.00000E+000	-1.08307E-003	-2.14450E-001	3.97371E-002	3.49756E+001	11	...........	6.62961E-002	-5.53667E-003	6.11812E-001	5.27683E-001	-2.57597E-002	-3.69047E-002	7.08493E-001	-4.38132E-002	-1.43709E-003	1.20018E-004	-1.32622E-002	-1.14385E-002	5.58391E-004	7.99980E-004	-1.53579E-002	9.49734E-004
	110	110	4.99618E-002	-2.14847E-002	0.00000E+000	-1.07342E-003	-2.12533E-001	3.98672E-002	3.40983E+001	11	...........	6.64994E-002	-5.38139E-003	6.11744E-001	5.27614E-001	-2.57736E-002	-3.68904E-002	7.08376E-001	-4.38157E-002	-1.42872E-003	1.15618E-004	-1.31432E-002	-1.13356E-002	5.53739E-004	7.92581E-004	-1.52193E-002	9.41369E-004
	111	111	4.99643E-002	-2.08412E-002	0.00000E+000	-1.04132E-003	-2.06132E-001	3.97162E-002	3.45644E+001	11	...........	6.62585E-002	-5.46389E-003	6.11501E-001	5.27547E-001	-2.57812E-002	-3.69150E-002	7.08351E-001	-4.37982E-002	-1.38090E-003	1.13874E-004	-1.27444E-002	-1.09947E-002	5.37311E-004	7.69351E-004	-1.47629E-002	9.12805E-004
	112	112	4.99660E-002	-2.10106E-002	0.00000E+000	-1.04981E-003	-2.07809E-001	3.98891E-002	3.52766E+001	11	...........	6.65450E-002	-5.62042E-003	6.11414E-001	5.27346E-001	-2.57472E-002	-3.69004E-002	7.08382E-001	-4.38953E-002	-1.39815E-003	1.18088E-004	-1.28462E-002	-1.10798E-002	5.40964E-004	7.75300E-004	-1.48835E-002	9.22266E-004
	113	113	4.99640E-002	-2.07581E-002	0.00000E+000	-1.03716E-003	-2.05303E-001	3.98567E-002	3.51479E+001	11	...........	6.64994E-002	-5.58944E-003	6.11409E-001	5.27239E-001	-2.57203E-002	-3.68633E-002	7.08394E-001	-4.38886E-002	-1.38040E-003	1.16026E-004	-1.26917E-002	-1.09445E-002	5.33903E-004	7.65212E-004	-1.47049E-002	9.11043E-004
	114	114	4.99627E-002	-2.02843E-002	0.00000E+000	-1.01346E-003	-2.00607E-001	3.97896E-002	3.42344E+001	11	...........	6.63982E-002	-5.58028E-003	6.11502E-001	5.27296E-001	-2.57074E-002	-3.68719E-002	7.08383E-001	-4.38479E-002	-1.34684E-003	1.13192E-004	-1.24039E-002	-1.06958E-002	5.21456E-004	7.47921E-004	-1.43691E-002	8.89424E-004
	115	115	4.99634E-002	-1.98916E-002	0.00000E+000	-9.93851E-004	-1.96692E-001	3.98492E-002	3.43607E+001	11	...........	6.64860E-002	-5.48500E-003	6.11482E-001	5.27156E-001	-2.56985E-002	-3.68862E-002	7.08335E-001	-4.37890E-002	-1.32251E-003	1.09105E-004	-1.21634E-002	-1.04860E-002	5.11183E-004	7.33726E-004	-1.40899E-002	8.71033E-004
	116	116	4.99671E-002	-1.97652E-002	0.00000E+000	-9.87612E-004	-1.95433E-001	3.97900E-002	3.46812E+001	11	...........	6.63729E-002	-5.37069E-003	6.11473E-001	5.27024E-001	-2.56953E-002	-3.68912E-002	7.08357E-001	-4.38357E-002	-1.31188E-003	1.06153E-004	-1.20859E-002	-1.04168E-002	5.07873E-004	7.29165E-004	-1.40009E-002	8.66423E-004
	117	117	4.99658E-002	-1.96232E-002	0.00000E+000	-9.80490E-004	-1.94021E-001	3.98387E-002	3.47551E+001	11	...........	6.64729E-002	-5.47000E-003	6.11395E-001	5.26945E-001	-2.57054E-002	-3.68746E-002	7.08391E-001	-4.38476E-002	-1.30441E-003	1.07339E-004	-1.19975E-002	-1.03404E-002	5.04423E-004	7.23598E-004	-1.39009E-002	8.60432E-004
	118	118	4.99630E-002	-1.94990E-002	0.00000E+000	-9.74228E-004	-1.92776E-001	3.99809E-002	3.53097E+001	11	...........	6.67199E-002	-5.51111E-003	6.11288E-001	5.26928E-001	-2.56983E-002	-3.68632E-002	7.08393E-001	-4.37903E-002	-1.30097E-003	1.07461E-004	-1.19195E-002	-1.02746E-002	5.01092E-004	7.18796E-004	-1.38130E-002	8.53867E-004
	119	119	4.99632E-002	-1.92286E-002	0.00000E+000	-9.60720E-004	-1.90112E-001	3.99153E-002	3.51078E+001	11	...........	6.65972E-002	-5.55458E-003	6.11219E-001	5.26863E-001	-2.56550E-002	-3.68499E-002	7.08330E-001	-4.38667E-002	-1.28057E-003	1.06807E-004	-1.17529E-002	-1.01308E-002	4.93309E-004	7.08570E-004	-1.36202E-002	8.43493E-004
	120	120	4.99623E-002	-1.87178E-002	0.00000E+000	-9.35186E-004	-1.85027E-001	3.98286E-002	3.43209E+001	11	...........	6.64614E-002	-5.46750E-003	6.11245E-001	5.26922E-001	-2.56322E-002	-3.68540E-002	7.08242E-001	-4.39567E-002	-1.24401E-003	1.02340E-004	-1.14412E-002	-9.86283E-003	4.79779E-004	6.89827E-004	-1.32567E-002	8.22773E-004
	121	121	4.99688E-002	-1.86239E-002	0.00000E+000	-9.30616E-004	-1.84092E-001	3.99570E-002	3.50769E+001	11	...........	6.66482E-002	-5.44389E-003	6.11166E-001	5.26959E-001	-2.56415E-002	-3.68493E-002	7.08307E-001	-4.38756E-002	-1.24125E-003	1.01387E-004	-1.13823E-002	-9.81406E-003	4.77546E-004	6.86279E-004	-1.31915E-002	8.17136E-004
	122	122	4.99641E-002	-1.85237E-002	0.00000E+000	-9.25519E-004	-1.83089E-001	3.99377E-002	3.55181E+001	11	...........	6.66399E-002	-5.53736E-003	6.11064E-001	5.27051E-001	-2.56454E-002	-3.68153E-002	7.08360E-001	-4.39097E-002	-1.23442E-003	1.02572E-004	-1.13192E-002	-9.76292E-003	4.75048E-004	6.81955E-004	-1.31214E-002	8.13370E-004
	123	123	4.99647E-002	-1.82959E-002	0.00000E+000	-9.14150E-004	-1.80824E-001	3.99781E-002	3.55660E+001	11	...........	6.67062E-002	-5.56792E-003	6.11102E-001	5.26871E-001	-2.56350E-002	-3.68079E-002	7.08343E-001	-4.38657E-002	-1.22045E-003	1.01870E-004	-1.11807E-002	-9.63958E-003	4.69016E-004	6.73435E-004	-1.29598E-002	8.02563E-004
	124	124	4.99592E-002	-1.79502E-002	0.00000E+000	-8.96777E-004	-1.77404E-001	3.99373E-002	3.43414E+001	11	...........	6.66283E-002	-5.47736E-003	6.10939E-001	5.26870E-001	-2.56515E-002	-3.68079E-002	7.08274E-001	-4.37733E-002	-1.19599E-003	9.83198E-005	-1.09665E-002	-9.45742E-003	4.60450E-004	6.60710E-004	-1.27137E-002	7.85740E-004
	125	125	4.99709E-002	-1.77067E-002	0.00000E+000	-8.84821E-004	-1.74971E-001	3.99362E-002	3.51910E+001	11	...........	6.66482E-002	-5.40833E-003	6.10974E-001	5.26882E-001	-2.56485E-002	-3.68300E-002	7.08385E-001	-4.37628E-002	-1.18012E-003	9.57639E-005	-1.08184E-002	-9.32936E-003	4.54151E-004	6.52139E-004	-1.25432E-002	7.74896E-004
	126	126	4.99661E-002	-1.77660E-002	0.00000E+000	-8.87700E-004	-1.75561E-001	3.99802E-002	3.45149E+001	11	...........	6.67104E-002	-5.42181E-003	6.11018E-001	5.26817E-001	-2.56569E-002	-3.68571E-002	7.08405E-001	-4.38950E-002	-1.18518E-003	9.63240E-005	-1.08554E-002	-9.35946E-003	4.55822E-004	6.54804E-004	-1.25856E-002	7.79840E-004
	127	127	4.99645E-002	-1.73301E-002	0.00000E+000	-8.65891E-004	-1.71220E-001	3.99416E-002	3.52905E+001	11	...........	6.66514E-002	-5.38847E-003	6.11134E-001	5.26830E-001	-2.56631E-002	-3.68629E-002	7.08303E-001	-4.38735E-002	-1.15508E-003	9.33829E-005	-1.05910E-002	-9.13002E-003	4.44744E-004	6.38839E-004	-1.22750E-002	7.60333E-004
	128	128	4.99640E-002	-1.72283E-002	0.00000E+000	-8.60797E-004	-1.70208E-001	4.00347E-002	3.55318E+001	11	...........	6.67914E-002	-5.41222E-003	6.11220E-001	5.26812E-001	-2.56922E-002	-3.68644E-002	7.08347E-001	-4.39806E-002	-1.15070E-003	9.32436E-005	-1.05303E-002	-9.07609E-003	4.42634E-004	6.35113E-004	-1.22036E-002	7.57712E-004
	129	129	4.99639E-002	-1.69801E-002	0.00000E+000	-8.48394E-004	-1.67733E-001	4.00165E-002	3.49546E+001	11	...........	6.67592E-002	-5.51917E-003	6.11230E-001	5.26835E-001	-2.57167E-002	-3.68992E-002	7.08346E-001	-4.39047E-002	-1.13358E-003	9.37163E-005	-1.03788E-002	-8.94573E-003	4.36673E-004	6.26553E-004	-1.20278E-002	7.45509E-004
	130	130	4.99625E-002	-1.67823E-002	0.00000E+000	-8.38488E-004	-1.65761E-001	3.99693E-002	3.47025E+001	11	...........	6.66987E-002	-5.48208E-003	6.11350E-001	5.26760E-001	-2.57174E-002	-3.68857E-002	7.08289E-001	-4.38531E-002	-1.11936E-003	9.20022E-005	-1.02599E-002	-8.84027E-003	4.31598E-004	6.19028E-004	-1.18868E-002	7.35957E-004
	131	131	4.99696E-002	-1.65659E-002	0.00000E+000	-8.27788E-004	-1.63628E-001	4.00264E-002	3.54746E+001	11	...........	6.67983E-002	-5.34722E-003	6.11516E-001	5.26807E-001	-2.57292E-002	-3.68619E-002	7.08440E-001	-4.39387E-002	-1.10657E-003	8.85813E-005	-1.01303E-002	-8.72702E-003	4.26226E-004	6.10650E-004	-1.17359E-002	7.27883E-004
	132	132	4.99647E-002	-1.65145E-002	0.00000E+000	-8.25139E-004	-1.63114E-001	4.00482E-002	3.57596E+001	11	...........	6.68187E-002	-5.44194E-003	6.11559E-001	5.26823E-001	-2.57225E-002	-3.68721E-002	7.08433E-001	-4.39296E-002	-1.10348E-003	8.98707E-005	-1.00996E-002	-8.70020E-003	4.24793E-004	6.08922E-004	-1.16994E-002	7.25473E-004
	133	133	4.99626E-002	-1.62458E-002	0.00000E+000	-8.11681E-004	-1.60440E-001	4.00577E-002	3.47276E+001	11	...........	6.68400E-002	-5.47417E-003	6.11488E-001	5.26867E-001	-2.57451E-002	-3.68744E-002	7.08344E-001	-4.38200E-002	-1.08587E-003	8.89320E-005	-9.93409E-003	-8.55936E-003	4.18249E-004	5.99053E-004	-1.15076E-002	7.11889E-004
	134	134	4.99649E-002	-1.57887E-002	0.00000E+000	-7.88882E-004	-1.55890E-001	3.99989E-002	3.45990E+001	11	...........	6.67354E-002	-5.38361E-003	6.11683E-001	5.26909E-001	-2.57619E-002	-3.69054E-002	7.08432E-001	-4.38363E-002	-1.05367E-003	8.50003E-005	-9.65769E-003	-8.31921E-003	4.06748E-004	5.82689E-004	-1.11852E-002	6.92118E-004
	135	135	4.99671E-002	-1.57231E-002	0.00000E+000	-7.85636E-004	-1.55237E-001	4.00293E-002	3.53610E+001	11	...........	6.67968E-002	-5.41819E-003	6.11713E-001	5.26921E-001	-2.57329E-002	-3.69131E-002	7.08419E-001	-4.39135E-002	-1.05025E-003	8.51907E-005	-9.61802E-003	-8.28482E-003	4.04600E-004	5.80387E-004	-1.11385E-002	6.90455E-004
	136	136	4.99656E-002	-1.57075E-002	0.00000E+000	-7.84833E-004	-1.55078E-001	4.01118E-002	3.54561E+001	11	...........	6.68953E-002	-5.34333E-003	6.11716E-001	5.27098E-001	-2.57407E-002	-3.69104E-002	7.08421E-001	-4.39132E-002	-1.05075E-003	8.39301E-005	-9.60850E-003	-8.27937E-003	4.04321E-004	5.79769E-004	-1.11275E-002	6.89764E-004
	137	137	4.99652E-002	-1.53844E-002	0.00000E+000	-7.68687E-004	-1.51871E-001	3.99922E-002	3.47312E+001	11	...........	6.67078E-002	-5.39597E-003	6.11467E-001	5.27416E-001	-2.57543E-002	-3.69078E-002	7.08321E-001	-4.38644E-002	-1.02626E-003	8.30140E-005	-9.40708E-003	-8.11400E-003	3.96215E-004	5.67805E-004	-1.08971E-002	6.74830E-004
	138	138	4.99637E-002	-1.53340E-002	0.00000E+000	-7.66141E-004	-1.51373E-001	4.02432E-002	3.56618E+001	11	...........	6.71443E-002	-5.45819E-003	6.11404E-001	5.27394E-001	-2.57772E-002	-3.69199E-002	7.08402E-001	-4.38240E-002	-1.02959E-003	8.36958E-005	-9.37526E-003	-8.08704E-003	3.95267E-004	5.66128E-004	-1.08626E-002	6.71997E-004
	139	139	4.99662E-002	-1.50558E-002	0.00000E+000	-7.52279E-004	-1.48602E-001	4.00537E-002	3.51505E+001	11	...........	6.68349E-002	-5.61361E-003	6.11303E-001	5.27435E-001	-2.57840E-002	-3.69249E-002	7.08263E-001	-4.37686E-002	-1.00625E-003	8.45173E-005	-9.20364E-003	-7.94094E-003	3.88199E-004	5.55932E-004	-1.06635E-002	6.58970E-004
	140	140	4.99656E-002	-1.48117E-002	0.00000E+000	-7.40075E-004	-1.46170E-001	4.00447E-002	3.52422E+001	11	...........	6.68328E-002	-5.71111E-003	6.11380E-001	5.27379E-001	-2.57819E-002	-3.69222E-002	7.08264E-001	-4.37433E-002	-9.89906E-004	8.45912E-005	-9.05557E-003	-7.81138E-003	3.81874E-004	5.46880E-004	-1.04906E-002	6.47913E-004
	141	141	4.99657E-002	-1.46495E-002	0.00000E+000	-7.31972E-004	-1.44553E-001	4.00677E-002	3.52053E+001	11	...........	6.68699E-002	-5.66653E-003	6.11465E-001	5.27374E-001	-2.57729E-002	-3.69550E-002	7.08341E-001	-4.38374E-002	-9.79609E-004	8.30117E-005	-8.95764E-003	-7.72575E-003	3.77560E-004	5.41371E-004	-1.03768E-002	6.42194E-004
	142	142	4.99645E-002	-1.45968E-002	0.00000E+000	-7.29323E-004	-1.44025E-001	4.02635E-002	3.57292E+001	11	...........	6.71850E-002	-5.46042E-003	6.11604E-001	5.27494E-001	-2.57647E-002	-3.69531E-002	7.08352E-001	-4.38249E-002	-9.80687E-004	7.97047E-005	-8.92747E-003	-7.69974E-003	3.76083E-004	5.39397E-004	-1.03397E-002	6.39704E-004
	143	143	4.99650E-002	-1.43901E-002	0.00000E+000	-7.18999E-004	-1.41961E-001	4.01042E-002	3.54601E+001	11	...........	6.69164E-002	-5.34972E-003	6.11653E-001	5.27557E-001	-2.57586E-002	-3.69869E-002	7.08284E-001	-4.37186E-002	-9.62930E-004	7.69828E-005	-8.80172E-003	-7.59157E-003	3.70668E-004	5.32244E-004	-1.01922E-002	6.29113E-004
	144	144	4.99627E-002	-1.39565E-002	0.00000E+000	-6.97305E-004	-1.37669E-001	4.00798E-002	3.45892E+001	11	...........	6.68632E-002	-5.33153E-003	6.11540E-001	5.27536E-001	-2.57397E-002	-3.69782E-002	7.08333E-001	-4.38519E-002	-9.33177E-004	7.44095E-005	-8.53497E-003	-7.36256E-003	3.59237E-004	5.16087E-004	-9.88586E-003	6.12020E-004
	145	145	4.99682E-002	-1.39181E-002	0.00000E+000	-6.95464E-004	-1.37292E-001	4.01756E-002	3.52864E+001	11	...........	6.70367E-002	-5.24000E-003	6.11317E-001	5.27531E-001	-2.57704E-002	-3.69686E-002	7.08443E-001	-4.38663E-002	-9.33025E-004	7.29310E-005	-8.50839E-003	-7.34224E-003	3.58676E-004	5.14534E-004	-9.86020E-003	6.10536E-004
	146	146	4.99645E-002	-1.39037E-002	0.00000E+000	-6.94689E-004	-1.37150E-001	4.02076E-002	3.53043E+001	11	...........	6.70921E-002	-5.31333E-003	6.11436E-001	5.27454E-001	-2.57735E-002	-3.69776E-002	7.08312E-001	-4.38028E-002	-9.32826E-004	7.38749E-005	-8.50120E-003	-7.33355E-003	3.58346E-004	5.14125E-004	-9.84814E-003	6.09020E-004
	147	147	4.99665E-002	-1.36362E-002	0.00000E+000	-6.81351E-004	-1.34485E-001	4.02113E-002	3.56848E+001	11	...........	6.70765E-002	-5.35389E-003	6.11383E-001	5.27430E-001	-2.57750E-002	-3.69824E-002	7.08354E-001	-4.38497E-002	-9.14667E-004	7.30065E-005	-8.33692E-003	-7.19212E-003	3.51472E-004	5.04298E-004	-9.65924E-003	5.97942E-004
	148	148	4.99653E-002	-1.35412E-002	0.00000E+000	-6.76590E-004	-1.33538E-001	4.02154E-002	3.58547E+001	11	...........	6.71093E-002	-5.39306E-003	6.11466E-001	5.27489E-001	-2.57697E-002	-3.70261E-002	7.08357E-001	-4.38022E-002	-9.08741E-004	7.30284E-005	-8.27999E-003	-7.14283E-003	3.48953E-004	5.01378E-004	-9.59200E-003	5.93135E-004
	149	149	4.99649E-002	-1.33732E-002	0.00000E+000	-6.68193E-004	-1.31867E-001	4.02060E-002	3.55921E+001	11	...........	6.70793E-002	-5.35778E-003	6.11399E-001	5.27556E-001	-2.57801E-002	-3.70276E-002	7.08370E-001	-4.38744E-002	-8.97067E-004	7.16508E-005	-8.17638E-003	-7.05513E-003	3.44764E-004	4.95179E-004	-9.47319E-003	5.86743E-004
	150	150	4.99643E-002	-1.30452E-002	0.00000E+000	-6.51795E-004	-1.28610E-001	4.00518E-002	3.42284E+001	11	...........	6.68278E-002	-5.43403E-003	6.11441E-001	5.27729E-001	-2.57768E-002	-3.70499E-002	7.08345E-001	-4.38533E-002	-8.71782E-004	7.08880E-005	-7.97637E-003	-6.88433E-003	3.36264E-004	4.83323E-004	-9.24050E-003	5.72076E-004
	151	151	4.99683E-002	-1.30388E-002	0.00000E+000	-6.51527E-004	-1.28543E-001	4.02972E-002	3.55461E+001	11	...........	6.72274E-002	-5.41736E-003	6.11561E-001	5.27728E-001	-2.57624E-002	-3.70478E-002	7.08319E-001	-4.38049E-002	-8.76565E-004	7.06360E-005	-7.97402E-003	-6.88095E-003	3.35911E-004	4.83059E-004	-9.23565E-003	5.71163E-004
	152	152	4.99669E-002	-1.29943E-002	0.00000E+000	-6.49284E-004	-1.28106E-001	4.02682E-002	3.58030E+001	11	...........	6.72007E-002	-5.46306E-003	6.11509E-001	5.27730E-001	-2.57572E-002	-3.70437E-002	7.08274E-001	-4.38837E-002	-8.73225E-004	7.09885E-005	-7.94613E-003	-6.85748E-003	3.34697E-004	4.81357E-004	-9.20351E-003	5.70238E-004
	153	153	4.99640E-002	-1.27657E-002	0.00000E+000	-6.37824E-004	-1.25837E-001	4.02383E-002	3.53858E+001	11	...........	6.71326E-002	-5.50347E-003	6.11613E-001	5.27550E-001	-2.57669E-002	-3.70435E-002	7.08285E-001	-4.39296E-002	-8.56993E-004	7.02555E-005	-7.80765E-003	-6.73453E-003	3.28932E-004	4.72885E-004	-9.04173E-003	5.60791E-004
	154	154	4.99649E-002	-1.25373E-002	0.00000E+000	-6.26424E-004	-1.23560E-001	4.02165E-002	3.55450E+001	11	...........	6.71032E-002	-5.38167E-003	6.11537E-001	5.27531E-001	-2.57542E-002	-3.70168E-002	7.08284E-001	-4.39069E-002	-8.41292E-004	6.74715E-005	-7.66701E-003	-6.61381E-003	3.22887E-004	4.64090E-004	-8.87996E-003	5.50474E-004
	155	155	4.99625E-002	-1.23096E-002	0.00000E+000	-6.15020E-004	-1.21291E-001	4.02549E-002	3.42430E+001	11	...........	6.71718E-002	-5.41431E-003	6.11515E-001	5.27475E-001	-2.57489E-002	-3.70190E-002	7.08433E-001	-4.39246E-002	-8.26860E-004	6.66481E-005	-7.52752E-003	-6.49303E-003	3.16959E-004	4.55691E-004	-8.72055E-003	5.40695E-004
	156	156	4.99677E-002	-1.21992E-002	0.00000E+000	-6.09568E-004	-1.20192E-001	4.02200E-002	3.49889E+001	11	...........	6.70860E-002	-5.43208E-003	6.11426E-001	5.27480E-001	-2.57592E-002	-3.70226E-002	7.08370E-001	-4.38990E-002	-8.18398E-004	6.62673E-005	-7.45893E-003	-6.43486E-003	3.14242E-004	4.51648E-004	-8.64158E-003	5.35535E-004
	157	157	4.99674E-002	-1.21657E-002	0.00000E+000	-6.07890E-004	-1.19860E-001	4.03362E-002	3.58270E+001	11	...........	6.73093E-002	-5.40069E-003	6.11458E-001	5.27448E-001	-2.57843E-002	-3.70275E-002	7.08263E-001	-4.38889E-002	-8.18867E-004	6.57034E-005	-7.43883E-003	-6.41679E-003	3.13685E-004	4.50467E-004	-8.61654E-003	5.33940E-004
	158	158	4.99658E-002	-1.19963E-002	0.00000E+000	-5.99404E-004	-1.18169E-001	4.02461E-002	3.58916E+001	11	...........	6.71604E-002	-5.39042E-003	6.11473E-001	5.27539E-001	-2.57914E-002	-3.70172E-002	7.08185E-001	-4.39083E-002	-8.05676E-004	6.46650E-005	-7.33541E-003	-6.32851E-003	3.09401E-004	4.44069E-004	-8.49559E-003	5.26737E-004
	159	159	4.99659E-002	-1.18936E-002	0.00000E+000	-5.94273E-004	-1.17141E-001	4.02827E-002	3.51907E+001	11	...........	6.72196E-002	-5.40611E-003	6.11610E-001	5.27580E-001	-2.57642E-002	-3.70211E-002	7.08330E-001	-4.38760E-002	-7.99480E-004	6.42979E-005	-7.27422E-003	-6.27481E-003	3.06428E-004	4.40313E-004	-8.42457E-003	5.21842E-004
	160	160	4.99657E-002	-1.16730E-002	0.00000E+000	-5.83252E-004	-1.14948E-001	4.02234E-002	3.57446E+001	11	...........	6.71149E-002	-5.48944E-003	6.11812E-001	5.27577E-001	-2.57718E-002	-3.70471E-002	7.08330E-001	-4.38646E-002	-7.83434E-004	6.40785E-005	-7.14170E-003	-6.15843E-003	3.00835E-004	4.32452E-004	-8.26836E-003	5.12033E-004
	161	161	4.99659E-002	-1.15465E-002	0.00000E+000	-5.76931E-004	-1.13697E-001	4.03708E-002	3.60345E+001	11	...........	6.73628E-002	-5.49792E-003	6.11833E-001	5.27522E-001	-2.57739E-002	-3.70560E-002	7.08373E-001	-4.37829E-002	-7.77803E-004	6.34816E-005	-7.06452E-003	-6.09102E-003	2.97598E-004	4.27866E-004	-8.17921E-003	5.05539E-004
	162	162	4.99633E-002	-1.14157E-002	0.00000E+000	-5.70367E-004	-1.12409E-001	4.01864E-002	3.45244E+001	11	...........	6.70489E-002	-5.53292E-003	6.11628E-001	5.27453E-001	-2.57767E-002	-3.70544E-002	7.08535E-001	-4.39524E-002	-7.65412E-004	6.31622E-005	-6.98217E-003	-6.02125E-003	2.94259E-004	4.23003E-004	-8.08844E-003	5.01748E-004
	163	163	4.99687E-002	-1.12551E-002	0.00000E+000	-5.62401E-004	-1.10805E-001	4.03258E-002	3.58274E+001	11	...........	6.72865E-002	-5.49375E-003	6.11494E-001	5.27460E-001	-2.58069E-002	-3.70397E-002	7.08402E-001	-4.39831E-002	-7.57315E-004	6.18326E-005	-6.88241E-003	-5.93661E-003	2.90459E-004	4.16885E-004	-7.97312E-003	4.95033E-004
	164	164	4.99657E-002	-1.12566E-002	0.00000E+000	-5.62445E-004	-1.10821E-001	4.03602E-002	3.59384E+001	11	...........	6.73336E-002	-5.41736E-003	6.11582E-001	5.27499E-001	-2.58054E-002	-3.70464E-002	7.08276E-001	-4.39253E-002	-7.57949E-004	6.09812E-005	-6.88435E-003	-5.93786E-003	2.90482E-004	4.17017E-004	-7.97280E-003	4.94451E-004
	165	165	4.99646E-002	-1.10342E-002	0.00000E+000	-5.51317E-004	-1.08607E-001	4.02335E-002	3.52754E+001	11	...........	6.71339E-002	-5.34611E-003	6.11748E-001	5.27491E-001	-2.57975E-002	-3.70697E-002	7.08326E-001	-4.38678E-002	-7.40766E-004	5.89898E-005	-6.75012E-003	-5.82042E-003	2.84654E-004	4.09033E-004	-7.81578E-003	4.84044E-004
	166	166	4.99674E-002	-1.09669E-002	0.00000E+000	-5.47990E-004	-1.07933E-001	4.03802E-002	3.58499E+001	11	...........	6.73776E-002	-5.36458E-003	6.11611E-001	5.27422E-001	-2.57911E-002	-3.70668E-002	7.08268E-001	-4.39760E-002	-7.38927E-004	5.88331E-005	-6.70751E-003	-5.78421E-003	2.82850E-004	4.06510E-004	-7.76754E-003	4.82282E-004
	167	167	4.99657E-002	-1.08376E-002	0.00000E+000	-5.41510E-004	-1.06650E-001	4.03193E-002	3.62068E+001	11	...........	6.72711E-002	-5.50847E-003	6.11632E-001	5.27182E-001	-2.57992E-002	-3.70935E-002	7.08301E-001	-4.38417E-002	-7.29060E-004	5.96989E-005	-6.62866E-003	-5.71341E-003	2.79602E-004	4.02006E-004	-7.67632E-003	4.75141E-004
	168	168	4.99662E-002	-1.07276E-002	0.00000E+000	-5.36018E-004	-1.05551E-001	4.03208E-002	3.57855E+001	11	...........	6.72815E-002	-5.68681E-003	6.11859E-001	5.27073E-001	-2.58058E-002	-3.71049E-002	7.08380E-001	-4.38206E-002	-7.21770E-004	6.10058E-005	-6.56378E-003	-5.65424E-003	2.76835E-004	3.98046E-004	-7.59923E-003	4.70090E-004
	169	169	4.99660E-002	-1.04642E-002	0.00000E+000	-5.22854E-004	-1.02950E-001	4.02147E-002	3.54368E+001	11	...........	6.71057E-002	-5.55736E-003	6.11911E-001	5.26904E-001	-2.57997E-002	-3.70994E-002	7.08424E-001	-4.38015E-002	-7.02207E-004	5.81533E-005	-6.40315E-003	-5.51362E-003	2.69973E-004	3.88216E-004	-7.41309E-003	4.58348E-004
	170	170	4.99652E-002	-1.04059E-002	0.00000E+000	-5.19934E-004	-1.02377E-001	4.04642E-002	3.58460E+001	11	...........	6.75046E-002	-5.52069E-003	6.11909E-001	5.26812E-001	-2.57907E-002	-3.71024E-002	7.08357E-001	-4.39606E-002	-7.02448E-004	5.74479E-005	-6.36748E-003	-5.48197E-003	2.68376E-004	3.86085E-004	-7.37111E-003	4.57450E-004
	171	171	4.99664E-002	-1.02387E-002	0.00000E+000	-5.11590E-004	-1.00737E-001	4.02371E-002	3.50979E+001	11	...........	6.71383E-002	-5.41917E-003	6.12170E-001	5.26783E-001	-2.58194E-002	-3.70744E-002	7.08329E-001	-4.39208E-002	-6.87409E-004	5.54852E-005	-6.26783E-003	-5.39357E-003	2.64357E-004	3.79594E-004	-7.25236E-003	4.49692E-004
	172	172	4.99654E-002	-1.01275E-002	0.00000E+000	-5.06023E-004	-9.96280E-002	4.03090E-002	3.56053E+001	11	...........	6.72514E-002	-5.31153E-003	6.12210E-001	5.26852E-001	-2.58311E-002	-3.70858E-002	7.08359E-001	-4.39062E-002	-6.81086E-004	5.37923E-005	-6.20014E-003	-5.33567E-003	2.61604E-004	3.75585E-004	-7.17388E-003	4.44659E-004
	173	173	4.99670E-002	-1.01010E-002	0.00000E+000	-5.04715E-004	-9.93587E-002	4.04630E-002	3.62908E+001	11	...........	6.75096E-002	-5.38611E-003	6.12314E-001	5.26924E-001	-2.58208E-002	-3.70919E-002	7.08217E-001	-4.38617E-002	-6.81912E-004	5.44049E-005	-6.18496E-003	-5.32244E-003	2.60815E-004	3.74664E-004	-7.15367E-003	4.43045E-004
	174	174	4.99663E-002	-9.99719E-003	0.00000E+000	-4.99523E-004	-9.83260E-002	4.03921E-002	3.61594E+001	11	...........	6.73874E-002	-5.44639E-003	6.12241E-001	5.26976E-001	-2.58069E-002	-3.70782E-002	7.08143E-001	-4.39431E-002	-6.73684E-004	5.44486E-005	-6.12069E-003	-5.26828E-003	2.57997E-004	3.70678E-004	-7.07944E-003	4.39307E-004
	175	175	4.99642E-002	-9.84116E-003	0.00000E+000	-4.91706E-004	-9.67733E-002	4.04197E-002	3.52648E+001	11	...........	6.74389E-002	-5.42194E-003	6.12234E-001	5.26916E-001	-2.57842E-002	-3.70417E-002	7.08270E-001	-4.39124E-002	-6.63677E-004	5.33582E-005	-6.02509E-003	-5.18547E-003	2.53746E-004	3.64533E-004	-6.97019E-003	4.32148E-004
	176	176	4.99660E-002	-9.59721E-003	0.00000E+000	-4.79535E-004	-9.43447E-002	4.03148E-002	3.52927E+001	11	...........	6.72468E-002	-5.48958E-003	6.12294E-001	5.26906E-001	-2.57857E-002	-3.70060E-002	7.08208E-001	-4.40325E-002	-6.45382E-004	5.26847E-005	-5.87632E-003	-5.05683E-003	2.47471E-004	3.55154E-004	-6.79682E-003	4.22589E-004
	177	177	4.99683E-002	-9.64782E-003	0.00000E+000	-4.82085E-004	-9.48480E-002	4.04396E-002	3.61828E+001	11	...........	6.74764E-002	-5.51069E-003	6.12279E-001	5.27051E-001	-2.57846E-002	-3.69868E-002	7.08189E-001	-4.40003E-002	-6.51000E-004	5.31662E-005	-5.90715E-003	-5.08490E-003	2.48765E-004	3.56842E-004	-6.83248E-003	4.24507E-004
	178	178	4.99655E-002	-9.49741E-003	0.00000E+000	-4.74543E-004	-9.33493E-002	4.03331E-002	3.45624E+001	11	...........	6.72883E-002	-5.47278E-003	6.12459E-001	5.27031E-001	-2.57821E-002	-3.69675E-002	7.08229E-001	-4.39382E-002	-6.39065E-004	5.19772E-005	-5.81677E-003	-5.00543E-003	2.44863E-004	3.51095E-004	-6.72635E-003	4.17299E-004
	179	179	4.99660E-002	-9.40005E-003	0.00000E+000	-4.69683E-004	-9.23780E-002	4.04732E-002	3.59855E+001	11	...........	6.75332E-002	-5.44889E-003	6.12677E-001	5.26930E-001	-2.57693E-002	-3.69390E-002	7.08243E-001	-4.39031E-002	-6.34815E-004	5.12198E-005	-5.75919E-003	-4.95316E-003	2.42233E-004	3.47229E-004	-6.65752E-003	4.12691E-004
	180	180	4.99665E-002	-9.31496E-003	0.00000E+000	-4.65436E-004	-9.15300E-002	4.04114E-002	3.60884E+001	11	...........	6.74254E-002	-5.43625E-003	6.12620E-001	5.26983E-001	-2.57439E-002	-3.69518E-002	7.08325E-001	-4.39104E-002	-6.28065E-004	5.06384E-005	-5.70653E-003	-4.90882E-003	2.39803E-004	3.44205E-004	-6.59801E-003	4.09024E-004
	181	181	4.99661E-002	-9.19227E-003	0.00000E+000	-4.59302E-004	-9.03020E-002	4.04220E-002	3.61362E+001	11	...........	6.74451E-002	-5.34444E-003	6.12586E-001	5.26902E-001	-2.57426E-002	-3.69258E-002	7.08274E-001	-4.38518E-002	-6.19974E-004	4.91276E-005	-5.63106E-003	-4.84342E-003	2.36633E-004	3.39432E-004	-6.51064E-003	4.03098E-004
	182	182	4.99672E-002	-9.14114E-003	0.00000E+000	-4.56757E-004	-8.97860E-002	4.04084E-002	3.59348E+001	11	...........	6.74217E-002	-5.37403E-003	6.12537E-001	5.26800E-001	-2.57429E-002	-3.69189E-002	7.08301E-001	-4.37999E-002	-6.16311E-004	4.91247E-005	-5.59928E-003	-4.81555E-003	2.35320E-004	3.37481E-004	-6.47468E-003	4.00381E-004
	183	183	4.99643E-002	-8.95209E-003	0.00000E+000	-4.47285E-004	-8.79320E-002	4.03576E-002	3.54558E+001	11	...........	6.73222E-002	-5.31639E-003	6.12568E-001	5.26801E-001	-2.57403E-002	-3.69179E-002	7.08315E-001	-4.38628E-002	-6.02675E-004	4.75928E-005	-5.48377E-003	-4.71597E-003	2.30429E-004	3.30493E-004	-6.34090E-003	3.92664E-004
	184	184	4.99658E-002	-8.86171E-003	0.00000E+000	-4.42782E-004	-8.70427E-002	4.04737E-002	3.53485E+001	11	...........	6.75160E-002	-5.40653E-003	6.12601E-001	5.26762E-001	-2.57490E-002	-3.69389E-002	7.08409E-001	-4.38951E-002	-5.98307E-004	4.79111E-005	-5.42869E-003	-4.66801E-003	2.28180E-004	3.27342E-004	-6.27771E-003	3.88986E-004
	185	185	4.99686E-002	-8.80180E-003	0.00000E+000	-4.39814E-004	-8.64393E-002	4.03782E-002	3.61850E+001	11	...........	6.73721E-002	-5.54597E-003	6.12608E-001	5.26652E-001	-2.57626E-002	-3.69204E-002	7.08395E-001	-4.38875E-002	-5.92995E-004	4.88145E-005	-5.39205E-003	-4.63548E-003	2.26757E-004	3.24966E-004	-6.23515E-003	3.86289E-004
	186	186	4.99666E-002	-8.77225E-003	0.00000E+000	-4.38319E-004	-8.61500E-002	4.04872E-002	3.57895E+001	11	...........	6.75532E-002	-5.62986E-003	6.12601E-001	5.26727E-001	-2.57483E-002	-3.69325E-002	7.08400E-001	-4.39064E-002	-5.92594E-004	4.93866E-005	-5.37389E-003	-4.62059E-003	2.25871E-004	3.23981E-004	-6.21426E-003	3.85158E-004
	187	187	4.99653E-002	-8.60652E-003	0.00000E+000	-4.30028E-004	-8.44973E-002	4.03517E-002	3.58353E+001	11	...........	6.73337E-002	-5.59014E-003	6.12609E-001	5.26751E-001	-2.57290E-002	-3.69100E-002	7.08358E-001	-4.38456E-002	-5.79509E-004	4.81116E-005	-5.27243E-003	-4.53349E-003	2.21437E-004	3.17667E-004	-6.09649E-003	3.77358E-004
	188	188	4.99665E-002	-8.55873E-003	0.00000E+000	-4.27650E-004	-8.40213E-002	4.05318E-002	3.60986E+001	11	...........	6.76189E-002	-5.58222E-003	6.12739E-001	5.26763E-001	-2.57324E-002	-3.69231E-002	7.08327E-001	-4.37668E-002	-5.78732E-004	4.77767E-005	-5.24427E-003	-4.50843E-003	2.20236E-004	3.16015E-004	-6.06238E-003	3.74588E-004
	189	189	4.99662E-002	-8.41044E-003	0.00000E+000	-4.20238E-004	-8.25413E-002	4.04378E-002	3.61736E+001	11	...........	6.74636E-002	-5.57292E-003	6.12707E-001	5.26664E-001	-2.57300E-002	-3.69412E-002	7.08363E-001	-4.38199E-002	-5.67399E-004	4.68707E-005	-5.15313E-003	-4.42947E-003	2.16401E-004	3.10692E-004	-5.95764E-003	3.68544E-004
	190	190	4.99639E-002	-8.29048E-003	0.00000E+000	-4.14225E-004	-8.13480E-002	4.03304E-002	3.50077E+001	11	...........	6.73036E-002	-5.50528E-003	6.12728E-001	5.26568E-001	-2.57264E-002	-3.69754E-002	7.08268E-001	-4.39304E-002	-5.57979E-004	4.56414E-005	-5.07980E-003	-4.36550E-003	2.13284E-004	3.06544E-004	-5.87188E-003	3.64204E-004
	191	191	4.99692E-002	-8.26870E-003	0.00000E+000	-4.13180E-004	-8.11347E-002	4.05373E-002	3.61308E+001	11	...........	6.76328E-002	-5.43139E-003	6.12651E-001	5.26453E-001	-2.56986E-002	-3.69814E-002	7.08333E-001	-4.38251E-002	-5.59235E-004	4.49105E-005	-5.06583E-003	-4.35308E-003	2.12494E-004	3.05788E-004	-5.85700E-003	3.62377E-004
	192	192	4.99639E-002	-8.19020E-003	0.00000E+000	-4.09215E-004	-8.03533E-002	4.04607E-002	3.59356E+001	11	...........	6.75099E-002	-5.41347E-003	6.12819E-001	5.26461E-001	-2.57231E-002	-3.69760E-002	7.08222E-001	-4.37796E-002	-5.52919E-004	4.43374E-005	-5.01911E-003	-4.31182E-003	2.10677E-004	3.02841E-004	-5.80048E-003	3.58563E-004
	193	193	4.99685E-002	-8.06192E-003	0.00000E+000	-4.02842E-004	-7.90773E-002	4.04724E-002	3.62257E+001	11	...........	6.75349E-002	-5.48097E-003	6.12918E-001	5.26513E-001	-2.57035E-002	-3.69914E-002	7.08293E-001	-4.38175E-002	-5.44461E-004	4.41872E-005	-4.94130E-003	-4.24470E-003	2.07219E-004	2.98222E-004	-5.71021E-003	3.53253E-004
	194	194	4.99664E-002	-7.97039E-003	0.00000E+000	-3.98251E-004	-7.81613E-002	4.04827E-002	3.60520E+001	11	...........	6.75403E-002	-5.51292E-003	6.12757E-001	5.26527E-001	-2.56958E-002	-3.69935E-002	7.08284E-001	-4.37383E-002	-5.38322E-004	4.39401E-005	-4.88391E-003	-4.19662E-003	2.04806E-004	2.94852E-004	-5.64530E-003	3.48611E-004
	195	195	4.99651E-002	-7.83573E-003	0.00000E+000	-3.91513E-004	-7.68360E-002	4.03363E-002	3.46888E+001	11	...........	6.73115E-002	-5.60208E-003	6.12679E-001	5.26630E-001	-2.57187E-002	-3.69815E-002	7.08254E-001	-4.37692E-002	-5.27435E-004	4.38964E-005	-4.80079E-003	-4.12653E-003	2.01525E-004	2.89777E-004	-5.54969E-003	3.42964E-004
	196	196	4.99684E-002	-7.78576E-003	0.00000E+000	-3.89042E-004	-7.63420E-002	4.05485E-002	3.62560E+001	11	...........	6.76615E-002	-5.60486E-003	6.12533E-001	5.26590E-001	-2.57050E-002	-3.69815E-002	7.08324E-001	-4.38307E-002	-5.26796E-004	4.36381E-005	-4.76903E-003	-4.09990E-003	2.00133E-004	2.87929E-004	-5.51484E-003	3.41255E-004
	197	197	4.99660E-002	-7.77092E-003	0.00000E+000	-3.88282E-004	-7.62013E-002	4.05455E-002	3.57727E+001	11	...........	6.76450E-002	-5.48528E-003	6.12556E-001	5.26367E-001	-2.57083E-002	-3.69712E-002	7.08269E-001	-4.38132E-002	-5.25664E-004	4.26257E-005	-4.76012E-003	-4.09036E-003	1.99777E-004	2.87301E-004	-5.50390E-003	3.40469E-004
	198	198	4.99662E-002	-7.60259E-003	0.00000E+000	-3.79873E-004	-7.45193E-002	4.04302E-002	3.59725E+001	11	...........	6.74593E-002	-5.42903E-003	6.12580E-001	5.26368E-001	-2.56915E-002	-3.69971E-002	7.08263E-001	-4.38258E-002	-5.12866E-004	4.12747E-005	-4.65719E-003	-4.00176E-003	1.95322E-004	2.81274E-004	-5.38464E-003	3.33190E-004
	199	199	4.99654E-002	-7.51007E-003	0.00000E+000	-3.75243E-004	-7.35927E-002	4.05602E-002	3.54582E+001	11	...........	6.76693E-002	-5.43333E-003	6.12441E-001	5.26600E-001	-2.56853E-002	-3.70231E-002	7.08276E-001	-4.39158E-002	-5.08201E-004	4.08047E-005	-4.59947E-003	-3.95480E-003	1.92898E-004	2.78046E-004	-5.31920E-003	3.29811E-004
	200	200	4.99686E-002	-7.44959E-003	0.00000E+000	-3.72246E-004	-7.29920E-002	4.04953E-002	3.55560E+001	11	...........	6.75647E-002	-5.45083E-003	6.12315E-001	5.26516E-001	-2.56997E-002	-3.70094E-002	7.08290E-001	-4.39064E-002	-5.03329E-004	4.06065E-005	-4.56149E-003	-3.92233E-003	1.91452E-004	2.75705E-004	-5.27647E-003	3.27085E-004
	201	201	4.99662E-002	-7.38961E-003	0.00000E+000	-3.69231E-004	-7.23993E-002	4.04666E-002	3.60403E+001	11	...........	6.75236E-002	-5.54708E-003	6.12052E-001	5.26200E-001	-2.57058E-002	-3.69937E-002	7.08251E-001	-4.38817E-002	-4.98973E-004	4.09908E-005	-4.52283E-003	-3.88841E-003	1.89956E-004	2.73370E-004	-5.23370E-003	3.24269E-004
	202	202	4.99662E-002	-7.35919E-003	0.00000E+000	-3.67711E-004	-7.20933E-002	4.05846E-002	3.63739E+001	11	...........	6.77326E-002	-5.62278E-003	6.12140E-001	5.26015E-001	-2.57214E-002	-3.70007E-002	7.08208E-001	-4.38524E-002	-4.98458E-004	4.13791E-005	-4.50486E-003	-3.87105E-003	1.89289E-004	2.72295E-004	-5.21184E-003	3.22718E-004
	203	203	4.99666E-002	-7.27647E-003	0.00000E+000	-3.63580E-004	-7.12680E-002	4.05492E-002	3.64424E+001	11	...........	6.76496E-002	-5.45389E-003	6.12204E-001	5.25890E-001	-2.57215E-002	-3.70210E-002	7.08236E-001	-4.38531E-002	-4.92250E-004	3.96850E-005	-4.45468E-003	-3.82662E-003	1.87162E-004	2.69382E-004	-5.15345E-003	3.19095E-004
	204	204	4.99670E-002	-7.21821E-003	0.00000E+000	-3.60672E-004	-7.06860E-002	4.05426E-002	3.63981E+001	11	...........	6.76407E-002	-5.46347E-003	6.11938E-001	5.25963E-001	-2.57360E-002	-3.70024E-002	7.08231E-001	-4.38868E-002	-4.88245E-004	3.94365E-005	-4.41710E-003	-3.79651E-003	1.85768E-004	2.67091E-004	-5.11216E-003	3.16784E-004
	205	205	4.99660E-002	-7.07352E-003	0.00000E+000	-3.53436E-004	-6.92433E-002	4.04971E-002	3.57834E+001	11	...........	6.75786E-002	-5.48764E-003	6.11979E-001	5.25849E-001	-2.57336E-002	-3.69967E-002	7.08313E-001	-4.39160E-002	-4.78019E-004	3.88169E-005	-4.32885E-003	-3.71961E-003	1.82027E-004	2.61697E-004	-5.01027E-003	3.10641E-004
	206	206	4.99664E-002	-7.00858E-003	0.00000E+000	-3.50193E-004	-6.86013E-002	4.05673E-002	3.49426E+001	11	...........	6.76817E-002	-5.44458E-003	6.11840E-001	5.25851E-001	-2.57260E-002	-3.70231E-002	7.08180E-001	-4.37965E-002	-4.74352E-004	3.81588E-005	-4.28813E-003	-3.68547E-003	1.80303E-004	2.59479E-004	-4.96334E-003	3.06952E-004
	207	207	4.99670E-002	-6.90530E-003	0.00000E+000	-3.45038E-004	-6.75680E-002	4.04959E-002	3.60935E+001	11	...........	6.75647E-002	-5.44625E-003	6.11941E-001	5.25720E-001	-2.56987E-002	-3.70081E-002	7.08324E-001	-4.37187E-002	-4.66555E-004	3.76080E-005	-4.22564E-003	-3.63025E-003	1.77458E-004	2.55552E-004	-4.89119E-003	3.01891E-004
	208	208	4.99665E-002	-6.90087E-003	0.00000E+000	-3.44813E-004	-6.75220E-002	4.05271E-002	3.61297E+001	11	...........	6.76324E-002	-5.44361E-003	6.11956E-001	5.25860E-001	-2.56986E-002	-3.69936E-002	7.08262E-001	-4.37796E-002	-4.66722E-004	3.75657E-005	-4.22303E-003	-3.62889E-003	1.77343E-004	2.55288E-004	-4.88762E-003	3.02117E-004
	209	209	4.99669E-002	-6.83842E-003	0.00000E+000	-3.41694E-004	-6.69000E-002	4.05673E-002	3.62603E+001	11	...........	6.76815E-002	-5.37611E-003	6.11898E-001	5.25895E-001	-2.57042E-002	-3.70087E-002	7.08292E-001	-4.38229E-002	-4.62835E-004	3.67641E-005	-4.18442E-003	-3.59629E-003	1.75776E-004	2.53081E-004	-4.84360E-003	2.99680E-004
	210	210	4.99640E-002	-6.71492E-003	0.00000E+000	-3.35504E-004	-6.56660E-002	4.05327E-002	3.57012E+001	11	...........	6.76349E-002	-5.41639E-003	6.11852E-001	5.25940E-001	-2.56972E-002	-3.70000E-002	7.08271E-001	-4.38276E-002	-4.54163E-004	3.63706E-005	-4.10854E-003	-3.53165E-003	1.72555E-004	2.48452E-004	-4.75598E-003	2.94299E-004
	211	211	4.99687E-002	-6.64269E-003	0.00000E+000	-3.31926E-004	-6.49467E-002	4.04971E-002	3.56388E+001	11	...........	6.75528E-002	-5.43819E-003	6.11807E-001	5.26035E-001	-2.57114E-002	-3.69807E-002	7.08235E-001	-4.39201E-002	-4.48732E-004	3.61242E-005	-4.06405E-003	-3.49429E-003	1.70793E-004	2.45651E-004	-4.70458E-003	2.91748E-004
	212	212	4.99672E-002	-6.61778E-003	0.00000E+000	-3.30672E-004	-6.46953E-002	4.05577E-002	3.59832E+001	11	...........	6.76681E-002	-5.54986E-003	6.11844E-001	5.26100E-001	-2.57275E-002	-3.70007E-002	7.08262E-001	-4.38950E-002	-4.47812E-004	3.67278E-005	-4.04905E-003	-3.48161E-003	1.70259E-004	2.44862E-004	-4.68712E-003	2.90487E-004
	213	213	4.99671E-002	-6.52502E-003	0.00000E+000	-3.26036E-004	-6.37747E-002	4.04518E-002	3.61516E+001	11	...........	6.75176E-002	-5.46542E-003	6.11795E-001	5.26037E-001	-2.57107E-002	-3.69846E-002	7.08261E-001	-4.38517E-002	-4.40554E-004	3.56619E-005	-3.99197E-003	-3.43240E-003	1.67763E-004	2.41325E-004	-4.62141E-003	2.86133E-004
	214	214	4.99662E-002	-6.51018E-003	0.00000E+000	-3.25289E-004	-6.36313E-002	4.06831E-002	3.65293E+001	11	...........	6.79035E-002	-5.52861E-003	6.11719E-001	5.26015E-001	-2.57165E-002	-3.70069E-002	7.08149E-001	-4.38382E-002	-4.42064E-004	3.59922E-005	-3.98240E-003	-3.42445E-003	1.67419E-004	2.40922E-004	-4.61018E-003	2.85394E-004
	215	215	4.99668E-002	-6.43366E-003	0.00000E+000	-3.21469E-004	-6.28880E-002	4.05952E-002	3.63682E+001	11	...........	6.77251E-002	-5.57778E-003	6.11664E-001	5.26118E-001	-2.57219E-002	-3.70208E-002	7.08190E-001	-4.36885E-002	-4.35720E-004	3.58855E-005	-3.93524E-003	-3.38486E-003	1.65486E-004	2.38179E-004	-4.55625E-003	2.81077E-004
	216	216	4.99649E-002	-6.26917E-003	0.00000E+000	-3.13238E-004	-6.12533E-002	4.04462E-002	3.51291E+001	11	...........	6.74893E-002	-5.44972E-003	6.11565E-001	5.26111E-001	-2.57035E-002	-3.70390E-002	7.08205E-001	-4.38037E-002	-4.23102E-004	3.41652E-005	-3.83400E-003	-3.29828E-003	1.61139E-004	2.32204E-004	-4.43986E-003	2.74613E-004
	217	217	4.99680E-002	-6.23145E-003	0.00000E+000	-3.11373E-004	-6.08773E-002	4.05533E-002	3.59464E+001	11	...........	6.76700E-002	-5.30000E-003	6.11502E-001	5.26120E-001	-2.57154E-002	-3.70281E-002	7.08199E-001	-4.37379E-002	-4.21682E-004	3.30267E-005	-3.81054E-003	-3.27849E-003	1.60244E-004	2.30738E-004	-4.41310E-003	2.72550E-004
	218	218	4.99669E-002	-6.24054E-003	0.00000E+000	-3.11820E-004	-6.09680E-002	4.06565E-002	3.66732E+001	11	...........	6.78458E-002	-5.32208E-003	6.11610E-001	5.26142E-001	-2.57128E-002	-3.70321E-002	7.08195E-001	-4.37947E-002	-4.23395E-004	3.32127E-005	-3.81678E-003	-3.28341E-003	1.60462E-004	2.31100E-004	-4.41952E-003	2.73303E-004
	219	219	4.99674E-002	-6.18130E-003	0.00000E+000	-3.08863E-004	-6.03753E-002	4.05829E-002	3.65642E+001	11	...........	6.77107E-002	-5.47014E-003	6.11871E-001	5.26074E-001	-2.57107E-002	-3.70290E-002	7.08102E-001	-4.38254E-002	-4.18540E-004	3.38126E-005	-3.78215E-003	-3.25182E-003	1.58925E-004	2.28887E-004	-4.37699E-003	2.70898E-004
	220	220	4.99646E-002	-6.09053E-003	0.00000E+000	-3.04311E-004	-5.94727E-002	4.05362E-002	3.55029E+001	11	...........	6.76331E-002	-5.44694E-003	6.11861E-001	5.26290E-001	-2.57151E-002	-3.70354E-002	7.07980E-001	-4.38725E-002	-4.11921E-004	3.31748E-005	-3.72656E-003	-3.20538E-003	1.56619E-004	2.25565E-004	-4.31197E-003	2.67207E-004
	221	221	4.99686E-002	-6.02783E-003	0.00000E+000	-3.01202E-004	-5.88500E-002	4.06177E-002	3.65359E+001	11	...........	6.77512E-002	-5.52083E-003	6.11864E-001	5.26266E-001	-2.57090E-002	-3.70201E-002	7.08068E-001	-4.38537E-002	-4.08393E-004	3.32786E-005	-3.68821E-003	-3.17224E-003	1.54970E-004	2.23151E-004	-4.26811E-003	2.64343E-004
	222	222	4.99663E-002	-5.96019E-003	0.00000E+000	-2.97808E-004	-5.81720E-002	4.05663E-002	3.57742E+001	11	...........	6.76812E-002	-5.57417E-003	6.11916E-001	5.26227E-001	-2.56987E-002	-3.69843E-002	7.08110E-001	-4.38235E-002	-4.03393E-004	3.32231E-005	-3.64714E-003	-3.13641E-003	1.53169E-004	2.20433E-004	-4.22047E-003	2.61196E-004
	223	223	4.99673E-002	-5.89714E-003	0.00000E+000	-2.94664E-004	-5.75393E-002	4.05323E-002	3.57026E+001	11	...........	6.76368E-002	-5.51958E-003	6.11763E-001	5.26179E-001	-2.57067E-002	-3.69712E-002	7.08073E-001	-4.37762E-002	-3.98864E-004	3.25497E-005	-3.60765E-003	-3.10295E-003	1.51596E-004	2.18025E-004	-4.17560E-003	2.58155E-004
	224	224	4.99668E-002	-5.84313E-003	0.00000E+000	-2.91963E-004	-5.70080E-002	4.05097E-002	3.62203E+001	11	...........	6.75905E-002	-5.44597E-003	6.11829E-001	5.26327E-001	-2.57131E-002	-3.69818E-002	7.08274E-001	-4.36947E-002	-3.94941E-004	3.18215E-005	-3.57500E-003	-3.07540E-003	1.50245E-004	2.16090E-004	-4.13854E-003	2.55314E-004
	225	225	4.99671E-002	-5.83369E-003	0.00000E+000	-2.91493E-004	-5.69107E-002	4.06732E-002	3.67006E+001	11	...........	6.78492E-002	-5.37931E-003	6.11736E-001	5.26462E-001	-2.56874E-002	-3.69533E-002	7.08507E-001	-4.37706E-002	-3.95811E-004	3.13812E-005	-3.56868E-003	-3.07122E-003	1.49852E-004	2.15574E-004	-4.13321E-003	2.55344E-004
	226	226	4.99666E-002	-5.78239E-003	0.00000E+000	-2.88927E-004	-5.64020E-002	4.05638E-002	3.63147E+001	11	...........	6.76951E-002	-5.43806E-003	6.11781E-001	5.26487E-001	-2.57115E-002	-3.69490E-002	7.08436E-001	-4.36990E-002	-3.91440E-004	3.14450E-005	-3.53756E-003	-3.04435E-003	1.48674E-004	2.13654E-004	-4.09645E-003	2.52685E-004
	227	227	4.99669E-002	-5.66104E-003	0.00000E+000	-2.82865E-004	-5.51927E-002	4.05230E-002	3.55170E+001	11	...........	6.76065E-002	-5.50417E-003	6.11658E-001	5.26529E-001	-2.57167E-002	-3.69643E-002	7.08389E-001	-4.38228E-002	-3.82723E-004	3.11593E-005	-3.46262E-003	-2.98070E-003	1.45583E-004	2.09256E-004	-4.01022E-003	2.48083E-004
	228	228	4.99671E-002	-5.64011E-003	0.00000E+000	-2.81820E-004	-5.49873E-002	4.06153E-002	3.62086E+001	11	...........	6.77662E-002	-5.48111E-003	6.11657E-001	5.26624E-001	-2.57351E-002	-3.69442E-002	7.08299E-001	-4.39019E-002	-3.82209E-004	3.09141E-005	-3.44981E-003	-2.97022E-003	1.45149E-004	2.08369E-004	-3.99488E-003	2.47612E-004
	229	229	4.99670E-002	-5.61566E-003	0.00000E+000	-2.80598E-004	-5.47440E-002	4.05800E-002	3.65489E+001	11	...........	6.77125E-002	-5.46167E-003	6.11824E-001	5.26603E-001	-2.57287E-002	-3.69315E-002	7.08384E-001	-4.38685E-002	-3.80251E-004	3.06709E-005	-3.43580E-003	-2.95722E-003	1.44484E-004	2.07395E-004	-3.97805E-003	2.46351E-004
	230	230	4.99662E-002	-5.57433E-003	0.00000E+000	-2.78528E-004	-5.43333E-002	4.06554E-002	3.63232E+001	11	...........	6.78326E-002	-5.39736E-003	6.11912E-001	5.26683E-001	-2.57275E-002	-3.69075E-002	7.08431E-001	-4.37004E-002	-3.78122E-004	3.00867E-005	-3.41100E-003	-2.93591E-003	1.43414E-004	2.05735E-004	-3.94903E-003	2.43601E-004
	231	231	4.99667E-002	-5.47862E-003	0.00000E+000	-2.73749E-004	-5.33833E-002	4.05932E-002	3.57663E+001	11	...........	6.77411E-002	-5.41236E-003	6.12061E-001	5.26567E-001	-2.57222E-002	-3.69049E-002	7.08425E-001	-4.36868E-002	-3.71128E-004	2.96523E-005	-3.35325E-003	-2.88486E-003	1.40922E-004	2.02188E-004	-3.88120E-003	2.39344E-004
	232	232	4.99666E-002	-5.36754E-003	0.00000E+000	-2.68198E-004	-5.22760E-002	4.04739E-002	3.53696E+001	11	...........	6.75375E-002	-5.34333E-003	6.12016E-001	5.26646E-001	-2.57381E-002	-3.69037E-002	7.08331E-001	-4.38222E-002	-3.62510E-004	2.86805E-005	-3.28502E-003	-2.82680E-003	1.38150E-004	1.98082E-004	-3.80199E-003	2.35217E-004
	233	233	4.99677E-002	-5.38940E-003	0.00000E+000	-2.69296E-004	-5.24967E-002	4.06731E-002	3.60537E+001	11	...........	6.78601E-002	-5.34778E-003	6.12028E-001	5.26750E-001	-2.57174E-002	-3.69207E-002	7.08360E-001	-4.38604E-002	-3.65725E-004	2.88213E-005	-3.29846E-003	-2.83887E-003	1.38601E-004	1.98980E-004	-3.81763E-003	2.36381E-004
	234	234	4.99669E-002	-5.35091E-003	0.00000E+000	-2.67368E-004	-5.21120E-002	4.06002E-002	3.64686E+001	11	...........	6.77565E-002	-5.41417E-003	6.11939E-001	5.26832E-001	-2.57139E-002	-3.69440E-002	7.08365E-001	-4.38413E-002	-3.62559E-004	2.89707E-005	-3.27443E-003	-2.81903E-003	1.37593E-004	1.97684E-004	-3.79039E-003	2.34590E-004
	235	235	4.99664E-002	-5.29944E-003	0.00000E+000	-2.64794E-004	-5.15973E-002	4.06519E-002	3.65113E+001	11	...........	6.78368E-002	-5.36486E-003	6.11728E-001	5.26884E-001	-2.56976E-002	-3.69182E-002	7.08320E-001	-4.38751E-002	-3.59497E-004	2.84308E-005	-3.24182E-003	-2.79219E-003	1.36183E-004	1.95646E-004	-3.75370E-003	2.32514E-004
	236	236	4.99668E-002	-5.24609E-003	0.00000E+000	-2.62130E-004	-5.10733E-002	4.06402E-002	3.54562E+001	11	...........	6.78018E-002	-5.43028E-003	6.11658E-001	5.26958E-001	-2.57114E-002	-3.69201E-002	7.08467E-001	-4.39565E-002	-3.55695E-004	2.84877E-005	-3.20882E-003	-2.76447E-003	1.34884E-004	1.93686E-004	-3.71668E-003	2.30600E-004
	237	237	4.99667E-002	-5.15096E-003	0.00000E+000	-2.57377E-004	-5.01373E-002	4.05965E-002	3.57451E+001	11	...........	6.77456E-002	-5.45222E-003	6.11762E-001	5.27116E-001	-2.56937E-002	-3.68929E-002	7.08424E-001	-4.39639E-002	-3.48955E-004	2.80842E-005	-3.15117E-003	-2.71516E-003	1.32348E-004	1.90034E-004	-3.64907E-003	2.26456E-004
	238	238	4.99667E-002	-5.11493E-003	0.00000E+000	-2.55576E-004	-4.97780E-002	4.05677E-002	3.60112E+001	11	...........	6.76912E-002	-5.37875E-003	6.11841E-001	5.27140E-001	-2.57142E-002	-3.68950E-002	7.08438E-001	-4.39651E-002	-3.46236E-004	2.75119E-005	-3.12952E-003	-2.69629E-003	1.31526E-004	1.88715E-004	-3.62361E-003	2.24879E-004
	239	239	4.99678E-002	-5.11374E-003	0.00000E+000	-2.55522E-004	-4.97667E-002	4.07010E-002	3.64954E+001	11	...........	6.79079E-002	-5.32472E-003	6.11884E-001	5.27050E-001	-2.57511E-002	-3.68740E-002	7.08377E-001	-4.39344E-002	-3.47263E-004	2.72292E-005	-3.12901E-003	-2.69520E-003	1.31685E-004	1.88564E-004	-3.62245E-003	2.24669E-004
	240	240	4.99670E-002	-5.07473E-003	0.00000E+000	-2.53569E-004	-4.93820E-002	4.06457E-002	3.63490E+001	11	...........	6.78471E-002	-5.37250E-003	6.11746E-001	5.27171E-001	-2.57687E-002	-3.68750E-002	7.08388E-001	-4.39514E-002	-3.44306E-004	2.72640E-005	-3.10444E-003	-2.67525E-003	1.30769E-004	1.87131E-004	-3.59488E-003	2.23041E-004
	241	240.422	4.99664E-002	-5.04186E-003	0.00000E+000	-2.51924E-004	-4.90553E-002	4.06429E-002	3.52577E+001	11	...........	6.78080E-002	-5.41700E-003	6.11696E-001	5.27137E-001	-2.58004E-002	-3.68511E-002	7.08367E-001	-4.39621E-002	-3.41878E-004	2.73117E-005	-3.08409E-003	-2.65775E-003	1.30082E-004	1.85798E-004	-3.57149E-003	2.21651E-004
STARTTIMEOFFSET	QUANT	677265.6	Start Time Offset (s)
