EXPLAIN
TAG	PWR800_DISCHARGE
TITLE	LABEL	PWR Discharge	Test Identifier
DATE	LABEL	10/16/2022	Date
TIME	LABEL	7:27:30	Time
NOTES	NOTES	1	Notes...
	
PSTAT	PSTAT	REF3000-21114	Potentiostat
CAPACITY	QUANT	5.30000E-002	Capacity (A-hr)
CELLTYPE	SELECTOR	1	Cell Type
WORKINGCONNECTION	SELECTOR	0	Working Connection
MAXDISCHARGETIME	VARIABLEANDUNITS	7.20000E+003	s	2.00000E+000	hour(s)	Max Discharge Time
DISCHARGEMODE	MULTIPARAM	0	1.00000E-001	Discharge Mode	Constant Current	Amp(s)
VOLTAGEFINISH	TWOPARAM	T	5.00000E-003	7.20000E+003	Voltage Finish	I (A) <	Max Time(s)
SAMPLETIME	QUANT	1.00000E+000	Sample Period (s)
DISCHARGESTOPAT1	MULTIPARAM	1	5.00000E-002	Stop At 1	|Voltage| < Limit	V
DISCHARGESTOPAT2	MULTIPARAM	0	0.00000E+000	Stop At 2	None	N/A
AESELECTOR	AESELECTOR	0x1	T	Set Limits	AE Channels
AESBHCSELECTOR	TOGGLE	F	Save Both Half Cells
IRCOMP	TOGGLE	F	IR Measure
EOC	QUANT	0.539409	Open Circuit (V)
SEQUENCER	TOGGLE	TRUE	Run as Sequence
PSTATMODEL	IQUANT	5	Pstat Model
PSTATSECTION	LABEL	REF3000-21114	Pstat Section
PSTATSERIALNO	LABEL	21114	Pstat Serial Number
CTRLMODE	IQUANT	0	Control Mode
ELECTROMETER	IQUANT	0	RE=0 or CS=1
IESTAB	IQUANT	0	I/E Stability
CASPEED	IQUANT	4	Control Amp Speed
CONVENTION	IQUANT	1	Current Convention
ICHRANGE	IQUANT	2	Ich Range
ICHRANGEMODE	TOGGLE	T	Ich Auto Range
ICHOFFSETENABLE	TOGGLE	F	Ich Offset Enable
ICHOFFSET	QUANT	0	Ich Offset (V)
ICHFILTER	IQUANT	1	Ich Filter
VCHRANGE	IQUANT	3	Vch Range
VCHRANGEMODE	TOGGLE	T	Vch Auto Range
VCHOFFSETENABLE	TOGGLE	F	Vch Offset Enable
VCHOFFSET	QUANT	0	Vch Offset (V)
VCHFILTER	IQUANT	1	Vch Filter
ACHRANGE	IQUANT	2	Ach Range
ACHOFFSETENABLE	TOGGLE	F	Ach Offset Enable
ACHOFFSET	QUANT	0	Ach Offset (V)
ACHFILTER	IQUANT	1	Ach Filter
IERANGELOWERLIMIT	IQUANT	9	I/E Range Lower Limit
IERANGEMODE	TOGGLE	F	I/E AutoRange
IERANGE	IQUANT	9	I/E Range
POSFEEDENABLE	TOGGLE	F	Positive Feedback IR Comp
POSFEEDRESISTANCE	QUANT	0	Positive Feedback Resistance (ohm)
ACHSELECT	IQUANT	1	Ach Select
SENSECABLEID	IQUANT	13	Sense Cable ID
PWRCABLEID	IQUANT	13	Power Cable ID
DCCALDATE	LABEL		DC Calibration Date
ACCALDATE	LABEL		AC Calibration Date
THERMOSELECT	IQUANT	1	Thermo Select
FRAMEWORKVERSION	LABEL	7.8.6	Framework Version
INSTRUMENTVERSION	LABEL	4.50	Instrument Version
COMPLIANCEVOLTAGE	IQUANT	0	Compliance Voltage
CURVE	TABLE	95
	Pt	T	Vf	Im	Vu	Pwr	Sig	Ach	Temp	IERange	Over	Vf1	Vf2	Vf3	Vf4	Vf5	Vf6	Vf7	Vf8	Pwr1	Pwr2	Pwr3	Pwr4	Pwr5	Pwr6	Pwr7	Pwr8
	#	s	V	A	V	W	V	V	deg C	#	bits	V	V	V	V	V	V	V	V	W	W	W	W	W	W	W	W
	0	1	2.96407E-001	-1.00093E-001	0.00000E+000	-2.96682E-002	-9.94000E-001	3.54225E-002	2.85686E+001	11	...........	5.89108E-002	-4.29764E-003	5.75941E-001	6.20542E-001	-2.93633E-002	-3.90929E-002	6.65532E-001	-4.33396E-002	-5.89655E-003	4.30163E-004	-5.76476E-002	-6.21118E-002	2.93906E-003	3.91292E-003	-6.66150E-002	4.33798E-003
	1	2	2.00505E-001	-1.00094E-001	0.00000E+000	-2.00693E-002	-9.94000E-001	3.55722E-002	2.84677E+001	11	...........	5.91762E-002	-4.41875E-003	5.75872E-001	6.20489E-001	-2.93728E-002	-3.90978E-002	6.65607E-001	-4.33186E-002	-5.92317E-003	4.42289E-004	-5.76411E-002	-6.21070E-002	2.94003E-003	3.91344E-003	-6.66231E-002	4.33592E-003
	2	3	1.17111E-001	-1.00093E-001	0.00000E+000	-1.17220E-002	-9.94000E-001	3.54856E-002	2.76592E+001	11	...........	5.90136E-002	-4.51472E-003	5.75848E-001	6.20550E-001	-2.93432E-002	-3.91079E-002	6.65562E-001	-4.33554E-002	-5.90688E-003	4.51894E-004	-5.76387E-002	-6.21130E-002	2.93706E-003	3.91445E-003	-6.66184E-002	4.33959E-003
	3	3.37167	6.39208E-002	-1.00093E-001	0.00000E+000	-6.39805E-003	-9.94000E-001	3.54422E-002	2.65932E+001	11	...........	5.89660E-002	-4.47197E-003	5.75806E-001	6.20620E-001	-2.93950E-002	-3.90519E-002	6.65484E-001	-4.34055E-002	-5.90211E-003	4.47615E-004	-5.76344E-002	-6.21200E-002	2.94225E-003	3.90884E-003	-6.66106E-002	4.34460E-003
	4	4	4.94095E-002	-8.46954E-002	0.00000E+000	-4.18476E-003	-8.40908E-001	3.55735E-002	2.71739E+001	11	...........	5.91819E-002	-4.46331E-003	5.75842E-001	6.20664E-001	-2.93154E-002	-3.90572E-002	6.65463E-001	-4.33543E-002	-5.01244E-003	3.78022E-004	-4.87712E-002	-5.25674E-002	2.48288E-003	3.30797E-003	-5.63617E-002	3.67191E-003
	5	5	4.96799E-002	-6.02573E-002	0.00000E+000	-2.99358E-003	-5.97953E-001	3.57110E-002	2.81558E+001	11	...........	5.93996E-002	-4.43569E-003	5.75889E-001	6.20696E-001	-2.93464E-002	-3.90565E-002	6.65598E-001	-4.33447E-002	-3.57926E-003	2.67283E-004	-3.47015E-002	-3.74014E-002	1.76833E-003	2.35344E-003	-4.01071E-002	2.61183E-003
	6	6	4.98295E-002	-4.36914E-002	0.00000E+000	-2.17712E-003	-4.33255E-001	3.56220E-002	2.87185E+001	11	...........	5.92660E-002	-4.49625E-003	5.75858E-001	6.20714E-001	-2.93496E-002	-3.90753E-002	6.65644E-001	-4.33344E-002	-2.58941E-003	1.96447E-004	-2.51601E-002	-2.71198E-002	1.28232E-003	1.70725E-003	-2.90829E-002	1.89334E-003
	7	7	4.98890E-002	-3.45766E-002	0.00000E+000	-1.72499E-003	-3.42627E-001	3.57944E-002	3.01142E+001	11	...........	5.95317E-002	-4.43347E-003	5.75971E-001	6.20730E-001	-2.93669E-002	-3.90636E-002	6.65532E-001	-4.33474E-002	-2.05840E-003	1.53294E-004	-1.99151E-002	-2.14627E-002	1.01541E-003	1.35069E-003	-2.30118E-002	1.49880E-003
	8	8	4.99265E-002	-2.87588E-002	0.00000E+000	-1.43583E-003	-2.84803E-001	3.58067E-002	3.06101E+001	11	...........	5.95203E-002	-4.50458E-003	5.75764E-001	6.20722E-001	-2.93706E-002	-3.90467E-002	6.65532E-001	-4.33451E-002	-1.71173E-003	1.29547E-004	-1.65583E-002	-1.78512E-002	8.44663E-004	1.12294E-003	-1.91399E-002	1.24656E-003
	9	9	4.99449E-002	-2.47590E-002	0.00000E+000	-1.23658E-003	-2.45021E-001	3.58498E-002	3.05900E+001	11	...........	5.96132E-002	-4.48889E-003	5.75597E-001	6.20670E-001	-2.93615E-002	-3.90540E-002	6.65641E-001	-4.33569E-002	-1.47596E-003	1.11140E-004	-1.42512E-002	-1.53671E-002	7.26962E-004	9.66938E-004	-1.64806E-002	1.07347E-003
	10	10	4.99560E-002	-2.19785E-002	0.00000E+000	-1.09796E-003	-2.17374E-001	3.58714E-002	3.12504E+001	11	...........	5.96282E-002	-4.47944E-003	5.75551E-001	6.20664E-001	-2.93574E-002	-3.90881E-002	6.65583E-001	-4.33769E-002	-1.31054E-003	9.84516E-005	-1.26498E-002	-1.36413E-002	6.45231E-004	8.59098E-004	-1.46285E-002	9.53361E-004
	11	11	4.99603E-002	-1.99110E-002	0.00000E+000	-9.94761E-004	-1.96827E-001	3.58374E-002	3.05132E+001	11	...........	5.95815E-002	-4.60486E-003	5.75581E-001	6.20752E-001	-2.93782E-002	-3.90650E-002	6.65612E-001	-4.35068E-002	-1.18633E-003	9.16874E-005	-1.14604E-002	-1.23598E-002	5.84949E-004	7.77823E-004	-1.32530E-002	8.66264E-004
	12	12	4.99791E-002	-1.84352E-002	0.00000E+000	-9.21376E-004	-1.82142E-001	3.59303E-002	3.14119E+001	11	...........	5.97567E-002	-4.58500E-003	5.75506E-001	6.20838E-001	-2.93756E-002	-3.90518E-002	6.65712E-001	-4.34804E-002	-1.10163E-003	8.45255E-005	-1.06096E-002	-1.14453E-002	5.41545E-004	7.19929E-004	-1.22726E-002	8.01572E-004
	13	13	4.99762E-002	-1.73800E-002	0.00000E+000	-8.68589E-004	-1.71649E-001	3.60080E-002	3.15572E+001	11	...........	5.98607E-002	-4.57403E-003	5.75531E-001	6.20828E-001	-2.93689E-002	-3.90393E-002	6.65762E-001	-4.33537E-002	-1.04038E-003	7.94967E-005	-1.00027E-002	-1.07900E-002	5.10432E-004	6.78504E-004	-1.15710E-002	7.53489E-004
	14	14	4.99767E-002	-1.63499E-002	0.00000E+000	-8.17114E-004	-1.61407E-001	3.58778E-002	3.16381E+001	11	...........	5.96554E-002	-4.60083E-003	5.75398E-001	6.20857E-001	-2.93772E-002	-3.90417E-002	6.65800E-001	-4.33693E-002	-9.75359E-004	7.52231E-005	-9.40770E-003	-1.01509E-002	4.80314E-004	6.38327E-004	-1.08858E-002	7.09083E-004
	15	15	4.99799E-002	-1.55944E-002	0.00000E+000	-7.79406E-004	-1.53885E-001	3.60400E-002	3.18590E+001	11	...........	5.99097E-002	-4.58750E-003	5.75427E-001	6.20780E-001	-2.93751E-002	-3.90522E-002	6.65761E-001	-4.33561E-002	-9.34255E-004	7.15392E-005	-8.97342E-003	-9.68069E-003	4.58087E-004	6.08995E-004	-1.03821E-002	6.76112E-004
	16	16	4.99826E-002	-1.49990E-002	0.00000E+000	-7.49689E-004	-1.47969E-001	3.59628E-002	3.13958E+001	11	...........	5.97842E-002	-4.64542E-003	5.75345E-001	6.20796E-001	-2.93944E-002	-3.90374E-002	6.65682E-001	-4.33271E-002	-8.96702E-004	6.96766E-005	-8.62959E-003	-9.31131E-003	4.40887E-004	5.85521E-004	-9.98456E-003	6.49863E-004
	17	17	4.99827E-002	-1.45350E-002	0.00000E+000	-7.26499E-004	-1.43363E-001	3.60852E-002	3.19906E+001	11	...........	5.99774E-002	-4.62931E-003	5.75374E-001	6.20742E-001	-2.93381E-002	-3.90360E-002	6.65762E-001	-4.33326E-002	-8.71772E-004	6.72871E-005	-8.36307E-003	-9.02249E-003	4.26429E-004	5.67389E-004	-9.67687E-003	6.29841E-004
	18	18	4.99841E-002	-1.40524E-002	0.00000E+000	-7.02397E-004	-1.38559E-001	3.60294E-002	3.22344E+001	11	...........	5.98944E-002	-4.59194E-003	5.75262E-001	6.20775E-001	-2.93268E-002	-3.90343E-002	6.65793E-001	-4.33232E-002	-8.41661E-004	6.45278E-005	-8.08381E-003	-8.72338E-003	4.12112E-004	5.48526E-004	-9.35599E-003	6.08795E-004
	19	19	4.99823E-002	-1.37068E-002	0.00000E+000	-6.85096E-004	-1.35113E-001	3.61367E-002	3.19052E+001	11	...........	6.00747E-002	-4.60306E-003	5.75471E-001	6.20796E-001	-2.93244E-002	-3.90247E-002	6.65773E-001	-4.33168E-002	-8.23430E-004	6.30930E-005	-7.88785E-003	-8.50910E-003	4.01943E-004	5.34903E-004	-9.12560E-003	5.93733E-004
	20	20	4.99865E-002	-1.33055E-002	0.00000E+000	-6.65097E-004	-1.31121E-001	3.60435E-002	3.23289E+001	11	...........	6.00715E-002	-4.65139E-003	5.75519E-001	6.20986E-001	-2.93458E-002	-3.90553E-002	6.65699E-001	-4.33626E-002	-7.99284E-004	6.18892E-005	-7.65758E-003	-8.26255E-003	3.90462E-004	5.19651E-004	-8.85748E-003	5.76963E-004
	21	21	4.99827E-002	-1.28787E-002	0.00000E+000	-6.43713E-004	-1.26884E-001	3.58854E-002	3.16163E+001	11	...........	5.98989E-002	-4.64958E-003	5.75552E-001	6.20913E-001	-2.93389E-002	-3.90760E-002	6.65761E-001	-4.33586E-002	-7.71421E-004	5.98807E-005	-7.41237E-003	-7.99656E-003	3.77847E-004	5.03249E-004	-8.57416E-003	5.58403E-004
	22	22	4.99876E-002	-1.26001E-002	0.00000E+000	-6.29850E-004	-1.24106E-001	3.60065E-002	3.22903E+001	11	...........	6.00999E-002	-4.58347E-003	5.75690E-001	6.20803E-001	-2.93407E-002	-3.91082E-002	6.65756E-001	-4.34057E-002	-7.57266E-004	5.77523E-005	-7.25376E-003	-7.82220E-003	3.69696E-004	4.92768E-004	-8.38861E-003	5.46917E-004
	23	23	4.99837E-002	-1.24344E-002	0.00000E+000	-6.21517E-004	-1.22458E-001	3.60326E-002	3.20595E+001	11	...........	6.01787E-002	-4.57569E-003	5.75677E-001	6.20847E-001	-2.93200E-002	-3.91304E-002	6.65805E-001	-4.33512E-002	-7.48287E-004	5.68961E-005	-7.15820E-003	-7.71987E-003	3.64577E-004	4.86564E-004	-8.27890E-003	5.39047E-004
	24	24	4.99878E-002	-1.21123E-002	0.00000E+000	-6.05467E-004	-1.19259E-001	3.59992E-002	3.24655E+001	11	...........	6.01004E-002	-4.58764E-003	5.75753E-001	6.20927E-001	-2.93092E-002	-3.91440E-002	6.65800E-001	-4.33779E-002	-7.27954E-004	5.55669E-005	-6.97370E-003	-7.52086E-003	3.55001E-004	4.74124E-004	-8.06437E-003	5.25406E-004
	25	25	4.99864E-002	-1.19227E-002	0.00000E+000	-5.95975E-004	-1.17372E-001	3.60385E-002	3.24955E+001	11	...........	6.01818E-002	-4.49583E-003	5.75837E-001	6.20829E-001	-2.93428E-002	-3.91400E-002	6.65798E-001	-4.33933E-002	-7.17532E-004	5.36027E-005	-6.86556E-003	-7.40199E-003	3.49846E-004	4.66656E-004	-7.93814E-003	5.17368E-004
	26	26	4.99845E-002	-1.15685E-002	0.00000E+000	-5.78247E-004	-1.13850E-001	3.60332E-002	3.18942E+001	11	...........	6.01674E-002	-4.52903E-003	5.75865E-001	6.20827E-001	-2.93414E-002	-3.91268E-002	6.65733E-001	-4.33312E-002	-6.96047E-004	5.23942E-005	-6.66190E-003	-7.18206E-003	3.39437E-004	4.52639E-004	-7.70155E-003	5.01279E-004
	27	27	4.99874E-002	-1.13220E-002	0.00000E+000	-5.65957E-004	-1.11396E-001	3.59160E-002	3.15620E+001	11	...........	5.99583E-002	-4.58431E-003	5.75853E-001	6.20756E-001	-2.93175E-002	-3.91199E-002	6.65717E-001	-4.33482E-002	-6.78848E-004	5.19035E-005	-6.51980E-003	-7.02820E-003	3.31932E-004	4.42915E-004	-7.53724E-003	4.90788E-004
	28	28	4.99869E-002	-1.12362E-002	0.00000E+000	-5.61661E-004	-1.10544E-001	3.61482E-002	3.22955E+001	11	...........	6.03446E-002	-4.61264E-003	5.75762E-001	6.20841E-001	-2.93458E-002	-3.91078E-002	6.65764E-001	-4.33399E-002	-6.78041E-004	5.18284E-005	-6.46936E-003	-6.97586E-003	3.29734E-004	4.39421E-004	-7.48063E-003	4.86974E-004
	29	29	4.99854E-002	-1.10321E-002	0.00000E+000	-5.51445E-004	-1.08515E-001	3.61667E-002	3.22353E+001	11	...........	6.03722E-002	-4.62056E-003	5.75606E-001	6.20762E-001	-2.93504E-002	-3.91460E-002	6.65864E-001	-4.33753E-002	-6.66033E-004	5.09745E-005	-6.35014E-003	-6.84832E-003	3.23797E-004	4.31863E-004	-7.34588E-003	4.78521E-004
	30	30	4.99878E-002	-1.07837E-002	0.00000E+000	-5.39053E-004	-1.06043E-001	3.60661E-002	3.20772E+001	11	...........	6.02335E-002	-4.60236E-003	5.75450E-001	6.20745E-001	-2.94021E-002	-3.91644E-002	6.65827E-001	-4.34069E-002	-6.49540E-004	4.96305E-005	-6.20548E-003	-6.69393E-003	3.17063E-004	4.22338E-004	-7.18008E-003	4.68087E-004
	31	31	4.99864E-002	-1.06051E-002	0.00000E+000	-5.30112E-004	-1.04268E-001	3.60966E-002	3.20423E+001	11	...........	6.02565E-002	-4.55250E-003	5.75557E-001	6.20644E-001	-2.94375E-002	-3.91669E-002	6.65811E-001	-4.34061E-002	-6.39028E-004	4.82798E-005	-6.10386E-003	-6.58201E-003	3.12188E-004	4.15370E-004	-7.06101E-003	4.60327E-004
	32	32	4.99880E-002	-1.05176E-002	0.00000E+000	-5.25753E-004	-1.03395E-001	3.61767E-002	3.21521E+001	11	...........	6.03921E-002	-4.59917E-003	5.75662E-001	6.20576E-001	-2.93972E-002	-3.91771E-002	6.65891E-001	-4.33272E-002	-6.35179E-004	4.83721E-005	-6.05457E-003	-6.52696E-003	3.09188E-004	4.12048E-004	-7.00357E-003	4.55698E-004
	33	33	4.99874E-002	-1.02502E-002	0.00000E+000	-5.12382E-004	-1.00778E-001	3.60966E-002	3.24798E+001	11	...........	6.02444E-002	-4.56764E-003	5.75665E-001	6.20687E-001	-2.93476E-002	-3.91872E-002	6.65829E-001	-4.33197E-002	-6.17519E-004	4.68193E-005	-5.90070E-003	-6.36218E-003	3.00820E-004	4.01678E-004	-6.82490E-003	4.44037E-004
	34	34	4.99858E-002	-1.01383E-002	0.00000E+000	-5.06769E-004	-9.96623E-002	3.61935E-002	3.26999E+001	11	...........	6.04119E-002	-4.49014E-003	5.75713E-001	6.20691E-001	-2.93150E-002	-3.91911E-002	6.65818E-001	-4.33242E-002	-6.12472E-004	4.55222E-005	-5.83672E-003	-6.29272E-003	2.97203E-004	3.97330E-004	-6.75023E-003	4.39232E-004
	35	35	4.99860E-002	-9.87860E-003	0.00000E+000	-4.93792E-004	-9.70723E-002	3.60772E-002	3.15693E+001	11	...........	6.02424E-002	-4.50194E-003	5.75691E-001	6.20459E-001	-2.93165E-002	-3.91604E-002	6.65791E-001	-4.33551E-002	-5.95110E-004	4.44729E-005	-5.68702E-003	-6.12927E-003	2.89606E-004	3.86850E-004	-6.57708E-003	4.28288E-004
	36	36	4.99909E-002	-9.80135E-003	0.00000E+000	-4.89978E-004	-9.63010E-002	3.62231E-002	3.20610E+001	11	...........	6.04703E-002	-4.45986E-003	5.75462E-001	6.20613E-001	-2.93207E-002	-3.91392E-002	6.65812E-001	-4.33497E-002	-5.92690E-004	4.37127E-005	-5.64031E-003	-6.08284E-003	2.87382E-004	3.83617E-004	-6.52586E-003	4.24886E-004
	37	37	4.99863E-002	-9.70519E-003	0.00000E+000	-4.85127E-004	-9.53497E-002	3.61836E-002	3.27841E+001	11	...........	6.04212E-002	-4.48917E-003	5.75505E-001	6.20694E-001	-2.92956E-002	-3.91222E-002	6.65786E-001	-4.33354E-002	-5.86400E-004	4.35682E-005	-5.58538E-003	-6.02395E-003	2.84319E-004	3.79689E-004	-6.46158E-003	4.20579E-004
	38	38	4.99875E-002	-9.53981E-003	0.00000E+000	-4.76871E-004	-9.37077E-002	3.62272E-002	3.27615E+001	11	...........	6.04793E-002	-4.57000E-003	5.75651E-001	6.20666E-001	-2.93103E-002	-3.90893E-002	6.65779E-001	-4.33404E-002	-5.76961E-004	4.35969E-005	-5.49160E-003	-5.92103E-003	2.79615E-004	3.72905E-004	-6.35141E-003	4.13459E-004
	39	39	4.99855E-002	-9.34578E-003	0.00000E+000	-4.67153E-004	-9.17813E-002	3.62173E-002	3.21781E+001	11	...........	6.04765E-002	-4.59694E-003	5.75523E-001	6.20703E-001	-2.93410E-002	-3.91104E-002	6.65778E-001	-4.33315E-002	-5.65200E-004	4.29620E-005	-5.37871E-003	-5.80095E-003	2.74214E-004	3.65517E-004	-6.22221E-003	4.04967E-004
	40	40	4.99894E-002	-9.24115E-003	0.00000E+000	-4.61959E-004	-9.07373E-002	3.62764E-002	3.23084E+001	11	...........	6.05633E-002	-4.62542E-003	5.75525E-001	6.20740E-001	-2.93551E-002	-3.91037E-002	6.65816E-001	-4.32837E-002	-5.59675E-004	4.27442E-005	-5.31852E-003	-5.73635E-003	2.71275E-004	3.61364E-004	-6.15291E-003	3.99992E-004
	41	41	4.99875E-002	-9.14152E-003	0.00000E+000	-4.56961E-004	-8.97543E-002	3.61829E-002	3.26550E+001	11	...........	6.04144E-002	-4.60708E-003	5.75523E-001	6.20885E-001	-2.93515E-002	-3.91149E-002	6.65758E-001	-4.33218E-002	-5.52280E-004	4.21157E-005	-5.26115E-003	-5.67583E-003	2.68317E-004	3.57569E-004	-6.08604E-003	3.96027E-004
	42	42	4.99880E-002	-9.01456E-003	0.00000E+000	-4.50619E-004	-8.84920E-002	3.63078E-002	3.27679E+001	11	...........	6.05961E-002	-4.59792E-003	5.75645E-001	6.20879E-001	-2.93428E-002	-3.91260E-002	6.65814E-001	-4.33247E-002	-5.46247E-004	4.14482E-005	-5.18918E-003	-5.59695E-003	2.64512E-004	3.52703E-004	-6.00202E-003	3.90553E-004
	43	43	4.99878E-002	-8.87647E-003	0.00000E+000	-4.43715E-004	-8.71080E-002	3.62443E-002	3.28960E+001	11	...........	6.05008E-002	-4.53944E-003	5.75519E-001	6.20781E-001	-2.93392E-002	-3.91464E-002	6.65755E-001	-4.33532E-002	-5.37034E-004	4.02942E-005	-5.10857E-003	-5.51035E-003	2.60428E-004	3.47482E-004	-5.90955E-003	3.84823E-004
	44	44	4.99874E-002	-8.73348E-003	0.00000E+000	-4.36565E-004	-8.56833E-002	3.62159E-002	3.27604E+001	11	...........	6.04307E-002	-4.60722E-003	5.75458E-001	6.20739E-001	-2.93324E-002	-3.91419E-002	6.65631E-001	-4.33589E-002	-5.27770E-004	4.02371E-005	-5.02575E-003	-5.42122E-003	2.56174E-004	3.41846E-004	-5.81328E-003	3.78674E-004
	45	45	4.99876E-002	-8.59973E-003	0.00000E+000	-4.29879E-004	-8.43507E-002	3.62149E-002	3.17746E+001	11	...........	6.04550E-002	-4.61028E-003	5.75482E-001	6.20750E-001	-2.93389E-002	-3.91296E-002	6.65770E-001	-4.33264E-002	-5.19896E-004	3.96471E-005	-4.94899E-003	-5.33828E-003	2.52306E-004	3.36504E-004	-5.72544E-003	3.72595E-004
	46	46	4.99889E-002	-8.54298E-003	0.00000E+000	-4.27054E-004	-8.37877E-002	3.64052E-002	3.26552E+001	11	...........	6.07619E-002	-4.58194E-003	5.75577E-001	6.20764E-001	-2.93247E-002	-3.91564E-002	6.65797E-001	-4.33561E-002	-5.19088E-004	3.91435E-005	-4.91715E-003	-5.30318E-003	2.50521E-004	3.34512E-004	-5.68789E-003	3.70390E-004
	47	47	4.99865E-002	-8.40622E-003	0.00000E+000	-4.20197E-004	-8.24300E-002	3.62496E-002	3.27629E+001	11	...........	6.05039E-002	-4.60944E-003	5.75606E-001	6.20766E-001	-2.93192E-002	-3.91614E-002	6.65744E-001	-4.33375E-002	-5.08609E-004	3.87480E-005	-4.83868E-003	-5.21830E-003	2.46463E-004	3.29199E-004	-5.59639E-003	3.64305E-004
	48	48	4.99884E-002	-8.28878E-003	0.00000E+000	-4.14343E-004	-8.12630E-002	3.62839E-002	3.27668E+001	11	...........	6.05814E-002	-4.57042E-003	5.75483E-001	6.20813E-001	-2.93146E-002	-3.91565E-002	6.65787E-001	-4.33321E-002	-5.02146E-004	3.78832E-005	-4.77005E-003	-5.14579E-003	2.42982E-004	3.24560E-004	-5.51856E-003	3.59170E-004
	49	49	4.99885E-002	-8.17203E-003	0.00000E+000	-4.08507E-004	-8.00963E-002	3.63474E-002	3.27469E+001	11	...........	6.06793E-002	-4.62694E-003	5.75459E-001	6.20807E-001	-2.92990E-002	-3.91417E-002	6.65803E-001	-4.33624E-002	-4.95873E-004	3.78115E-005	-4.70266E-003	-5.07325E-003	2.39432E-004	3.19867E-004	-5.44096E-003	3.54358E-004
	50	50	4.99870E-002	-8.06137E-003	0.00000E+000	-4.02964E-004	-7.89973E-002	3.62211E-002	3.20066E+001	11	...........	6.04858E-002	-4.63486E-003	5.75469E-001	6.21082E-001	-2.93129E-002	-3.91335E-002	6.65777E-001	-4.33687E-002	-4.87599E-004	3.73633E-005	-4.63907E-003	-5.00677E-003	2.36302E-004	3.15469E-004	-5.36708E-003	3.49612E-004
	51	51	4.99890E-002	-7.99002E-003	0.00000E+000	-3.99413E-004	-7.82867E-002	3.63425E-002	3.26048E+001	11	...........	6.06612E-002	-4.60792E-003	5.75622E-001	6.21182E-001	-2.93043E-002	-3.91219E-002	6.65636E-001	-4.33835E-002	-4.84685E-004	3.68174E-005	-4.59923E-003	-4.96326E-003	2.34142E-004	3.12585E-004	-5.31844E-003	3.46635E-004
	52	52	4.99866E-002	-7.91944E-003	0.00000E+000	-3.95866E-004	-7.75863E-002	3.63935E-002	3.28259E+001	11	...........	6.07267E-002	-4.55903E-003	5.75622E-001	6.21067E-001	-2.93069E-002	-3.91026E-002	6.65719E-001	-4.33631E-002	-4.80921E-004	3.61049E-005	-4.55861E-003	-4.91850E-003	2.32095E-004	3.09671E-004	-5.27212E-003	3.43411E-004
	53	53	4.99895E-002	-7.81046E-003	0.00000E+000	-3.90441E-004	-7.65233E-002	3.63403E-002	3.31132E+001	11	...........	6.06681E-002	-4.54125E-003	5.75666E-001	6.21211E-001	-2.93253E-002	-3.90883E-002	6.65638E-001	-4.33447E-002	-4.73845E-004	3.54692E-005	-4.49622E-003	-4.85194E-003	2.29044E-004	3.05298E-004	-5.19893E-003	3.38542E-004
	54	54	4.99876E-002	-7.72373E-003	0.00000E+000	-3.86091E-004	-7.56550E-002	3.63662E-002	3.30342E+001	11	...........	6.06814E-002	-4.39514E-003	5.75763E-001	6.21167E-001	-2.93449E-002	-3.90725E-002	6.65731E-001	-4.33139E-002	-4.68687E-004	3.39469E-005	-4.44704E-003	-4.79773E-003	2.26652E-004	3.01786E-004	-5.14193E-003	3.34545E-004
	55	55	4.99876E-002	-7.60171E-003	0.00000E+000	-3.79991E-004	-7.44350E-002	3.63233E-002	3.28861E+001	11	...........	6.06207E-002	-4.38500E-003	5.75714E-001	6.21247E-001	-2.93512E-002	-3.90786E-002	6.65706E-001	-4.33256E-002	-4.60821E-004	3.33335E-005	-4.37641E-003	-4.72255E-003	2.23120E-004	2.97064E-004	-5.06050E-003	3.29348E-004
	56	56	4.99881E-002	-7.50944E-003	0.00000E+000	-3.75382E-004	-7.35083E-002	3.63627E-002	3.22664E+001	11	...........	6.06829E-002	-4.49639E-003	5.75629E-001	6.21105E-001	-2.93686E-002	-3.90558E-002	6.65724E-001	-4.33414E-002	-4.55694E-004	3.37653E-005	-4.32265E-003	-4.66415E-003	2.20542E-004	2.93287E-004	-4.99921E-003	3.25469E-004
	57	57	4.99895E-002	-7.43652E-003	0.00000E+000	-3.71748E-004	-7.27823E-002	3.63848E-002	3.29778E+001	11	...........	6.07400E-002	-4.52556E-003	5.75665E-001	6.21038E-001	-2.93693E-002	-3.90762E-002	6.65779E-001	-4.33779E-002	-4.51694E-004	3.36544E-005	-4.28095E-003	-4.61836E-003	2.18405E-004	2.90591E-004	-4.95108E-003	3.22581E-004
	58	58	4.99880E-002	-7.36717E-003	0.00000E+000	-3.68270E-004	-7.20880E-002	3.63020E-002	3.27656E+001	11	...........	6.05980E-002	-4.59778E-003	5.75654E-001	6.20993E-001	-2.93831E-002	-3.90781E-002	6.65753E-001	-4.33387E-002	-4.46436E-004	3.38726E-005	-4.24094E-003	-4.57496E-003	2.16470E-004	2.87895E-004	-4.90471E-003	3.19284E-004
	59	59	4.99878E-002	-7.27042E-003	0.00000E+000	-3.63432E-004	-7.11257E-002	3.64049E-002	3.28210E+001	11	...........	6.07778E-002	-4.62125E-003	5.75695E-001	6.20811E-001	-2.93740E-002	-3.90600E-002	6.65659E-001	-4.33733E-002	-4.41880E-004	3.35984E-005	-4.18554E-003	-4.51356E-003	2.13562E-004	2.83983E-004	-4.83962E-003	3.15342E-004
	60	60	4.99883E-002	-7.17509E-003	0.00000E+000	-3.58670E-004	-7.01867E-002	3.63742E-002	3.29156E+001	11	...........	6.06853E-002	-4.58708E-003	5.75781E-001	6.20702E-001	-2.93635E-002	-3.90389E-002	6.65621E-001	-4.34753E-002	-4.35422E-004	3.29127E-005	-4.13128E-003	-4.45359E-003	2.10686E-004	2.80108E-004	-4.77589E-003	3.11939E-004
	61	61	4.99876E-002	-7.09708E-003	0.00000E+000	-3.54766E-004	-6.94017E-002	3.62620E-002	3.27619E+001	11	...........	6.07325E-002	-4.60014E-003	5.75833E-001	6.20673E-001	-2.93533E-002	-3.90735E-002	6.65662E-001	-4.34586E-002	-4.31023E-004	3.26475E-005	-4.08673E-003	-4.40496E-003	2.08323E-004	2.77307E-004	-4.72426E-003	3.08429E-004
	62	62	4.99896E-002	-7.02157E-003	0.00000E+000	-3.51005E-004	-6.86670E-002	3.63900E-002	3.32110E+001	11	...........	6.07324E-002	-4.47306E-003	5.75862E-001	6.20691E-001	-2.93328E-002	-3.90953E-002	6.65584E-001	-4.33558E-002	-4.26437E-004	3.14079E-005	-4.04346E-003	-4.35823E-003	2.05962E-004	2.74510E-004	-4.67345E-003	3.04426E-004
	63	63	4.99880E-002	-6.92756E-003	0.00000E+000	-3.46295E-004	-6.77227E-002	3.63824E-002	3.25672E+001	11	...........	6.07151E-002	-4.52875E-003	5.75859E-001	6.20632E-001	-2.93271E-002	-3.90725E-002	6.65515E-001	-4.33201E-002	-4.20607E-004	3.13732E-005	-3.98929E-003	-4.29946E-003	2.03165E-004	2.70677E-004	-4.61039E-003	3.00103E-004
	64	64	4.99883E-002	-6.83680E-003	0.00000E+000	-3.41760E-004	-6.68137E-002	3.63328E-002	3.23391E+001	11	...........	6.06387E-002	-4.61347E-003	5.75917E-001	6.20824E-001	-2.92844E-002	-3.90799E-002	6.65702E-001	-4.33139E-002	-4.14575E-004	3.15414E-005	-3.93743E-003	-4.24445E-003	2.00212E-004	2.67181E-004	-4.55127E-003	2.96129E-004
	65	65	4.99882E-002	-6.78738E-003	0.00000E+000	-3.39289E-004	-6.63233E-002	3.64129E-002	3.30503E+001	11	...........	6.07907E-002	-4.57653E-003	5.75991E-001	6.20702E-001	-2.93031E-002	-3.90915E-002	6.65755E-001	-4.33433E-002	-4.12610E-004	3.10626E-005	-3.90947E-003	-4.21294E-003	1.98891E-004	2.65329E-004	-4.51873E-003	2.94188E-004
	66	66	4.99885E-002	-6.72422E-003	0.00000E+000	-3.36134E-004	-6.56937E-002	3.64781E-002	3.30886E+001	11	...........	6.08940E-002	-4.63556E-003	5.75984E-001	6.20712E-001	-2.93237E-002	-3.90937E-002	6.65670E-001	-4.33260E-002	-4.09465E-004	3.11705E-005	-3.87304E-003	-4.17380E-003	1.97179E-004	2.62875E-004	-4.47611E-003	2.91333E-004
	67	67	4.99890E-002	-6.65765E-003	0.00000E+000	-3.32809E-004	-6.50350E-002	3.64543E-002	3.31930E+001	11	...........	6.08501E-002	-4.62833E-003	5.75832E-001	6.20639E-001	-2.93479E-002	-3.90856E-002	6.65731E-001	-4.33282E-002	-4.05119E-004	3.08138E-005	-3.83369E-003	-4.13200E-003	1.95388E-004	2.60218E-004	-4.43221E-003	2.88464E-004
	68	68	4.99881E-002	-6.57084E-003	0.00000E+000	-3.28464E-004	-6.41747E-002	3.63779E-002	3.31410E+001	11	...........	6.07274E-002	-4.59806E-003	5.75812E-001	6.20606E-001	-2.93557E-002	-3.91075E-002	6.65857E-001	-4.33317E-002	-3.99030E-004	3.02131E-005	-3.78357E-003	-4.07790E-003	1.92892E-004	2.56969E-004	-4.37524E-003	2.84725E-004
	69	69	4.99879E-002	-6.49235E-003	0.00000E+000	-3.24539E-004	-6.34167E-002	3.64185E-002	3.32088E+001	11	...........	6.07689E-002	-4.59014E-003	5.75821E-001	6.20705E-001	-2.93458E-002	-3.90675E-002	6.65870E-001	-4.33206E-002	-3.94533E-004	2.98008E-005	-3.73843E-003	-4.02983E-003	1.90524E-004	2.53640E-004	-4.32306E-003	2.81252E-004
	70	70	4.99890E-002	-6.45347E-003	0.00000E+000	-3.22602E-004	-6.30147E-002	3.64782E-002	3.37072E+001	11	...........	6.08643E-002	-4.58764E-003	5.75854E-001	6.20788E-001	-2.93501E-002	-3.90471E-002	6.65845E-001	-4.33303E-002	-3.92786E-004	2.96062E-005	-3.71626E-003	-4.00624E-003	1.89410E-004	2.51989E-004	-4.29701E-003	2.79631E-004
	71	71	4.99868E-002	-6.36154E-003	0.00000E+000	-3.17993E-004	-6.20890E-002	3.64063E-002	3.30115E+001	11	...........	6.07596E-002	-4.64986E-003	5.75777E-001	6.20690E-001	-2.93233E-002	-3.90714E-002	6.65933E-001	-4.33211E-002	-3.86525E-004	2.95803E-005	-3.66283E-003	-3.94854E-003	1.86542E-004	2.48554E-004	-4.23636E-003	2.75589E-004
	72	72	4.99886E-002	-6.23690E-003	0.00000E+000	-3.11774E-004	-6.08500E-002	3.64703E-002	3.21524E+001	11	...........	6.08643E-002	-4.65125E-003	5.75796E-001	6.20719E-001	-2.92947E-002	-3.90890E-002	6.66052E-001	-4.33383E-002	-3.79605E-004	2.90094E-005	-3.59118E-003	-3.87136E-003	1.82708E-004	2.43795E-004	-4.15410E-003	2.70297E-004
	73	73	4.99896E-002	-6.19560E-003	0.00000E+000	-3.09715E-004	-6.04333E-002	3.64138E-002	3.32996E+001	11	...........	6.08100E-002	-4.64375E-003	5.75675E-001	6.20654E-001	-2.92974E-002	-3.91092E-002	6.65912E-001	-4.33265E-002	-3.76754E-004	2.87708E-005	-3.56665E-003	-3.84532E-003	1.81515E-004	2.42305E-004	-4.12572E-003	2.68434E-004
	74	74	4.99884E-002	-6.16358E-003	0.00000E+000	-3.08108E-004	-6.01213E-002	3.64455E-002	3.31866E+001	11	...........	6.08075E-002	-4.62361E-003	5.75668E-001	6.20725E-001	-2.93106E-002	-3.91083E-002	6.65795E-001	-4.33579E-002	-3.74792E-004	2.84980E-005	-3.54817E-003	-3.82589E-003	1.80658E-004	2.41047E-004	-4.10368E-003	2.67240E-004
	75	75	4.99885E-002	-6.08051E-003	0.00000E+000	-3.03956E-004	-5.92950E-002	3.64705E-002	3.29843E+001	11	...........	6.08612E-002	-4.63542E-003	5.75627E-001	6.20788E-001	-2.93215E-002	-3.90842E-002	6.65888E-001	-4.33842E-002	-3.70067E-004	2.81857E-005	-3.50010E-003	-3.77471E-003	1.78290E-004	2.37652E-004	-4.04894E-003	2.63798E-004
	76	76	4.99882E-002	-6.00623E-003	0.00000E+000	-3.00241E-004	-5.85567E-002	3.64440E-002	3.32004E+001	11	...........	6.08454E-002	-4.50931E-003	5.75652E-001	6.20760E-001	-2.93142E-002	-3.90636E-002	6.65837E-001	-4.33951E-002	-3.65452E-004	2.70839E-005	-3.45750E-003	-3.72843E-003	1.76068E-004	2.34625E-004	-3.99917E-003	2.60641E-004
	77	77	4.99886E-002	-5.97402E-003	0.00000E+000	-2.98633E-004	-5.82347E-002	3.64966E-002	3.30481E+001	11	...........	6.09019E-002	-4.49708E-003	5.75682E-001	6.20676E-001	-2.93162E-002	-3.90737E-002	6.65821E-001	-4.34028E-002	-3.63830E-004	2.68657E-005	-3.43913E-003	-3.70793E-003	1.75136E-004	2.33427E-004	-3.97763E-003	2.59289E-004
	78	78	4.99889E-002	-5.89045E-003	0.00000E+000	-2.94457E-004	-5.74027E-002	3.64075E-002	3.30611E+001	11	...........	6.07793E-002	-4.58208E-003	5.75646E-001	6.20790E-001	-2.93382E-002	-3.90890E-002	6.65859E-001	-4.33390E-002	-3.58017E-004	2.69905E-005	-3.39081E-003	-3.65673E-003	1.72815E-004	2.30252E-004	-3.92221E-003	2.55286E-004
	79	79	4.99886E-002	-5.85416E-003	0.00000E+000	-2.92641E-004	-5.70440E-002	3.65287E-002	3.29344E+001	11	...........	6.09868E-002	-4.61000E-003	5.75681E-001	6.20887E-001	-2.93379E-002	-3.91100E-002	6.65876E-001	-4.33160E-002	-3.57026E-004	2.69877E-005	-3.37012E-003	-3.63477E-003	1.71749E-004	2.28956E-004	-3.89814E-003	2.53578E-004
	80	80	4.99863E-002	-5.73226E-003	0.00000E+000	-2.86534E-004	-5.58307E-002	3.63977E-002	3.34326E+001	11	...........	6.07615E-002	-4.61819E-003	5.75806E-001	6.21006E-001	-2.93507E-002	-3.91546E-002	6.65675E-001	-4.33706E-002	-3.48301E-004	2.64727E-005	-3.30067E-003	-3.55976E-003	1.68246E-004	2.24444E-004	-3.81582E-003	2.48611E-004
	81	81	4.99894E-002	-5.65285E-003	0.00000E+000	-2.82583E-004	-5.50387E-002	3.64310E-002	3.17976E+001	11	...........	6.08039E-002	-4.61847E-003	5.76053E-001	6.21074E-001	-2.93493E-002	-3.91739E-002	6.65749E-001	-4.33918E-002	-3.43715E-004	2.61075E-005	-3.25634E-003	-3.51084E-003	1.65907E-004	2.21444E-004	-3.76338E-003	2.45287E-004
	82	82	4.99906E-002	-5.66930E-003	0.00000E+000	-2.83412E-004	-5.52037E-002	3.66176E-002	3.34100E+001	11	...........	6.11258E-002	-4.60153E-003	5.76104E-001	6.21083E-001	-2.93407E-002	-3.91836E-002	6.65735E-001	-4.34774E-002	-3.46541E-004	2.60874E-005	-3.26611E-003	-3.52111E-003	1.66341E-004	2.22144E-004	-3.77425E-003	2.46486E-004
	83	83	4.99865E-002	-5.61244E-003	0.00000E+000	-2.80546E-004	-5.46417E-002	3.64677E-002	3.27515E+001	11	...........	6.08379E-002	-4.62208E-003	5.76118E-001	6.21129E-001	-2.93265E-002	-3.92026E-002	6.65812E-001	-4.35582E-002	-3.41449E-004	2.59411E-005	-3.23342E-003	-3.48605E-003	1.64593E-004	2.20022E-004	-3.73683E-003	2.44468E-004
	84	84	4.99898E-002	-5.52150E-003	0.00000E+000	-2.76019E-004	-5.37320E-002	3.64852E-002	3.27433E+001	11	...........	6.08953E-002	-4.51597E-003	5.76156E-001	6.20974E-001	-2.93208E-002	-3.91883E-002	6.65667E-001	-4.35061E-002	-3.36233E-004	2.49350E-005	-3.18124E-003	-3.42871E-003	1.61895E-004	2.16378E-004	-3.67548E-003	2.40219E-004
	85	85	4.99887E-002	-5.48489E-003	0.00000E+000	-2.74183E-004	-5.33630E-002	3.65947E-002	3.35587E+001	11	...........	6.10954E-002	-4.54875E-003	5.76181E-001	6.20849E-001	-2.93146E-002	-3.91858E-002	6.65702E-001	-4.33811E-002	-3.35102E-004	2.49494E-005	-3.16029E-003	-3.40529E-003	1.60787E-004	2.14930E-004	-3.65130E-003	2.37941E-004
	86	86	4.99888E-002	-5.42923E-003	0.00000E+000	-2.71401E-004	-5.28110E-002	3.63581E-002	3.23036E+001	11	...........	6.07033E-002	-4.58500E-003	5.76134E-001	6.20905E-001	-2.93058E-002	-3.91569E-002	6.65785E-001	-4.33428E-002	-3.29572E-004	2.48930E-005	-3.12796E-003	-3.37103E-003	1.59108E-004	2.12592E-004	-3.61470E-003	2.35318E-004
	87	87	4.99888E-002	-5.40959E-003	0.00000E+000	-2.70419E-004	-5.26217E-002	3.66820E-002	3.33273E+001	11	...........	6.12354E-002	-4.56306E-003	5.76030E-001	6.20830E-001	-2.93122E-002	-3.91432E-002	6.65684E-001	-4.34011E-002	-3.31259E-004	2.46843E-005	-3.11609E-003	-3.35844E-003	1.58567E-004	2.11749E-004	-3.60108E-003	2.34782E-004
	88	88	4.99888E-002	-5.34014E-003	0.00000E+000	-2.66947E-004	-5.19207E-002	3.65287E-002	3.30291E+001	11	...........	6.09571E-002	-4.57444E-003	5.75932E-001	6.20754E-001	-2.93104E-002	-3.91517E-002	6.65597E-001	-4.33800E-002	-3.25519E-004	2.44282E-005	-3.07555E-003	-3.31491E-003	1.56522E-004	2.09075E-004	-3.55438E-003	2.31655E-004
	89	89	4.99880E-002	-5.28064E-003	0.00000E+000	-2.63969E-004	-5.13347E-002	3.65412E-002	3.26043E+001	11	...........	6.09860E-002	-4.40958E-003	5.76017E-001	6.20887E-001	-2.93093E-002	-3.91921E-002	6.65809E-001	-4.33614E-002	-3.22045E-004	2.32854E-005	-3.04174E-003	-3.27869E-003	1.54772E-004	2.06959E-004	-3.51590E-003	2.28976E-004
	90	90	4.99894E-002	-5.25266E-003	0.00000E+000	-2.62577E-004	-5.10807E-002	3.65884E-002	3.34261E+001	11	...........	6.10692E-002	-4.35069E-003	5.76052E-001	6.20952E-001	-2.93090E-002	-3.91840E-002	6.65889E-001	-4.33885E-002	-3.20776E-004	2.28527E-005	-3.02581E-003	-3.26165E-003	1.53950E-004	2.05821E-004	-3.49769E-003	2.27905E-004
	91	91	4.99883E-002	-5.20983E-003	0.00000E+000	-2.60430E-004	-5.06610E-002	3.65595E-002	3.31643E+001	11	...........	6.10312E-002	-4.49083E-003	5.76097E-001	6.21147E-001	-2.92979E-002	-3.92022E-002	6.65795E-001	-4.34042E-002	-3.17962E-004	2.33965E-005	-3.00136E-003	-3.23607E-003	1.52637E-004	2.04237E-004	-3.46868E-003	2.26128E-004
	92	92	4.99892E-002	-5.13614E-003	0.00000E+000	-2.56752E-004	-4.99083E-002	3.64791E-002	3.27762E+001	11	...........	6.08897E-002	-4.55861E-003	5.75958E-001	6.21208E-001	-2.93193E-002	-3.91829E-002	6.65776E-001	-4.34126E-002	-3.12738E-004	2.34137E-005	-2.95820E-003	-3.19061E-003	1.50588E-004	2.01249E-004	-3.41952E-003	2.22973E-004
	93	93	4.99886E-002	-5.11131E-003	0.00000E+000	-2.55508E-004	-4.96627E-002	3.65969E-002	3.34046E+001	11	...........	6.10857E-002	-4.48486E-003	5.75709E-001	6.21052E-001	-2.93143E-002	-3.91794E-002	6.65765E-001	-4.33454E-002	-3.12228E-004	2.29235E-005	-2.94263E-003	-3.17439E-003	1.49835E-004	2.00258E-004	-3.40293E-003	2.21552E-004
	94	93.4167	4.99869E-002	-5.08945E-003	0.00000E+000	-2.54406E-004	-4.94504E-002	3.66798E-002	3.20428E+001	11	...........	6.12063E-002	-4.34333E-003	5.75630E-001	6.20944E-001	-2.92627E-002	-3.91870E-002	6.65879E-001	-4.33347E-002	-3.11506E-004	2.21052E-005	-2.92964E-003	-3.16026E-003	1.48931E-004	1.99440E-004	-3.38896E-003	2.20549E-004
STARTTIMEOFFSET	QUANT	818178.1	Start Time Offset (s)
