EXPLAIN
TAG	PWR800_DISCHARGE
TITLE	LABEL	PWR Discharge	Test Identifier
DATE	LABEL	10/13/2022	Date
TIME	LABEL	7:38:19	Time
NOTES	NOTES	1	Notes...
	
PSTAT	PSTAT	REF3000-21114	Potentiostat
CAPACITY	QUANT	5.30000E-002	Capacity (A-hr)
CELLTYPE	SELECTOR	1	Cell Type
WORKINGCONNECTION	SELECTOR	0	Working Connection
MAXDISCHARGETIME	VARIABLEANDUNITS	7.20000E+003	s	2.00000E+000	hour(s)	Max Discharge Time
DISCHARGEMODE	MULTIPARAM	0	1.00000E-001	Discharge Mode	Constant Current	Amp(s)
VOLTAGEFINISH	TWOPARAM	T	5.00000E-003	7.20000E+003	Voltage Finish	I (A) <	Max Time(s)
SAMPLETIME	QUANT	1.00000E+000	Sample Period (s)
DISCHARGESTOPAT1	MULTIPARAM	1	5.00000E-002	Stop At 1	|Voltage| < Limit	V
DISCHARGESTOPAT2	MULTIPARAM	0	0.00000E+000	Stop At 2	None	N/A
AESELECTOR	AESELECTOR	0x1	T	Set Limits	AE Channels
AESBHCSELECTOR	TOGGLE	F	Save Both Half Cells
IRCOMP	TOGGLE	F	IR Measure
EOC	QUANT	0.5478573	Open Circuit (V)
SEQUENCER	TOGGLE	TRUE	Run as Sequence
PSTATMODEL	IQUANT	5	Pstat Model
PSTATSECTION	LABEL	REF3000-21114	Pstat Section
PSTATSERIALNO	LABEL	21114	Pstat Serial Number
CTRLMODE	IQUANT	0	Control Mode
ELECTROMETER	IQUANT	0	RE=0 or CS=1
IESTAB	IQUANT	0	I/E Stability
CASPEED	IQUANT	4	Control Amp Speed
CONVENTION	IQUANT	1	Current Convention
ICHRANGE	IQUANT	2	Ich Range
ICHRANGEMODE	TOGGLE	T	Ich Auto Range
ICHOFFSETENABLE	TOGGLE	F	Ich Offset Enable
ICHOFFSET	QUANT	0	Ich Offset (V)
ICHFILTER	IQUANT	1	Ich Filter
VCHRANGE	IQUANT	3	Vch Range
VCHRANGEMODE	TOGGLE	T	Vch Auto Range
VCHOFFSETENABLE	TOGGLE	F	Vch Offset Enable
VCHOFFSET	QUANT	0	Vch Offset (V)
VCHFILTER	IQUANT	1	Vch Filter
ACHRANGE	IQUANT	2	Ach Range
ACHOFFSETENABLE	TOGGLE	F	Ach Offset Enable
ACHOFFSET	QUANT	0	Ach Offset (V)
ACHFILTER	IQUANT	1	Ach Filter
IERANGELOWERLIMIT	IQUANT	9	I/E Range Lower Limit
IERANGEMODE	TOGGLE	F	I/E AutoRange
IERANGE	IQUANT	9	I/E Range
POSFEEDENABLE	TOGGLE	F	Positive Feedback IR Comp
POSFEEDRESISTANCE	QUANT	0	Positive Feedback Resistance (ohm)
ACHSELECT	IQUANT	1	Ach Select
SENSECABLEID	IQUANT	13	Sense Cable ID
PWRCABLEID	IQUANT	13	Power Cable ID
DCCALDATE	LABEL		DC Calibration Date
ACCALDATE	LABEL		AC Calibration Date
THERMOSELECT	IQUANT	1	Thermo Select
FRAMEWORKVERSION	LABEL	7.8.6	Framework Version
INSTRUMENTVERSION	LABEL	4.50	Instrument Version
COMPLIANCEVOLTAGE	IQUANT	0	Compliance Voltage
CURVE	TABLE	193
	Pt	T	Vf	Im	Vu	Pwr	Sig	Ach	Temp	IERange	Over	Vf1	Vf2	Vf3	Vf4	Vf5	Vf6	Vf7	Vf8	Pwr1	Pwr2	Pwr3	Pwr4	Pwr5	Pwr6	Pwr7	Pwr8
	#	s	V	A	V	W	V	V	deg C	#	bits	V	V	V	V	V	V	V	V	W	W	W	W	W	W	W	W
	0	1	3.29829E-001	-1.00084E-001	0.00000E+000	-3.30105E-002	-9.94000E-001	3.81908E-002	3.07090E+001	11	...........	6.34136E-002	-5.24750E-003	5.96098E-001	5.54891E-001	-2.78939E-002	-3.89271E-002	6.92882E-001	-4.41026E-002	-6.34666E-003	5.25189E-004	-5.96597E-002	-5.55355E-002	2.79172E-003	3.89596E-003	-6.93461E-002	4.41395E-003
	1	2	2.46289E-001	-1.00084E-001	0.00000E+000	-2.46497E-002	-9.94000E-001	3.82319E-002	2.99386E+001	11	...........	6.34739E-002	-5.31125E-003	5.96201E-001	5.54847E-001	-2.78935E-002	-3.89143E-002	6.92938E-001	-4.40406E-002	-6.35274E-003	5.31573E-004	-5.96704E-002	-5.55314E-002	2.79170E-003	3.89471E-003	-6.93522E-002	4.40777E-003
	2	3	1.78071E-001	-1.00085E-001	0.00000E+000	-1.78221E-002	-9.94000E-001	3.81640E-002	2.88145E+001	11	...........	6.33872E-002	-5.16639E-003	5.96155E-001	5.54873E-001	-2.79026E-002	-3.89071E-002	6.93062E-001	-4.38939E-002	-6.34409E-003	5.17076E-004	-5.96659E-002	-5.55342E-002	2.79262E-003	3.89400E-003	-6.93648E-002	4.39310E-003
	3	4	1.19930E-001	-1.00085E-001	0.00000E+000	-1.20032E-002	-9.94000E-001	3.80987E-002	2.83863E+001	11	...........	6.32804E-002	-5.21597E-003	5.96278E-001	5.54928E-001	-2.79118E-002	-3.89043E-002	6.93019E-001	-4.39686E-002	-6.33340E-003	5.22039E-004	-5.96783E-002	-5.55399E-002	2.79355E-003	3.89373E-003	-6.93607E-002	4.40059E-003
	4	5	7.21780E-002	-1.00084E-001	0.00000E+000	-7.22389E-003	-9.94000E-001	3.81160E-002	2.82203E+001	11	...........	6.33122E-002	-5.17958E-003	5.96276E-001	5.55058E-001	-2.78906E-002	-3.89201E-002	6.93054E-001	-4.39128E-002	-6.33656E-003	5.18395E-004	-5.96779E-002	-5.55526E-002	2.79141E-003	3.89530E-003	-6.93638E-002	4.39498E-003
	5	5.04667	5.06158E-002	-1.00084E-001	0.00000E+000	-5.06585E-003	-9.94000E-001	3.80643E-002	2.81370E+001	11	...........	6.32411E-002	-5.15179E-003	5.96205E-001	5.55071E-001	-2.81042E-002	-3.88274E-002	6.93024E-001	-4.39613E-002	-6.32945E-003	5.15614E-004	-5.96709E-002	-5.55540E-002	2.81279E-003	3.88602E-003	-6.93609E-002	4.39984E-003
	6	6	4.96846E-002	-8.70805E-002	0.00000E+000	-4.32656E-003	-8.64697E-001	3.82238E-002	2.86287E+001	11	...........	6.34534E-002	-5.15676E-003	5.96221E-001	5.55004E-001	-2.78954E-002	-3.89347E-002	6.93007E-001	-4.40293E-002	-5.52555E-003	4.49053E-004	-5.19193E-002	-4.83301E-002	2.42915E-003	3.39046E-003	-6.03474E-002	3.83409E-003
	7	7	4.98370E-002	-7.21178E-002	0.00000E+000	-3.59414E-003	-7.15942E-001	3.82987E-002	2.93366E+001	11	...........	6.35965E-002	-5.31583E-003	5.96268E-001	5.55022E-001	-2.79071E-002	-3.89447E-002	6.92914E-001	-4.41024E-002	-4.58644E-003	3.83366E-004	-4.30015E-002	-4.00270E-002	2.01260E-003	2.80861E-003	-4.99715E-002	3.18057E-003
	8	8	4.98859E-002	-6.40570E-002	0.00000E+000	-3.19554E-003	-6.35801E-001	3.84080E-002	2.97750E+001	11	...........	6.37571E-002	-5.25153E-003	5.96226E-001	5.55120E-001	-2.79033E-002	-3.89633E-002	6.93075E-001	-4.40854E-002	-4.08409E-003	3.36397E-004	-3.81925E-002	-3.55593E-002	1.78740E-003	2.49587E-003	-4.43963E-002	2.82398E-003
	9	9	4.99171E-002	-5.90318E-002	0.00000E+000	-2.94670E-003	-5.85846E-001	3.84910E-002	3.01069E+001	11	...........	6.39225E-002	-5.28986E-003	5.96143E-001	5.55159E-001	-2.78958E-002	-3.89224E-002	6.93146E-001	-4.40560E-002	-3.77346E-003	3.12270E-004	-3.51914E-002	-3.27721E-002	1.64674E-003	2.29766E-003	-4.09177E-002	2.60070E-003
	10	10	4.99316E-002	-5.57754E-002	0.00000E+000	-2.78495E-003	-5.53456E-001	3.85651E-002	3.03425E+001	11	...........	6.40254E-002	-5.25764E-003	5.96224E-001	5.55306E-001	-2.78975E-002	-3.89304E-002	6.93006E-001	-4.39850E-002	-3.57104E-003	2.93247E-004	-3.32546E-002	-3.09724E-002	1.55599E-003	2.17136E-003	-3.86527E-002	2.45328E-003
	11	11	4.99407E-002	-5.36235E-002	0.00000E+000	-2.67800E-003	-5.32058E-001	3.86452E-002	3.05299E+001	11	...........	6.41678E-002	-5.13875E-003	5.96145E-001	5.55086E-001	-2.79167E-002	-3.89224E-002	6.93076E-001	-4.40178E-002	-3.44090E-003	2.75558E-004	-3.19674E-002	-2.97657E-002	1.49699E-003	2.08715E-003	-3.71652E-002	2.36039E-003
	12	12	4.99434E-002	-5.18225E-002	0.00000E+000	-2.58819E-003	-5.14162E-001	3.87268E-002	3.06879E+001	11	...........	6.43097E-002	-5.15875E-003	5.96053E-001	5.55229E-001	-2.79060E-002	-3.89085E-002	6.93045E-001	-4.39354E-002	-3.33269E-003	2.67339E-004	-3.08889E-002	-2.87733E-002	1.44616E-003	2.01633E-003	-3.59153E-002	2.27684E-003
	13	13	4.99453E-002	-5.01675E-002	0.00000E+000	-2.50563E-003	-4.97718E-001	3.87840E-002	3.08108E+001	11	...........	6.43976E-002	-5.22861E-003	5.96104E-001	5.55292E-001	-2.79135E-002	-3.88850E-002	6.93067E-001	-4.38656E-002	-3.23067E-003	2.62306E-004	-2.99051E-002	-2.78576E-002	1.40035E-003	1.95076E-003	-3.47695E-002	2.20063E-003
	14	14	4.99543E-002	-4.89720E-002	0.00000E+000	-2.44636E-003	-4.85835E-001	3.88444E-002	3.08963E+001	11	...........	6.45122E-002	-5.24722E-003	5.96292E-001	5.55284E-001	-2.79100E-002	-3.88821E-002	6.93069E-001	-4.39079E-002	-3.15929E-003	2.56967E-004	-2.92016E-002	-2.71934E-002	1.36681E-003	1.90413E-003	-3.39410E-002	2.15026E-003
	15	15	4.99535E-002	-4.81934E-002	0.00000E+000	-2.40743E-003	-4.78085E-001	3.89163E-002	3.10017E+001	11	...........	6.46196E-002	-5.25097E-003	5.96425E-001	5.55315E-001	-2.78939E-002	-3.88971E-002	6.93000E-001	-4.39804E-002	-3.11424E-003	2.53062E-004	-2.87438E-002	-2.67625E-002	1.34430E-003	1.87458E-003	-3.33981E-002	2.11957E-003
	16	16	4.99543E-002	-4.74779E-002	0.00000E+000	-2.37173E-003	-4.70972E-001	3.89660E-002	3.10562E+001	11	...........	6.46949E-002	-5.30000E-003	5.96433E-001	5.55436E-001	-2.78862E-002	-3.89058E-002	6.93088E-001	-4.40678E-002	-3.07158E-003	2.51633E-004	-2.83174E-002	-2.63709E-002	1.32398E-003	1.84717E-003	-3.29064E-002	2.09225E-003
	17	17	4.99534E-002	-4.66001E-002	0.00000E+000	-2.32783E-003	-4.62241E-001	3.90264E-002	3.11131E+001	11	...........	6.47982E-002	-5.27625E-003	5.96431E-001	5.55365E-001	-2.78610E-002	-3.89326E-002	6.93148E-001	-4.40536E-002	-3.01960E-003	2.45873E-004	-2.77937E-002	-2.58800E-002	1.29832E-003	1.81426E-003	-3.23007E-002	2.05290E-003
	18	18	4.99543E-002	-4.58207E-002	0.00000E+000	-2.28894E-003	-4.54490E-001	3.90778E-002	3.11697E+001	11	...........	6.48785E-002	-5.28472E-003	5.96440E-001	5.55251E-001	-2.78374E-002	-3.89276E-002	6.93004E-001	-4.40108E-002	-2.97278E-003	2.42150E-004	-2.73293E-002	-2.54420E-002	1.27553E-003	1.78369E-003	-3.17540E-002	2.01661E-003
	19	19	4.99545E-002	-4.49326E-002	0.00000E+000	-2.24458E-003	-4.45659E-001	3.91389E-002	3.12192E+001	11	...........	6.49803E-002	-5.29722E-003	5.96397E-001	5.55438E-001	-2.78433E-002	-3.89437E-002	6.92993E-001	-4.40586E-002	-2.91973E-003	2.38018E-004	-2.67977E-002	-2.49573E-002	1.25107E-003	1.74984E-003	-3.11380E-002	1.97967E-003
	20	20	4.99523E-002	-4.41182E-002	0.00000E+000	-2.20381E-003	-4.37563E-001	3.90788E-002	3.12930E+001	11	...........	6.50724E-002	-5.28056E-003	5.96351E-001	5.55526E-001	-2.78496E-002	-3.89560E-002	6.93162E-001	-4.40899E-002	-2.87088E-003	2.32969E-004	-2.63100E-002	-2.45088E-002	1.22867E-003	1.71867E-003	-3.05811E-002	1.94517E-003
	21	21	4.99541E-002	-4.32442E-002	0.00000E+000	-2.16022E-003	-4.28861E-001	3.90539E-002	3.13710E+001	11	...........	6.51415E-002	-5.31889E-003	5.96407E-001	5.55517E-001	-2.78390E-002	-3.89761E-002	6.93092E-001	-4.41840E-002	-2.81699E-003	2.30011E-004	-2.57911E-002	-2.40229E-002	1.20388E-003	1.68549E-003	-2.99722E-002	1.91070E-003
	22	22	4.99582E-002	-4.26345E-002	0.00000E+000	-2.12994E-003	-4.22799E-001	3.91060E-002	3.14460E+001	11	...........	6.52408E-002	-5.26431E-003	5.96611E-001	5.55445E-001	-2.78336E-002	-3.90042E-002	6.93048E-001	-4.41576E-002	-2.78151E-003	2.24441E-004	-2.54362E-002	-2.36812E-002	1.18667E-003	1.66292E-003	-2.95478E-002	1.88264E-003
	23	23	4.99557E-002	-4.20487E-002	0.00000E+000	-2.10058E-003	-4.16979E-001	3.91617E-002	3.15312E+001	11	...........	6.53150E-002	-5.32778E-003	5.96612E-001	5.55523E-001	-2.78201E-002	-3.90135E-002	6.93054E-001	-4.41267E-002	-2.74641E-003	2.24026E-004	-2.50868E-002	-2.33590E-002	1.16980E-003	1.64047E-003	-2.91421E-002	1.85547E-003
	24	24	4.99558E-002	-4.14662E-002	0.00000E+000	-2.07148E-003	-4.11189E-001	3.92088E-002	3.15770E+001	11	...........	6.53944E-002	-5.25264E-003	5.96801E-001	5.55750E-001	-2.78233E-002	-3.90050E-002	6.93056E-001	-4.41608E-002	-2.71166E-003	2.17807E-004	-2.47471E-002	-2.30448E-002	1.15373E-003	1.61739E-003	-2.87384E-002	1.83118E-003
	25	25	4.99575E-002	-4.08496E-002	0.00000E+000	-2.04074E-003	-4.05083E-001	3.92520E-002	3.16338E+001	11	...........	6.54644E-002	-5.24167E-003	5.96821E-001	5.55786E-001	-2.78197E-002	-3.89856E-002	6.93087E-001	-4.42036E-002	-2.67419E-003	2.14120E-004	-2.43799E-002	-2.27036E-002	1.13642E-003	1.59254E-003	-2.83123E-002	1.80570E-003
	26	26	4.99578E-002	-4.02995E-002	0.00000E+000	-2.01327E-003	-3.99601E-001	3.92965E-002	3.17052E+001	11	...........	6.55365E-002	-5.27944E-003	5.96705E-001	5.55901E-001	-2.78224E-002	-3.89842E-002	6.93112E-001	-4.41811E-002	-2.64109E-003	2.12759E-004	-2.40469E-002	-2.24025E-002	1.12123E-003	1.57104E-003	-2.79321E-002	1.78048E-003
	27	27	4.99593E-002	-3.99269E-002	0.00000E+000	-1.99472E-003	-3.95896E-001	3.93388E-002	3.17415E+001	11	...........	6.56196E-002	-5.34333E-003	5.96837E-001	5.56005E-001	-2.78275E-002	-3.89939E-002	6.93116E-001	-4.40961E-002	-2.61999E-003	2.13343E-004	-2.38299E-002	-2.21996E-002	1.11107E-003	1.55691E-003	-2.76740E-002	1.76062E-003
	28	28	4.99594E-002	-3.94932E-002	0.00000E+000	-1.97306E-003	-3.91592E-001	3.93861E-002	3.18116E+001	11	...........	6.57021E-002	-5.46056E-003	5.96991E-001	5.55954E-001	-2.78299E-002	-3.89917E-002	6.93172E-001	-4.39860E-002	-2.59479E-003	2.15655E-004	-2.35771E-002	-2.19564E-002	1.09909E-003	1.53991E-003	-2.73756E-002	1.73715E-003
	29	29	4.99570E-002	-3.90809E-002	0.00000E+000	-1.95237E-003	-3.87487E-001	3.94205E-002	3.18594E+001	11	...........	6.57611E-002	-5.36889E-003	5.96949E-001	5.55837E-001	-2.78408E-002	-3.89775E-002	6.93106E-001	-4.39651E-002	-2.57000E-003	2.09821E-004	-2.33293E-002	-2.17226E-002	1.08804E-003	1.52328E-003	-2.70872E-002	1.71820E-003
	30	30	4.99503E-002	-3.84451E-002	0.00000E+000	-1.92035E-003	-3.81173E-001	3.94684E-002	3.19150E+001	11	...........	6.58443E-002	-5.37236E-003	5.96855E-001	5.55818E-001	-2.78533E-002	-3.89672E-002	6.93199E-001	-4.40774E-002	-2.53139E-003	2.06541E-004	-2.29462E-002	-2.13685E-002	1.07082E-003	1.49810E-003	-2.66501E-002	1.69456E-003
	31	31	4.99623E-002	-3.77502E-002	0.00000E+000	-1.88609E-003	-3.74250E-001	3.95187E-002	3.16053E+001	11	...........	6.59165E-002	-5.38181E-003	5.96983E-001	5.55798E-001	-2.78571E-002	-3.89356E-002	6.93150E-001	-4.40489E-002	-2.48836E-003	2.03164E-004	-2.25362E-002	-2.09815E-002	1.05161E-003	1.46982E-003	-2.61665E-002	1.66285E-003
	32	32	4.99597E-002	-3.72186E-002	0.00000E+000	-1.85943E-003	-3.68968E-001	3.94819E-002	3.17604E+001	11	...........	6.58717E-002	-5.32639E-003	5.96848E-001	5.55801E-001	-2.78557E-002	-3.89256E-002	6.93139E-001	-4.39786E-002	-2.45165E-003	1.98241E-004	-2.22138E-002	-2.06861E-002	1.03675E-003	1.44875E-003	-2.57976E-002	1.63682E-003
	33	33	4.99602E-002	-3.71899E-002	0.00000E+000	-1.85802E-003	-3.68693E-001	3.96255E-002	3.20208E+001	11	...........	6.61021E-002	-5.30528E-003	5.96726E-001	5.55820E-001	-2.78725E-002	-3.89135E-002	6.93213E-001	-4.39339E-002	-2.45833E-003	1.97303E-004	-2.21922E-002	-2.06709E-002	1.03658E-003	1.44719E-003	-2.57806E-002	1.63390E-003
	34	34	4.99581E-002	-3.67519E-002	0.00000E+000	-1.83606E-003	-3.64327E-001	3.96440E-002	3.21001E+001	11	...........	6.61183E-002	-5.17986E-003	5.96785E-001	5.55735E-001	-2.78693E-002	-3.88862E-002	6.93216E-001	-4.39974E-002	-2.42997E-003	1.90370E-004	-2.19330E-002	-2.04243E-002	1.02425E-003	1.42914E-003	-2.54770E-002	1.61699E-003
	35	35	4.99581E-002	-3.62471E-002	0.00000E+000	-1.81084E-003	-3.59303E-001	3.96733E-002	3.21414E+001	11	...........	6.61800E-002	-5.15417E-003	5.96727E-001	5.55651E-001	-2.78739E-002	-3.88643E-002	6.93279E-001	-4.41090E-002	-2.39883E-003	1.86824E-004	-2.16296E-002	-2.01407E-002	1.01035E-003	1.40872E-003	-2.51293E-002	1.59882E-003
	36	36	4.99589E-002	-3.58429E-002	0.00000E+000	-1.79067E-003	-3.55285E-001	3.97283E-002	3.21897E+001	11	...........	6.62676E-002	-5.17625E-003	5.96657E-001	5.55537E-001	-2.78764E-002	-3.88437E-002	6.93433E-001	-4.40751E-002	-2.37522E-003	1.85532E-004	-2.13859E-002	-1.99120E-002	9.99170E-004	1.39227E-003	-2.48546E-002	1.57978E-003
	37	37	4.99576E-002	-3.53716E-002	0.00000E+000	-1.76708E-003	-3.50589E-001	3.97449E-002	3.22226E+001	11	...........	6.62997E-002	-5.25542E-003	5.96688E-001	5.55483E-001	-2.78611E-002	-3.88160E-002	6.93277E-001	-4.41314E-002	-2.34513E-003	1.85893E-004	-2.11058E-002	-1.96483E-002	9.85493E-004	1.37298E-003	-2.45223E-002	1.56100E-003
	38	38	4.99595E-002	-3.48797E-002	0.00000E+000	-1.74257E-003	-3.45700E-001	3.97941E-002	3.22368E+001	11	...........	6.63683E-002	-5.25528E-003	5.96662E-001	5.55489E-001	-2.78835E-002	-3.88186E-002	6.93293E-001	-4.40893E-002	-2.31491E-003	1.83303E-004	-2.08114E-002	-1.93753E-002	9.72568E-004	1.35398E-003	-2.41819E-002	1.53782E-003
	39	39	4.99568E-002	-3.44330E-002	0.00000E+000	-1.72016E-003	-3.41266E-001	3.98319E-002	3.22525E+001	11	...........	6.64393E-002	-5.21986E-003	5.96495E-001	5.55634E-001	-2.78824E-002	-3.88072E-002	6.93259E-001	-4.41140E-002	-2.28770E-003	1.79735E-004	-2.05391E-002	-1.91321E-002	9.60073E-004	1.33625E-003	-2.38710E-002	1.51898E-003
	40	40	4.99574E-002	-3.39951E-002	0.00000E+000	-1.69831E-003	-3.36902E-001	3.98716E-002	3.23103E+001	11	...........	6.65093E-002	-5.15500E-003	5.96444E-001	5.55612E-001	-2.78940E-002	-3.88097E-002	6.93180E-001	-4.40950E-002	-2.26099E-003	1.75245E-004	-2.02761E-002	-1.88881E-002	9.48260E-004	1.31934E-003	-2.35647E-002	1.49901E-003
	41	41	4.99591E-002	-3.34770E-002	0.00000E+000	-1.67248E-003	-3.31761E-001	3.98955E-002	3.23524E+001	11	...........	6.65397E-002	-5.26222E-003	5.96576E-001	5.55460E-001	-2.78864E-002	-3.88160E-002	6.93077E-001	-4.41169E-002	-2.22755E-003	1.76163E-004	-1.99716E-002	-1.85951E-002	9.33552E-004	1.29944E-003	-2.32021E-002	1.47690E-003
	42	42	4.99592E-002	-3.30850E-002	0.00000E+000	-1.65290E-003	-3.27857E-001	3.99493E-002	3.24157E+001	11	...........	6.66515E-002	-5.28167E-003	5.96548E-001	5.55464E-001	-2.78856E-002	-3.88303E-002	6.93020E-001	-4.41379E-002	-2.20517E-003	1.74744E-004	-1.97368E-002	-1.83775E-002	9.22595E-004	1.28470E-003	-2.29286E-002	1.46030E-003
	43	43	4.99586E-002	-3.26727E-002	0.00000E+000	-1.63228E-003	-3.23749E-001	3.99702E-002	3.24462E+001	11	...........	6.66882E-002	-5.20819E-003	5.96637E-001	5.55459E-001	-2.78854E-002	-3.88575E-002	6.93052E-001	-4.41107E-002	-2.17888E-003	1.70166E-004	-1.94937E-002	-1.81483E-002	9.11091E-004	1.26958E-003	-2.26438E-002	1.44121E-003
	44	44	4.99564E-002	-3.20916E-002	0.00000E+000	-1.60318E-003	-3.17977E-001	4.00067E-002	3.24591E+001	11	...........	6.67278E-002	-5.22500E-003	5.96753E-001	5.55320E-001	-2.78857E-002	-3.88583E-002	6.93056E-001	-4.39729E-002	-2.14140E-003	1.67679E-004	-1.91508E-002	-1.78211E-002	8.94898E-004	1.24703E-003	-2.22413E-002	1.41116E-003
	45	45	4.99616E-002	-3.17760E-002	0.00000E+000	-1.58758E-003	-3.14843E-001	4.00361E-002	3.24945E+001	11	...........	6.67899E-002	-5.23014E-003	5.96808E-001	5.55379E-001	-2.78986E-002	-3.88633E-002	6.93134E-001	-4.39874E-002	-2.12232E-003	1.66193E-004	-1.89642E-002	-1.76477E-002	8.86507E-004	1.23492E-003	-2.20250E-002	1.39774E-003
	46	46	4.99581E-002	-3.14464E-002	0.00000E+000	-1.57100E-003	-3.11557E-001	4.00720E-002	3.25350E+001	11	...........	6.68317E-002	-5.24542E-003	5.96693E-001	5.55331E-001	-2.79026E-002	-3.88799E-002	6.93101E-001	-4.40072E-002	-2.10162E-003	1.64950E-004	-1.87639E-002	-1.74632E-002	8.77438E-004	1.22263E-003	-2.17955E-002	1.38387E-003
	47	47	4.99590E-002	-3.10033E-002	0.00000E+000	-1.54890E-003	-3.07174E-001	4.00901E-002	3.25636E+001	11	...........	6.68824E-002	-5.28875E-003	5.96626E-001	5.55161E-001	-2.79136E-002	-3.88749E-002	6.92880E-001	-4.41151E-002	-2.07358E-003	1.63969E-004	-1.84974E-002	-1.72118E-002	8.65415E-004	1.20525E-003	-2.14816E-002	1.36772E-003
	48	48	4.99589E-002	-3.05719E-002	0.00000E+000	-1.52734E-003	-3.02899E-001	4.01282E-002	3.25856E+001	11	...........	6.69332E-002	-5.21653E-003	5.96635E-001	5.55174E-001	-2.79171E-002	-3.88986E-002	6.92801E-001	-4.41410E-002	-2.04628E-003	1.59479E-004	-1.82403E-002	-1.69727E-002	8.53479E-004	1.18921E-003	-2.11803E-002	1.34948E-003
	49	49	4.99583E-002	-3.02343E-002	0.00000E+000	-1.51045E-003	-2.99534E-001	4.01623E-002	3.26207E+001	11	...........	6.69939E-002	-5.26958E-003	5.96487E-001	5.55222E-001	-2.79161E-002	-3.88767E-002	6.92911E-001	-4.41792E-002	-2.02551E-003	1.59322E-004	-1.80344E-002	-1.67868E-002	8.44024E-004	1.17541E-003	-2.09497E-002	1.33573E-003
	50	50	4.99594E-002	-2.97983E-002	0.00000E+000	-1.48870E-003	-2.95191E-001	4.01856E-002	3.26455E+001	11	...........	6.70405E-002	-5.37611E-003	5.96624E-001	5.55396E-001	-2.79190E-002	-3.88619E-002	6.92954E-001	-4.40946E-002	-1.99769E-003	1.60199E-004	-1.77784E-002	-1.65498E-002	8.31939E-004	1.15802E-003	-2.06488E-002	1.31394E-003
	51	51	4.99586E-002	-2.93948E-002	0.00000E+000	-1.46853E-003	-2.91197E-001	4.02196E-002	3.26924E+001	11	...........	6.70800E-002	-5.32347E-003	5.96492E-001	5.55424E-001	-2.79117E-002	-3.88560E-002	6.93073E-001	-4.40918E-002	-1.97181E-003	1.56483E-004	-1.75338E-002	-1.63266E-002	8.20459E-004	1.14216E-003	-2.03728E-002	1.29607E-003
	52	52	4.99584E-002	-2.89599E-002	0.00000E+000	-1.44679E-003	-2.86865E-001	4.02501E-002	3.27092E+001	11	...........	6.71449E-002	-5.26944E-003	5.96737E-001	5.55399E-001	-2.79153E-002	-3.88544E-002	6.93092E-001	-4.40906E-002	-1.94451E-003	1.52603E-004	-1.72814E-002	-1.60843E-002	8.08424E-004	1.12522E-003	-2.00719E-002	1.27686E-003
	53	53	4.99586E-002	-2.85268E-002	0.00000E+000	-1.42516E-003	-2.82561E-001	4.02812E-002	3.27647E+001	11	...........	6.71921E-002	-5.26292E-003	5.96796E-001	5.55293E-001	-2.79226E-002	-3.88442E-002	6.93050E-001	-4.40840E-002	-1.91677E-003	1.50134E-004	-1.70247E-002	-1.58407E-002	7.96543E-004	1.10810E-003	-1.97705E-002	1.25758E-003
	54	54	4.99594E-002	-2.81250E-002	0.00000E+000	-1.40511E-003	-2.78563E-001	4.03093E-002	3.28170E+001	11	...........	6.72456E-002	-5.31944E-003	5.96735E-001	5.54984E-001	-2.79015E-002	-3.88468E-002	6.93008E-001	-4.41474E-002	-1.89128E-003	1.49609E-004	-1.67832E-002	-1.56089E-002	7.84730E-004	1.09257E-003	-1.94909E-002	1.24164E-003
	55	55	4.99598E-002	-2.77774E-002	0.00000E+000	-1.38775E-003	-2.75101E-001	4.03492E-002	3.28458E+001	11	...........	6.73100E-002	-5.26819E-003	5.96677E-001	5.55032E-001	-2.78957E-002	-3.88510E-002	6.92973E-001	-4.41275E-002	-1.86969E-003	1.46337E-004	-1.65741E-002	-1.54173E-002	7.74869E-004	1.07918E-003	-1.92490E-002	1.22575E-003
	56	56	4.99593E-002	-2.74557E-002	0.00000E+000	-1.37167E-003	-2.71897E-001	4.03661E-002	3.29103E+001	11	...........	6.73369E-002	-5.16611E-003	5.96594E-001	5.55079E-001	-2.79250E-002	-3.88531E-002	6.93006E-001	-4.40643E-002	-1.84878E-003	1.41839E-004	-1.63799E-002	-1.52400E-002	7.66699E-004	1.06674E-003	-1.90269E-002	1.20981E-003
	57	57	4.99605E-002	-2.71341E-002	0.00000E+000	-1.35563E-003	-2.68697E-001	4.03995E-002	3.29471E+001	11	...........	6.73761E-002	-5.17514E-003	5.96563E-001	5.55266E-001	-2.79060E-002	-3.88557E-002	6.92906E-001	-4.41004E-002	-1.82819E-003	1.40423E-004	-1.61872E-002	-1.50666E-002	7.57203E-004	1.05431E-003	-1.88014E-002	1.19662E-003
	58	58	4.99602E-002	-2.68036E-002	0.00000E+000	-1.33911E-003	-2.65423E-001	4.04175E-002	3.23204E+001	11	...........	6.74257E-002	-5.18333E-003	5.96626E-001	5.55262E-001	-2.79151E-002	-3.88675E-002	6.93067E-001	-4.40614E-002	-1.80725E-003	1.38932E-004	-1.59917E-002	-1.48830E-002	7.48227E-004	1.04179E-003	-1.85767E-002	1.18101E-003
	59	59	4.99534E-002	-2.59292E-002	0.00000E+000	-1.29525E-003	-2.56725E-001	4.03498E-002	3.26925E+001	11	...........	6.73169E-002	-5.22708E-003	5.96695E-001	5.55369E-001	-2.79289E-002	-3.88733E-002	6.93246E-001	-4.41554E-002	-1.74547E-003	1.35534E-004	-1.54718E-002	-1.44003E-002	7.24174E-004	1.00795E-003	-1.79753E-002	1.14491E-003
	60	60	4.99620E-002	-2.58146E-002	0.00000E+000	-1.28975E-003	-2.55588E-001	4.04727E-002	3.30221E+001	11	...........	6.75117E-002	-5.23153E-003	5.96889E-001	5.55380E-001	-2.79136E-002	-3.88896E-002	6.93178E-001	-4.43072E-002	-1.74279E-003	1.35050E-004	-1.54085E-002	-1.43369E-002	7.20579E-004	1.00392E-003	-1.78941E-002	1.14377E-003
	61	61	4.99611E-002	-2.55717E-002	0.00000E+000	-1.27759E-003	-2.53169E-001	4.04234E-002	3.30924E+001	11	...........	6.74350E-002	-5.16611E-003	5.96835E-001	5.55267E-001	-2.79049E-002	-3.89154E-002	6.93072E-001	-4.42219E-002	-1.72443E-003	1.32106E-004	-1.52621E-002	-1.41991E-002	7.13576E-004	9.95135E-004	-1.77231E-002	1.13083E-003
	62	62	4.99603E-002	-2.53414E-002	0.00000E+000	-1.26607E-003	-2.50871E-001	4.04501E-002	3.31115E+001	11	...........	6.74790E-002	-5.28306E-003	5.96896E-001	5.55218E-001	-2.78954E-002	-3.89383E-002	6.93101E-001	-4.41425E-002	-1.71001E-003	1.33880E-004	-1.51262E-002	-1.40700E-002	7.06910E-004	9.86753E-004	-1.75642E-002	1.11863E-003
	63	63	4.99606E-002	-2.50887E-002	0.00000E+000	-1.25345E-003	-2.48357E-001	4.05016E-002	3.31590E+001	11	...........	6.75614E-002	-5.22972E-003	5.96885E-001	5.55262E-001	-2.78987E-002	-3.89636E-002	6.93121E-001	-4.41439E-002	-1.69503E-003	1.31207E-004	-1.49751E-002	-1.39308E-002	6.99945E-004	9.77548E-004	-1.73895E-002	1.10751E-003
	64	64	4.99600E-002	-2.47792E-002	0.00000E+000	-1.23797E-003	-2.45269E-001	4.05277E-002	3.31832E+001	11	...........	6.75999E-002	-5.30694E-003	5.96787E-001	5.55210E-001	-2.79014E-002	-3.89317E-002	6.93171E-001	-4.39344E-002	-1.67507E-003	1.31502E-004	-1.47879E-002	-1.37576E-002	6.91374E-004	9.64695E-004	-1.71762E-002	1.08866E-003
	65	65	4.99578E-002	-2.43910E-002	0.00000E+000	-1.21852E-003	-2.41418E-001	4.05366E-002	3.32236E+001	11	...........	6.76144E-002	-5.26125E-003	5.96752E-001	5.55146E-001	-2.79104E-002	-3.89290E-002	6.93163E-001	-4.39253E-002	-1.64919E-003	1.28327E-004	-1.45554E-002	-1.35406E-002	6.80764E-004	9.49519E-004	-1.69070E-002	1.07138E-003
	66	66	4.99637E-002	-2.41598E-002	0.00000E+000	-1.20711E-003	-2.39126E-001	4.05567E-002	3.32327E+001	11	...........	6.76574E-002	-5.23472E-003	5.96746E-001	5.55063E-001	-2.79253E-002	-3.89356E-002	6.93202E-001	-4.39715E-002	-1.63459E-003	1.26470E-004	-1.44173E-002	-1.34102E-002	6.74670E-004	9.40677E-004	-1.67476E-002	1.06235E-003
	67	67	4.99608E-002	-2.40293E-002	0.00000E+000	-1.20052E-003	-2.37829E-001	4.05973E-002	3.33007E+001	11	...........	6.77337E-002	-5.20417E-003	5.96571E-001	5.55181E-001	-2.79375E-002	-3.89264E-002	6.93253E-001	-4.40294E-002	-1.62760E-003	1.25053E-004	-1.43352E-002	-1.33406E-002	6.71319E-004	9.35375E-004	-1.66584E-002	1.05800E-003
	68	68	4.99583E-002	-2.36758E-002	0.00000E+000	-1.18280E-003	-2.34307E-001	4.06371E-002	3.32918E+001	11	...........	6.77690E-002	-5.29403E-003	5.96561E-001	5.55165E-001	-2.79261E-002	-3.89022E-002	6.93144E-001	-4.40449E-002	-1.60449E-003	1.25340E-004	-1.41241E-002	-1.31440E-002	6.61173E-004	9.21041E-004	-1.64107E-002	1.04280E-003
	69	69	4.99608E-002	-2.33597E-002	0.00000E+000	-1.16707E-003	-2.31165E-001	4.06297E-002	3.33178E+001	11	...........	6.77726E-002	-5.24403E-003	5.96617E-001	5.55111E-001	-2.79211E-002	-3.89090E-002	6.93218E-001	-4.40649E-002	-1.58315E-003	1.22499E-004	-1.39368E-002	-1.29672E-002	6.52228E-004	9.08902E-004	-1.61934E-002	1.02934E-003
	70	70	4.99616E-002	-2.30473E-002	0.00000E+000	-1.15148E-003	-2.28066E-001	4.06635E-002	3.33221E+001	11	...........	6.78353E-002	-5.23306E-003	5.96612E-001	5.55148E-001	-2.78639E-002	-3.88986E-002	6.93224E-001	-4.39412E-002	-1.56342E-003	1.20608E-004	-1.37503E-002	-1.27946E-002	6.42187E-004	8.96507E-004	-1.59769E-002	1.01273E-003
	71	71	4.99591E-002	-2.28083E-002	0.00000E+000	-1.13948E-003	-2.25682E-001	4.06898E-002	3.33581E+001	11	...........	6.78682E-002	-5.07444E-003	5.96619E-001	5.55259E-001	-2.78653E-002	-3.89014E-002	6.93200E-001	-4.39226E-002	-1.54796E-003	1.15740E-004	-1.36079E-002	-1.26645E-002	6.35560E-004	8.87276E-004	-1.58107E-002	1.00180E-003
	72	72	4.99601E-002	-2.24949E-002	0.00000E+000	-1.12385E-003	-2.22561E-001	4.07068E-002	3.33894E+001	11	...........	6.79096E-002	-5.06056E-003	5.96510E-001	5.55219E-001	-2.78656E-002	-3.88951E-002	6.93154E-001	-4.39522E-002	-1.52762E-003	1.13837E-004	-1.34185E-002	-1.24896E-002	6.26834E-004	8.74944E-004	-1.55925E-002	9.88703E-004
	73	73	4.99597E-002	-2.21471E-002	0.00000E+000	-1.10646E-003	-2.19094E-001	4.07327E-002	3.34033E+001	11	...........	6.79336E-002	-5.15417E-003	5.96379E-001	5.55243E-001	-2.78685E-002	-3.89124E-002	6.93166E-001	-4.40242E-002	-1.50453E-003	1.14150E-004	-1.32080E-002	-1.22970E-002	6.17205E-004	8.61794E-004	-1.53516E-002	9.75006E-004
	74	74	4.99597E-002	-2.17969E-002	0.00000E+000	-1.08896E-003	-2.15629E-001	4.07511E-002	3.34377E+001	11	...........	6.79619E-002	-5.20028E-003	5.96251E-001	5.55410E-001	-2.78744E-002	-3.88951E-002	6.93141E-001	-4.40292E-002	-1.48136E-003	1.13350E-004	-1.29964E-002	-1.21062E-002	6.07575E-004	8.47792E-004	-1.51083E-002	9.59697E-004
	75	75	4.99584E-002	-2.14577E-002	0.00000E+000	-1.07199E-003	-2.12248E-001	4.07646E-002	3.34369E+001	11	...........	6.80029E-002	-5.17722E-003	5.96182E-001	5.55476E-001	-2.78783E-002	-3.89031E-002	6.93118E-001	-4.40243E-002	-1.45919E-003	1.11091E-004	-1.27927E-002	-1.19193E-002	5.98206E-004	8.34771E-004	-1.48727E-002	9.44662E-004
	76	76	4.99623E-002	-2.12004E-002	0.00000E+000	-1.05922E-003	-2.09693E-001	4.07867E-002	3.34348E+001	11	...........	6.80486E-002	-5.14806E-003	5.96126E-001	5.55527E-001	-2.78925E-002	-3.89039E-002	6.93154E-001	-4.40571E-002	-1.44266E-003	1.09141E-004	-1.26381E-002	-1.17774E-002	5.91332E-004	8.24778E-004	-1.46952E-002	9.34028E-004
	77	77	4.99607E-002	-2.09654E-002	0.00000E+000	-1.04745E-003	-2.07353E-001	4.08112E-002	3.34767E+001	11	...........	6.80719E-002	-5.18028E-003	5.96141E-001	5.55468E-001	-2.79032E-002	-3.89179E-002	6.93118E-001	-4.41529E-002	-1.42716E-003	1.08607E-004	-1.24983E-002	-1.16456E-002	5.85002E-004	8.15930E-004	-1.45315E-002	9.25684E-004
	78	78	4.99599E-002	-2.06944E-002	0.00000E+000	-1.03389E-003	-2.04666E-001	4.08332E-002	3.35009E+001	11	...........	6.81139E-002	-5.20236E-003	5.96164E-001	5.55440E-001	-2.78833E-002	-3.89285E-002	6.93237E-001	-4.41840E-002	-1.40957E-003	1.07660E-004	-1.23373E-002	-1.14945E-002	5.77028E-004	8.05601E-004	-1.43461E-002	9.14361E-004
	79	79	4.99604E-002	-2.03940E-002	0.00000E+000	-1.01889E-003	-2.01690E-001	4.05450E-002	3.35454E+001	11	...........	6.81389E-002	-5.17958E-003	5.96304E-001	5.55467E-001	-2.79024E-002	-3.89035E-002	6.93280E-001	-4.41601E-002	-1.38962E-003	1.05632E-004	-1.21610E-002	-1.13282E-002	5.69040E-004	7.93396E-004	-1.41387E-002	9.00600E-004
	80	80	4.99607E-002	-2.01400E-002	0.00000E+000	-1.00621E-003	-1.99157E-001	4.08669E-002	3.35792E+001	11	...........	6.81654E-002	-5.22389E-003	5.96327E-001	5.55470E-001	-2.78946E-002	-3.89012E-002	6.93180E-001	-4.40822E-002	-1.37285E-003	1.05209E-004	-1.20100E-002	-1.11872E-002	5.61796E-004	7.83470E-004	-1.39606E-002	8.87814E-004
	81	81	4.99598E-002	-1.98228E-002	0.00000E+000	-9.90344E-004	-1.96002E-001	4.08872E-002	3.36369E+001	11	...........	6.82022E-002	-5.36208E-003	5.96381E-001	5.55502E-001	-2.79108E-002	-3.88756E-002	6.93138E-001	-4.40594E-002	-1.35196E-003	1.06292E-004	-1.18219E-002	-1.10116E-002	5.53271E-004	7.70622E-004	-1.37399E-002	8.73382E-004
	82	82	4.99614E-002	-1.95649E-002	0.00000E+000	-9.77492E-004	-1.93429E-001	4.09058E-002	3.36571E+001	11	...........	6.82357E-002	-5.33028E-003	5.96347E-001	5.55448E-001	-2.79060E-002	-3.88574E-002	6.93149E-001	-4.41328E-002	-1.33503E-003	1.04287E-004	-1.16675E-002	-1.08673E-002	5.45979E-004	7.60242E-004	-1.35614E-002	8.63455E-004
	83	83	4.99604E-002	-1.93452E-002	0.00000E+000	-9.66497E-004	-1.91247E-001	4.09156E-002	3.36837E+001	11	...........	6.82546E-002	-5.20444E-003	5.96384E-001	5.55315E-001	-2.79124E-002	-3.88557E-002	6.93149E-001	-4.40106E-002	-1.32040E-003	1.00681E-004	-1.15372E-002	-1.07427E-002	5.39971E-004	7.51673E-004	-1.34091E-002	8.51395E-004
	84	84	4.99605E-002	-1.90807E-002	0.00000E+000	-9.53278E-004	-1.88629E-001	4.09048E-002	3.37205E+001	11	...........	6.82918E-002	-5.09097E-003	5.96239E-001	5.55280E-001	-2.79204E-002	-3.88635E-002	6.93133E-001	-4.40785E-002	-1.30305E-003	9.71391E-005	-1.13766E-002	-1.05951E-002	5.32740E-004	7.41540E-004	-1.32254E-002	8.41046E-004
	85	85	4.99610E-002	-1.88063E-002	0.00000E+000	-9.39583E-004	-1.85896E-001	4.09495E-002	3.37528E+001	11	...........	6.83069E-002	-5.14625E-003	5.96290E-001	5.55292E-001	-2.79218E-002	-3.88731E-002	6.93071E-001	-4.40153E-002	-1.28460E-003	9.67822E-005	-1.12140E-002	-1.04430E-002	5.25107E-004	7.31060E-004	-1.30341E-002	8.27767E-004
	86	86	4.99612E-002	-1.86138E-002	0.00000E+000	-9.29970E-004	-1.83981E-001	4.09784E-002	3.37670E+001	11	...........	6.83522E-002	-5.23194E-003	5.96341E-001	5.55364E-001	-2.79219E-002	-3.88693E-002	6.92978E-001	-4.39683E-002	-1.27230E-003	9.73866E-005	-1.11002E-002	-1.03375E-002	5.19735E-004	7.23507E-004	-1.28990E-002	8.18419E-004
	87	87	4.99600E-002	-1.83411E-002	0.00000E+000	-9.16321E-004	-1.81265E-001	4.09940E-002	3.37864E+001	11	...........	6.83856E-002	-5.23583E-003	5.96397E-001	5.55369E-001	-2.79201E-002	-3.88500E-002	6.92893E-001	-4.40231E-002	-1.25427E-003	9.60309E-005	-1.09386E-002	-1.01861E-002	5.12086E-004	7.12552E-004	-1.27084E-002	8.07431E-004
	88	88	4.99615E-002	-1.80847E-002	0.00000E+000	-9.03540E-004	-1.78733E-001	4.10147E-002	3.38214E+001	11	...........	6.84071E-002	-5.18569E-003	5.96325E-001	5.55403E-001	-2.79296E-002	-3.88529E-002	6.92929E-001	-4.38256E-002	-1.23712E-003	9.37820E-005	-1.07844E-002	-1.00443E-002	5.05099E-004	7.02645E-004	-1.25314E-002	7.92574E-004
	89	89	4.99609E-002	-1.78646E-002	0.00000E+000	-8.92534E-004	-1.76537E-001	4.10347E-002	3.38711E+001	11	...........	6.84575E-002	-5.17014E-003	5.96311E-001	5.55305E-001	-2.79401E-002	-3.88542E-002	6.92933E-001	-4.38744E-002	-1.22297E-003	9.23626E-005	-1.06529E-002	-9.92032E-003	4.99140E-004	6.94115E-004	-1.23790E-002	7.83801E-004
	90	90	4.99612E-002	-1.76694E-002	0.00000E+000	-8.82782E-004	-1.74585E-001	4.10456E-002	3.39181E+001	11	...........	6.84754E-002	-5.17569E-003	5.96251E-001	5.55340E-001	-2.79549E-002	-3.88426E-002	6.93106E-001	-4.38649E-002	-1.20992E-003	9.14512E-005	-1.05354E-002	-9.81250E-003	4.93944E-004	6.86324E-004	-1.22467E-002	7.75064E-004
	91	91	4.99610E-002	-1.74019E-002	0.00000E+000	-8.69414E-004	-1.71925E-001	4.10732E-002	3.38554E+001	11	...........	6.85294E-002	-5.16556E-003	5.96264E-001	5.55378E-001	-2.79567E-002	-3.88371E-002	6.93088E-001	-4.38028E-002	-1.19254E-003	8.98902E-005	-1.03761E-002	-9.66461E-003	4.86498E-004	6.75837E-004	-1.20610E-002	7.62249E-004
	92	92	4.99607E-002	-1.71959E-002	0.00000E+000	-8.59120E-004	-1.69875E-001	4.10750E-002	3.37541E+001	11	...........	6.85321E-002	-5.14764E-003	5.96193E-001	5.55392E-001	-2.79550E-002	-3.88596E-002	6.93075E-001	-4.40104E-002	-1.17847E-003	8.85184E-005	-1.02521E-002	-9.55047E-003	4.80712E-004	6.68226E-004	-1.19181E-002	7.56799E-004
	93	93	4.99620E-002	-1.70107E-002	0.00000E+000	-8.49888E-004	-1.68030E-001	4.10825E-002	3.38645E+001	11	...........	6.85342E-002	-5.16542E-003	5.96098E-001	5.55349E-001	-2.79222E-002	-3.88503E-002	6.93107E-001	-4.39792E-002	-1.16581E-003	8.78674E-005	-1.01400E-002	-9.44688E-003	4.74977E-004	6.60871E-004	-1.17902E-002	7.48117E-004
	94	94	4.99617E-002	-1.68404E-002	0.00000E+000	-8.41372E-004	-1.66329E-001	4.11628E-002	3.39130E+001	11	...........	6.86474E-002	-5.14444E-003	5.96130E-001	5.55368E-001	-2.79053E-002	-3.88699E-002	6.93078E-001	-4.39272E-002	-1.15605E-003	8.66343E-005	-1.00390E-002	-9.35260E-003	4.69935E-004	6.54582E-004	-1.16717E-002	7.39750E-004
	95	95	4.99606E-002	-1.66496E-002	0.00000E+000	-8.31823E-004	-1.64451E-001	4.11958E-002	3.39689E+001	11	...........	6.87051E-002	-5.17722E-003	5.96138E-001	5.55344E-001	-2.79018E-002	-3.88624E-002	6.93040E-001	-4.38799E-002	-1.14391E-003	8.61986E-005	-9.92545E-003	-9.24625E-003	4.64553E-004	6.47042E-004	-1.15388E-002	7.30581E-004
	96	96	4.99606E-002	-1.63632E-002	0.00000E+000	-8.17513E-004	-1.61599E-001	4.11711E-002	3.40188E+001	11	...........	6.86815E-002	-5.20597E-003	5.96106E-001	5.55329E-001	-2.78868E-002	-3.88272E-002	6.93161E-001	-4.38668E-002	-1.12385E-003	8.51862E-005	-9.75419E-003	-9.08694E-003	4.56316E-004	6.35336E-004	-1.13423E-002	7.17800E-004
	97	97	4.99580E-002	-1.60655E-002	0.00000E+000	-8.02602E-004	-1.58635E-001	4.11560E-002	3.30915E+001	11	...........	6.86494E-002	-5.33250E-003	5.96003E-001	5.55462E-001	-2.78533E-002	-3.88249E-002	6.92991E-001	-4.39225E-002	-1.10289E-003	8.56695E-005	-9.57512E-003	-8.92379E-003	4.47479E-004	6.23742E-004	-1.11333E-002	7.05639E-004
	98	98	4.99636E-002	-1.57583E-002	0.00000E+000	-7.87339E-004	-1.55573E-001	4.11837E-002	3.37421E+001	11	...........	6.86992E-002	-5.31333E-003	5.96035E-001	5.55513E-001	-2.78444E-002	-3.88310E-002	6.93020E-001	-4.38950E-002	-1.08258E-003	8.37289E-005	-9.39248E-003	-8.75392E-003	4.38780E-004	6.11908E-004	-1.09208E-002	6.91709E-004
	99	99	4.99617E-002	-1.56656E-002	0.00000E+000	-7.82678E-004	-1.54655E-001	4.11954E-002	3.40063E+001	11	...........	6.87164E-002	-5.24708E-003	5.95992E-001	5.55500E-001	-2.78435E-002	-3.88454E-002	6.93030E-001	-4.38128E-002	-1.07648E-003	8.21985E-005	-9.33655E-003	-8.70221E-003	4.36183E-004	6.08535E-004	-1.08567E-002	6.86351E-004
	100	100	4.99614E-002	-1.54877E-002	0.00000E+000	-7.73786E-004	-1.52896E-001	4.11946E-002	3.40711E+001	11	...........	6.87196E-002	-5.30944E-003	5.96157E-001	5.55434E-001	-2.78354E-002	-3.88661E-002	6.92920E-001	-4.39229E-002	-1.06431E-003	8.22310E-005	-9.23309E-003	-8.60239E-003	4.31106E-004	6.01946E-004	-1.07317E-002	6.80264E-004
	101	101	4.99613E-002	-1.52953E-002	0.00000E+000	-7.64174E-004	-1.50980E-001	4.12055E-002	3.40813E+001	11	...........	6.87372E-002	-5.27972E-003	5.96154E-001	5.55373E-001	-2.78176E-002	-3.88649E-002	6.92815E-001	-4.39322E-002	-1.05136E-003	8.07550E-005	-9.11837E-003	-8.49461E-003	4.25479E-004	5.94450E-004	-1.05968E-002	6.71957E-004
	102	102	4.99618E-002	-1.51121E-002	0.00000E+000	-7.55029E-004	-1.49153E-001	4.12217E-002	3.40856E+001	11	...........	6.87558E-002	-5.21597E-003	5.96188E-001	5.55439E-001	-2.78289E-002	-3.88651E-002	6.92839E-001	-4.40585E-002	-1.03905E-003	7.88243E-005	-9.00966E-003	-8.39385E-003	4.20553E-004	5.87334E-004	-1.04703E-002	6.65816E-004
	103	103	4.99615E-002	-1.49105E-002	0.00000E+000	-7.44953E-004	-1.47144E-001	4.12479E-002	3.40969E+001	11	...........	6.88089E-002	-5.26944E-003	5.96217E-001	5.55473E-001	-2.78417E-002	-3.88642E-002	6.92918E-001	-4.40293E-002	-1.02598E-003	7.85703E-005	-8.88992E-003	-8.28240E-003	4.15134E-004	5.79486E-004	-1.03318E-002	6.56501E-004
	104	104	4.99621E-002	-1.47726E-002	0.00000E+000	-7.38070E-004	-1.45775E-001	4.12645E-002	3.40854E+001	11	...........	6.88158E-002	-5.19583E-003	5.96241E-001	5.55496E-001	-2.78414E-002	-3.88543E-002	6.92996E-001	-4.39618E-002	-1.01659E-003	7.67560E-005	-8.80804E-003	-8.20612E-003	4.11290E-004	5.73979E-004	-1.02374E-002	6.49430E-004
	105	105	4.99612E-002	-1.45709E-002	0.00000E+000	-7.27980E-004	-1.43763E-001	4.12522E-002	3.41135E+001	11	...........	6.88092E-002	-5.23181E-003	5.96245E-001	5.55556E-001	-2.78475E-002	-3.88404E-002	6.92929E-001	-4.39189E-002	-1.00261E-003	7.62322E-005	-8.68784E-003	-8.09496E-003	4.05764E-004	5.65941E-004	-1.00966E-002	6.39939E-004
	106	106	4.99615E-002	-1.43653E-002	0.00000E+000	-7.17714E-004	-1.41713E-001	4.12607E-002	3.41362E+001	11	...........	6.88282E-002	-5.26097E-003	5.96270E-001	5.55775E-001	-2.78560E-002	-3.88501E-002	6.92985E-001	-4.39192E-002	-9.88740E-004	7.55756E-005	-8.56562E-003	-7.98389E-003	4.00160E-004	5.58095E-004	-9.95496E-003	6.30913E-004
	107	107	4.99617E-002	-1.42341E-002	0.00000E+000	-7.11158E-004	-1.40414E-001	4.12815E-002	3.41799E+001	11	...........	6.88683E-002	-5.27208E-003	5.96238E-001	5.55784E-001	-2.78554E-002	-3.88440E-002	6.92931E-001	-4.39788E-002	-9.80276E-004	7.50432E-005	-8.48688E-003	-7.91107E-003	3.96496E-004	5.52908E-004	-9.86323E-003	6.25996E-004
	108	108	4.99604E-002	-1.40154E-002	0.00000E+000	-7.00216E-004	-1.38256E-001	4.12986E-002	3.42238E+001	11	...........	6.88790E-002	-5.27958E-003	5.96272E-001	5.55649E-001	-2.78599E-002	-3.88353E-002	6.92881E-001	-4.40019E-002	-9.65368E-004	7.39955E-005	-8.35700E-003	-7.78765E-003	3.90467E-004	5.44292E-004	-9.71101E-003	6.16705E-004
	109	109	4.99615E-002	-1.37603E-002	0.00000E+000	-6.87484E-004	-1.35714E-001	4.13014E-002	3.42402E+001	11	...........	6.88939E-002	-5.28319E-003	5.96408E-001	5.55664E-001	-2.78635E-002	-3.88381E-002	6.92949E-001	-4.40194E-002	-9.47999E-004	7.26982E-005	-8.20674E-003	-7.64609E-003	3.83409E-004	5.34423E-004	-9.53517E-003	6.05720E-004
	110	110	4.99621E-002	-1.35886E-002	0.00000E+000	-6.78918E-004	-1.34000E-001	4.13092E-002	3.42379E+001	11	...........	6.88947E-002	-5.25625E-003	5.96529E-001	5.55562E-001	-2.78624E-002	-3.88246E-002	6.92958E-001	-4.38572E-002	-9.36186E-004	7.14253E-005	-8.10602E-003	-7.54933E-003	3.78612E-004	5.27573E-004	-9.41635E-003	5.95960E-004
	111	111	4.99616E-002	-1.34759E-002	0.00000E+000	-6.73276E-004	-1.32881E-001	4.13240E-002	3.42683E+001	11	...........	6.89439E-002	-5.31208E-003	5.96550E-001	5.55393E-001	-2.78633E-002	-3.88283E-002	6.92817E-001	-4.38428E-002	-9.29079E-004	7.15850E-005	-8.03904E-003	-7.48441E-003	3.75483E-004	5.23246E-004	-9.33632E-003	5.90820E-004
	112	112	4.99615E-002	-1.32586E-002	0.00000E+000	-6.62418E-004	-1.30715E-001	4.13285E-002	3.42944E+001	11	...........	6.89390E-002	-5.17986E-003	5.96617E-001	5.55412E-001	-2.78893E-002	-3.88426E-002	6.92926E-001	-4.39632E-002	-9.14032E-004	6.86775E-005	-7.91027E-003	-7.36396E-003	3.69772E-004	5.14997E-004	-9.18720E-003	5.82888E-004
	113	113	4.99619E-002	-1.31230E-002	0.00000E+000	-6.55648E-004	-1.29370E-001	4.13399E-002	3.42909E+001	11	...........	6.89514E-002	-5.21069E-003	5.96357E-001	5.55491E-001	-2.78839E-002	-3.88675E-002	6.93063E-001	-4.40247E-002	-9.04846E-004	6.83797E-005	-7.82596E-003	-7.28968E-003	3.65919E-004	5.10056E-004	-9.09504E-003	5.77734E-004
	114	114	4.99615E-002	-1.29158E-002	0.00000E+000	-6.45293E-004	-1.27327E-001	4.13421E-002	3.43257E+001	11	...........	6.89572E-002	-5.15417E-003	5.96362E-001	5.55434E-001	-2.78622E-002	-3.88879E-002	6.92973E-001	-4.39132E-002	-8.90639E-004	6.65703E-005	-7.70250E-003	-7.17388E-003	3.59863E-004	5.02269E-004	-8.95032E-003	5.67175E-004
	115	115	4.99618E-002	-1.27436E-002	0.00000E+000	-6.36692E-004	-1.25607E-001	4.13678E-002	3.43538E+001	11	...........	6.90008E-002	-5.11194E-003	5.96513E-001	5.55438E-001	-2.78606E-002	-3.88740E-002	6.92931E-001	-4.37999E-002	-8.79316E-004	6.51444E-005	-7.60170E-003	-7.07826E-003	3.55043E-004	4.95394E-004	-8.83042E-003	5.58166E-004
	116	116	4.99622E-002	-1.26053E-002	0.00000E+000	-6.29787E-004	-1.24227E-001	4.13880E-002	3.43772E+001	11	...........	6.90444E-002	-5.07958E-003	5.96607E-001	5.55556E-001	-2.78643E-002	-3.88581E-002	6.92942E-001	-4.36637E-002	-8.70324E-004	6.40295E-005	-7.52039E-003	-7.00294E-003	3.51237E-004	4.89816E-004	-8.73472E-003	5.50394E-004
	117	117	4.99613E-002	-1.24552E-002	0.00000E+000	-6.22281E-004	-1.22733E-001	4.14022E-002	3.43650E+001	11	...........	6.90439E-002	-5.18750E-003	5.96739E-001	5.55701E-001	-2.78865E-002	-3.88729E-002	6.92945E-001	-4.36939E-002	-8.59959E-004	6.46116E-005	-7.43254E-003	-6.92140E-003	3.47334E-004	4.84172E-004	-8.63080E-003	5.44218E-004
	118	118	4.99615E-002	-1.22745E-002	0.00000E+000	-6.13255E-004	-1.20930E-001	4.14042E-002	3.43834E+001	11	...........	6.90537E-002	-5.21514E-003	5.96652E-001	5.55650E-001	-2.78839E-002	-3.88431E-002	6.92949E-001	-4.37425E-002	-8.47603E-004	6.40134E-005	-7.32363E-003	-6.82035E-003	3.42262E-004	4.76780E-004	-8.50563E-003	5.36919E-004
	119	119	4.99620E-002	-1.20828E-002	0.00000E+000	-6.03680E-004	-1.19027E-001	4.14107E-002	3.44067E+001	11	...........	6.90725E-002	-5.35667E-003	5.96702E-001	5.55484E-001	-2.79096E-002	-3.88457E-002	6.93005E-001	-4.38819E-002	-8.34588E-004	6.47235E-005	-7.20983E-003	-6.71180E-003	3.37226E-004	4.69364E-004	-8.37343E-003	5.30216E-004
	120	120	4.99623E-002	-1.19410E-002	0.00000E+000	-5.96601E-004	-1.17613E-001	4.14184E-002	3.44147E+001	11	...........	6.90882E-002	-5.34847E-003	5.96734E-001	5.55397E-001	-2.79075E-002	-3.88633E-002	6.92957E-001	-4.37943E-002	-8.24983E-004	6.38662E-005	-7.12560E-003	-6.63200E-003	3.33244E-004	4.64068E-004	-8.27461E-003	5.22948E-004
	121	121	4.99620E-002	-1.18352E-002	0.00000E+000	-5.91310E-004	-1.16560E-001	4.14315E-002	3.44471E+001	11	...........	6.91115E-002	-5.26181E-003	5.96714E-001	5.55402E-001	-2.79094E-002	-3.88504E-002	6.92947E-001	-4.38964E-002	-8.17949E-004	6.22745E-005	-7.06223E-003	-6.57330E-003	3.30314E-004	4.59802E-004	-8.20117E-003	5.19522E-004
	122	122	4.99615E-002	-1.16581E-002	0.00000E+000	-5.82456E-004	-1.14796E-001	4.14360E-002	3.44683E+001	11	...........	6.91240E-002	-5.32681E-003	5.96618E-001	5.55466E-001	-2.79050E-002	-3.88414E-002	6.92956E-001	-4.39926E-002	-8.05854E-004	6.21004E-005	-6.95543E-003	-6.47567E-003	3.25319E-004	4.52817E-004	-8.07855E-003	5.12870E-004
	123	123	4.99613E-002	-1.14691E-002	0.00000E+000	-5.73011E-004	-1.12932E-001	4.14338E-002	3.44889E+001	11	...........	6.91237E-002	-5.34875E-003	5.96538E-001	5.55476E-001	-2.79043E-002	-3.88512E-002	6.93051E-001	-4.39922E-002	-7.92787E-004	6.13454E-005	-6.84175E-003	-6.37081E-003	3.20037E-004	4.45589E-004	-7.94867E-003	5.04551E-004
	124	124	4.99624E-002	-1.13061E-002	0.00000E+000	-5.64879E-004	-1.11306E-001	4.14470E-002	3.44699E+001	11	...........	6.91454E-002	-5.40417E-003	5.96485E-001	5.55602E-001	-2.79140E-002	-3.88562E-002	6.93058E-001	-4.39862E-002	-7.81763E-004	6.10999E-005	-6.74390E-003	-6.28168E-003	3.15598E-004	4.39312E-004	-7.83577E-003	4.97312E-004
	125	125	4.99619E-002	-1.11745E-002	0.00000E+000	-5.58302E-004	-1.09997E-001	4.14672E-002	3.44662E+001	11	...........	6.91749E-002	-5.36083E-003	5.96607E-001	5.55851E-001	-2.79021E-002	-3.88819E-002	6.92942E-001	-4.41206E-002	-7.72998E-004	5.99049E-005	-6.66681E-003	-6.21138E-003	3.11793E-004	4.34488E-004	-7.74331E-003	4.93027E-004
	126	126	4.99620E-002	-1.10334E-002	0.00000E+000	-5.51249E-004	-1.08587E-001	4.14729E-002	3.45059E+001	11	...........	6.91718E-002	-5.45000E-003	5.96752E-001	5.55852E-001	-2.78906E-002	-3.88875E-002	6.92960E-001	-4.41768E-002	-7.63198E-004	6.01319E-005	-6.58419E-003	-6.13292E-003	3.07727E-004	4.29060E-004	-7.64568E-003	4.87419E-004
	127	127	4.99619E-002	-1.08768E-002	0.00000E+000	-5.43425E-004	-1.07033E-001	4.14911E-002	3.45067E+001	11	...........	6.92003E-002	-5.39000E-003	5.96799E-001	5.55825E-001	-2.78925E-002	-3.89008E-002	6.92977E-001	-4.40789E-002	-7.52676E-004	5.86258E-005	-6.49125E-003	-6.04559E-003	3.03381E-004	4.23116E-004	-7.53735E-003	4.79436E-004
	128	128	4.99615E-002	-1.07116E-002	0.00000E+000	-5.35167E-004	-1.05389E-001	4.14915E-002	3.44833E+001	11	...........	6.92072E-002	-5.27444E-003	5.96746E-001	5.55856E-001	-2.78858E-002	-3.89118E-002	6.92907E-001	-4.39878E-002	-7.41318E-004	5.64976E-005	-6.39209E-003	-5.95409E-003	2.98701E-004	4.16807E-004	-7.42213E-003	4.71178E-004
	129	129	4.99626E-002	-1.05738E-002	0.00000E+000	-5.28296E-004	-1.04015E-001	4.14916E-002	3.44539E+001	11	...........	6.92276E-002	-5.44583E-003	5.96725E-001	5.55911E-001	-2.78676E-002	-3.89237E-002	6.92874E-001	-4.39087E-002	-7.32000E-004	5.75832E-005	-6.30966E-003	-5.87810E-003	2.94667E-004	4.11573E-004	-7.32633E-003	4.64283E-004
	130	130	4.99625E-002	-1.04777E-002	0.00000E+000	-5.23490E-004	-1.03060E-001	4.15166E-002	3.44788E+001	11	...........	6.92579E-002	-5.36431E-003	5.96903E-001	5.56033E-001	-2.78746E-002	-3.89393E-002	6.92947E-001	-4.39785E-002	-7.25661E-004	5.62054E-005	-6.25415E-003	-5.82593E-003	2.92061E-004	4.07993E-004	-7.26046E-003	4.60792E-004
	131	131	4.99620E-002	-1.03454E-002	0.00000E+000	-5.16876E-004	-1.01787E-001	4.15146E-002	3.44882E+001	11	...........	6.92624E-002	-5.30917E-003	5.96882E-001	5.56118E-001	-2.78919E-002	-3.89386E-002	6.92862E-001	-4.39424E-002	-7.16545E-004	5.49253E-005	-6.17497E-003	-5.75325E-003	2.88553E-004	4.02834E-004	-7.16792E-003	4.54600E-004
	132	132	4.99623E-002	-1.02329E-002	0.00000E+000	-5.11261E-004	-1.00670E-001	4.15386E-002	3.44799E+001	11	...........	6.92842E-002	-5.20986E-003	5.96767E-001	5.56041E-001	-2.78708E-002	-3.89551E-002	6.92944E-001	-4.38789E-002	-7.08981E-004	5.33122E-005	-6.10668E-003	-5.68993E-003	2.85201E-004	3.98626E-004	-7.09086E-003	4.49010E-004
	133	133	4.99627E-002	-1.01184E-002	0.00000E+000	-5.05544E-004	-9.95233E-002	4.15414E-002	3.44956E+001	11	...........	6.93061E-002	-5.23944E-003	5.96768E-001	5.55904E-001	-2.78565E-002	-3.89511E-002	6.92901E-001	-4.38531E-002	-7.01270E-004	5.30150E-005	-6.03836E-003	-5.62488E-003	2.81865E-004	3.94125E-004	-7.01108E-003	4.43725E-004
	134	134	4.99620E-002	-1.00003E-002	0.00000E+000	-4.99636E-004	-9.83487E-002	4.15496E-002	3.45064E+001	11	...........	6.93179E-002	-5.13611E-003	5.96743E-001	5.55885E-001	-2.78631E-002	-3.89150E-002	6.92890E-001	-4.38594E-002	-6.93202E-004	5.13628E-005	-5.96762E-003	-5.55903E-003	2.78640E-004	3.89163E-004	-6.92913E-003	4.38609E-004
	135	135	4.99623E-002	-9.85016E-003	0.00000E+000	-4.92137E-004	-9.68553E-002	4.15502E-002	3.45165E+001	11	...........	6.93296E-002	-5.21736E-003	5.96774E-001	5.55944E-001	-2.78740E-002	-3.89076E-002	6.92891E-001	-4.38797E-002	-6.82908E-004	5.13919E-005	-5.87832E-003	-5.47614E-003	2.74564E-004	3.83247E-004	-6.82509E-003	4.32222E-004
	136	136	4.99624E-002	-9.73131E-003	0.00000E+000	-4.86199E-004	-9.56680E-002	4.15721E-002	3.45390E+001	11	...........	6.93400E-002	-5.20208E-003	5.96767E-001	5.55906E-001	-2.78606E-002	-3.89204E-002	6.92894E-001	-4.38244E-002	-6.74769E-004	5.06231E-005	-5.80732E-003	-5.40970E-003	2.71120E-004	3.78747E-004	-6.74277E-003	4.26469E-004
	137	137	4.99621E-002	-9.61725E-003	0.00000E+000	-4.80498E-004	-9.45333E-002	4.15730E-002	3.45474E+001	11	...........	6.93618E-002	-5.18403E-003	5.96664E-001	5.55837E-001	-2.78397E-002	-3.89089E-002	6.92799E-001	-4.38892E-002	-6.67070E-004	4.98561E-005	-5.73826E-003	-5.34563E-003	2.67742E-004	3.74196E-004	-6.66282E-003	4.22093E-004
	138	138	4.99621E-002	-9.49269E-003	0.00000E+000	-4.74274E-004	-9.32887E-002	4.15775E-002	3.45482E+001	11	...........	6.93604E-002	-5.15875E-003	5.96824E-001	5.55928E-001	-2.78268E-002	-3.89254E-002	6.92908E-001	-4.39669E-002	-6.58417E-004	4.89704E-005	-5.66546E-003	-5.27725E-003	2.64151E-004	3.69507E-004	-6.57756E-003	4.17364E-004
	139	139	4.99623E-002	-9.35671E-003	0.00000E+000	-4.67483E-004	-9.19360E-002	4.16020E-002	3.45552E+001	11	...........	6.93833E-002	-5.18639E-003	5.96736E-001	5.55960E-001	-2.78287E-002	-3.89156E-002	6.92867E-001	-4.39724E-002	-6.49200E-004	4.85275E-005	-5.58349E-003	-5.20195E-003	2.60386E-004	3.64122E-004	-6.48296E-003	4.11437E-004
	140	140	4.99624E-002	-9.23781E-003	0.00000E+000	-4.61543E-004	-9.07473E-002	4.15986E-002	3.45869E+001	11	...........	6.93889E-002	-5.24125E-003	5.96771E-001	5.56047E-001	-2.78494E-002	-3.89075E-002	6.92979E-001	-4.39960E-002	-6.41001E-004	4.84177E-005	-5.51286E-003	-5.13666E-003	2.57268E-004	3.59420E-004	-6.40161E-003	4.06426E-004
	141	141	4.99625E-002	-9.11791E-003	0.00000E+000	-4.55553E-004	-8.95493E-002	4.16076E-002	3.46148E+001	11	...........	6.94058E-002	-5.26458E-003	5.96745E-001	5.55913E-001	-2.78260E-002	-3.89214E-002	6.92957E-001	-4.39474E-002	-6.32836E-004	4.80020E-005	-5.44107E-003	-5.06877E-003	2.53715E-004	3.54882E-004	-6.31832E-003	4.00708E-004
	142	142	4.99628E-002	-9.03267E-003	0.00000E+000	-4.51297E-004	-8.87187E-002	4.16118E-002	3.46304E+001	11	...........	6.94181E-002	-5.26181E-003	5.96669E-001	5.55925E-001	-2.78296E-002	-3.89326E-002	6.92961E-001	-4.39258E-002	-6.27030E-004	4.75282E-005	-5.38952E-003	-5.02149E-003	2.51375E-004	3.51666E-004	-6.25929E-003	3.96768E-004
	143	143	4.99625E-002	-8.92438E-003	0.00000E+000	-4.45884E-004	-8.76500E-002	4.16217E-002	3.46493E+001	11	...........	6.94350E-002	-5.27458E-003	5.96533E-001	5.55862E-001	-2.77993E-002	-3.89221E-002	6.92995E-001	-4.40299E-002	-6.19664E-004	4.70724E-005	-5.32369E-003	-4.96072E-003	2.48091E-004	3.47355E-004	-6.18455E-003	3.92939E-004
	144	144	4.99616E-002	-8.78831E-003	0.00000E+000	-4.39078E-004	-8.62927E-002	4.16327E-002	3.46720E+001	11	...........	6.94335E-002	-5.27431E-003	5.96549E-001	5.55617E-001	-2.77925E-002	-3.89056E-002	6.93002E-001	-4.39506E-002	-6.10203E-004	4.63522E-005	-5.24266E-003	-4.88294E-003	2.44249E-004	3.41914E-004	-6.09031E-003	3.86251E-004
	145	145	4.99629E-002	-8.67822E-003	0.00000E+000	-4.33589E-004	-8.52000E-002	4.16360E-002	3.46746E+001	11	...........	6.94551E-002	-5.19764E-003	5.96679E-001	5.55573E-001	-2.77651E-002	-3.89215E-002	6.93113E-001	-4.39725E-002	-6.02747E-004	4.51062E-005	-5.17811E-003	-4.82138E-003	2.40952E-004	3.37770E-004	-6.01498E-003	3.81603E-004
	146	146	4.99625E-002	-8.59513E-003	0.00000E+000	-4.29434E-004	-8.43687E-002	4.16406E-002	3.46737E+001	11	...........	6.94655E-002	-5.29056E-003	5.96677E-001	5.55551E-001	-2.77769E-002	-3.88993E-002	6.93059E-001	-4.40171E-002	-5.97065E-004	4.54730E-005	-5.12852E-003	-4.77504E-003	2.38746E-004	3.34345E-004	-5.95693E-003	3.78333E-004
	147	147	4.99621E-002	-8.47910E-003	0.00000E+000	-4.23634E-004	-8.32140E-002	4.16571E-002	3.46624E+001	11	...........	6.94687E-002	-5.25792E-003	5.96693E-001	5.55534E-001	-2.78022E-002	-3.88979E-002	6.93159E-001	-4.39699E-002	-5.89032E-004	4.45824E-005	-5.05942E-003	-4.71043E-003	2.35738E-004	3.29819E-004	-5.87736E-003	3.72825E-004
	148	148	4.99627E-002	-8.36424E-003	0.00000E+000	-4.17900E-004	-8.20747E-002	4.16562E-002	3.46648E+001	11	...........	6.94822E-002	-5.21708E-003	5.96584E-001	5.55526E-001	-2.78092E-002	-3.89051E-002	6.93125E-001	-4.38849E-002	-5.81166E-004	4.36369E-005	-4.98997E-003	-4.64655E-003	2.32603E-004	3.25412E-004	-5.79747E-003	3.67064E-004
	149	149	4.99628E-002	-8.27546E-003	0.00000E+000	-4.13465E-004	-8.11927E-002	4.16592E-002	3.46696E+001	11	...........	6.94958E-002	-5.22972E-003	5.96628E-001	5.55482E-001	-2.78043E-002	-3.89012E-002	6.93042E-001	-4.39012E-002	-5.75110E-004	4.32784E-005	-4.93737E-003	-4.59687E-003	2.30094E-004	3.21926E-004	-5.73525E-003	3.63303E-004
	150	150	4.99621E-002	-8.16659E-003	0.00000E+000	-4.08020E-004	-8.01073E-002	4.16689E-002	3.46987E+001	11	...........	6.94968E-002	-5.26972E-003	5.96609E-001	5.55346E-001	-2.78193E-002	-3.89012E-002	6.93067E-001	-4.39533E-002	-5.67552E-004	4.30357E-005	-4.87226E-003	-4.53528E-003	2.27189E-004	3.17690E-004	-5.66000E-003	3.58949E-004
	151	151	4.99629E-002	-8.07209E-003	0.00000E+000	-4.03305E-004	-7.91607E-002	4.16688E-002	3.47275E+001	11	...........	6.95137E-002	-5.27361E-003	5.96358E-001	5.55371E-001	-2.78426E-002	-3.88928E-002	6.93111E-001	-4.39690E-002	-5.61121E-004	4.25691E-005	-4.81385E-003	-4.48300E-003	2.24748E-004	3.13946E-004	-5.59485E-003	3.54922E-004
	152	152	4.99625E-002	-7.97305E-003	0.00000E+000	-3.98353E-004	-7.81733E-002	4.16796E-002	3.47260E+001	11	...........	6.95304E-002	-5.20681E-003	5.96243E-001	5.55350E-001	-2.78701E-002	-3.88999E-002	6.92964E-001	-4.39115E-002	-5.54369E-004	4.15141E-005	-4.75387E-003	-4.42783E-003	2.22210E-004	3.10150E-004	-5.52504E-003	3.50109E-004
	153	153	4.99620E-002	-7.86412E-003	0.00000E+000	-3.92907E-004	-7.70987E-002	4.16849E-002	3.47137E+001	11	...........	6.95333E-002	-5.15361E-003	5.96204E-001	5.55446E-001	-2.78562E-002	-3.88890E-002	6.92876E-001	-4.39276E-002	-5.46819E-004	4.05286E-005	-4.68862E-003	-4.36809E-003	2.19065E-004	3.05828E-004	-5.44886E-003	3.45452E-004
	154	154	4.99629E-002	-7.74815E-003	0.00000E+000	-3.87120E-004	-7.59673E-002	4.16977E-002	3.47489E+001	11	...........	6.95482E-002	-5.18472E-003	5.96196E-001	5.55463E-001	-2.78751E-002	-3.88692E-002	6.92812E-001	-4.39612E-002	-5.38870E-004	4.01720E-005	-4.61942E-003	-4.30381E-003	2.15981E-004	3.01164E-004	-5.36801E-003	3.40618E-004
	155	155	4.99627E-002	-7.66327E-003	0.00000E+000	-3.82878E-004	-7.51120E-002	4.17093E-002	3.47730E+001	11	...........	6.95546E-002	-5.14361E-003	5.96154E-001	5.55835E-001	-2.78683E-002	-3.88603E-002	6.92937E-001	-4.40278E-002	-5.33016E-004	3.94169E-005	-4.56849E-003	-4.25952E-003	2.13563E-004	2.97797E-004	-5.31016E-003	3.37397E-004
	156	156	4.99625E-002	-7.57592E-003	0.00000E+000	-3.78512E-004	-7.42427E-002	4.17103E-002	3.48015E+001	11	...........	6.95483E-002	-5.27125E-003	5.96146E-001	5.55848E-001	-2.78667E-002	-3.88624E-002	6.92918E-001	-4.39983E-002	-5.26893E-004	3.99346E-005	-4.51636E-003	-4.21106E-003	2.11116E-004	2.94418E-004	-5.24950E-003	3.33328E-004
	157	157	4.99629E-002	-7.48935E-003	0.00000E+000	-3.74190E-004	-7.33753E-002	4.17004E-002	3.48022E+001	11	...........	6.95721E-002	-5.29389E-003	5.96148E-001	5.55928E-001	-2.78749E-002	-3.89046E-002	6.93029E-001	-4.39312E-002	-5.21049E-004	3.96478E-005	-4.46476E-003	-4.16353E-003	2.08764E-004	2.91370E-004	-5.19034E-003	3.29016E-004
	158	158	4.99624E-002	-7.39329E-003	0.00000E+000	-3.69386E-004	-7.24207E-002	4.17166E-002	3.48038E+001	11	...........	6.95976E-002	-5.17111E-003	5.96238E-001	5.56144E-001	-2.78874E-002	-3.89011E-002	6.92920E-001	-4.39133E-002	-5.14555E-004	3.82315E-005	-4.40816E-003	-4.11173E-003	2.06179E-004	2.87607E-004	-5.12296E-003	3.24664E-004
	159	159	4.99627E-002	-7.30339E-003	0.00000E+000	-3.64898E-004	-7.15260E-002	4.17297E-002	3.48323E+001	11	...........	6.96064E-002	-5.18972E-003	5.96208E-001	5.56185E-001	-2.78887E-002	-3.88778E-002	6.92939E-001	-4.40312E-002	-5.08363E-004	3.79026E-005	-4.35434E-003	-4.06204E-003	2.03683E-004	2.83940E-004	-5.06081E-003	3.21578E-004
	160	160	4.99628E-002	-7.22124E-003	0.00000E+000	-3.60793E-004	-7.07020E-002	4.17292E-002	3.48244E+001	11	...........	6.96076E-002	-5.30250E-003	5.96150E-001	5.56396E-001	-2.78936E-002	-3.88967E-002	6.92957E-001	-4.40051E-002	-5.02653E-004	3.82906E-005	-4.30494E-003	-4.01787E-003	2.01426E-004	2.80882E-004	-5.00401E-003	3.17772E-004
	161	161	4.99627E-002	-7.13482E-003	0.00000E+000	-3.56475E-004	-6.98400E-002	4.17392E-002	3.48233E+001	11	...........	6.96289E-002	-5.28778E-003	5.96163E-001	5.56364E-001	-2.78876E-002	-3.88847E-002	6.92975E-001	-4.39928E-002	-4.96790E-004	3.77274E-005	-4.25352E-003	-3.96956E-003	1.98973E-004	2.77436E-004	-4.94426E-003	3.13881E-004
	162	162	4.99626E-002	-7.06154E-003	0.00000E+000	-3.52813E-004	-6.91107E-002	4.17414E-002	3.48331E+001	11	...........	6.96292E-002	-5.20125E-003	5.96055E-001	5.56399E-001	-2.78979E-002	-3.88818E-002	6.93020E-001	-4.40121E-002	-4.91689E-004	3.67288E-005	-4.20907E-003	-3.92903E-003	1.97002E-004	2.74565E-004	-4.89379E-003	3.10793E-004
	163	163	4.99627E-002	-6.96222E-003	0.00000E+000	-3.47851E-004	-6.81307E-002	4.17437E-002	3.48175E+001	11	...........	6.96456E-002	-5.21153E-003	5.96158E-001	5.56244E-001	-2.78774E-002	-3.88815E-002	6.93141E-001	-4.40085E-002	-4.84888E-004	3.62838E-005	-4.15059E-003	-3.87270E-003	1.94088E-004	2.70702E-004	-4.82580E-003	3.06397E-004
	164	164	4.99628E-002	-6.86081E-003	0.00000E+000	-3.42786E-004	-6.71147E-002	4.17541E-002	3.48155E+001	11	...........	6.96629E-002	-5.27653E-003	5.96049E-001	5.56277E-001	-2.78847E-002	-3.88962E-002	6.93209E-001	-4.40511E-002	-4.77944E-004	3.62013E-005	-4.08938E-003	-3.81651E-003	1.91312E-004	2.66860E-004	-4.75598E-003	3.02226E-004
	165	165	4.99629E-002	-6.78462E-003	0.00000E+000	-3.38979E-004	-6.63567E-002	4.17588E-002	3.48296E+001	11	...........	6.96542E-002	-5.15278E-003	5.96009E-001	5.56352E-001	-2.78643E-002	-3.88996E-002	6.93264E-001	-4.39674E-002	-4.72577E-004	3.49596E-005	-4.04369E-003	-3.77464E-003	1.89049E-004	2.63919E-004	-4.70353E-003	2.98302E-004
	166	166	4.99627E-002	-6.71354E-003	0.00000E+000	-3.35426E-004	-6.56453E-002	4.17702E-002	3.48122E+001	11	...........	6.96715E-002	-5.14528E-003	5.96047E-001	5.56271E-001	-2.78707E-002	-3.89062E-002	6.93299E-001	-4.40343E-002	-4.67742E-004	3.45430E-005	-4.00158E-003	-3.73454E-003	1.87111E-004	2.61199E-004	-4.65449E-003	2.95626E-004
	167	167	4.99628E-002	-6.63367E-003	0.00000E+000	-3.31437E-004	-6.48473E-002	4.17768E-002	3.48372E+001	11	...........	6.96758E-002	-5.14194E-003	5.96023E-001	5.56019E-001	-2.78581E-002	-3.88886E-002	6.93282E-001	-4.40307E-002	-4.62206E-004	3.41099E-005	-3.95381E-003	-3.68844E-003	1.84801E-004	2.57974E-004	-4.59900E-003	2.92085E-004
	168	168	4.99625E-002	-6.55591E-003	0.00000E+000	-3.27550E-004	-6.40687E-002	4.17777E-002	3.48602E+001	11	...........	6.96768E-002	-5.12014E-003	5.95746E-001	5.55970E-001	-2.78524E-002	-3.89112E-002	6.93327E-001	-4.40774E-002	-4.56795E-004	3.35672E-005	-3.90565E-003	-3.64489E-003	1.82597E-004	2.55098E-004	-4.54539E-003	2.88967E-004
	169	169	4.99631E-002	-6.47389E-003	0.00000E+000	-3.23455E-004	-6.32693E-002	4.17813E-002	3.48870E+001	11	...........	6.96971E-002	-5.24111E-003	5.95762E-001	5.56043E-001	-2.78478E-002	-3.88843E-002	6.93436E-001	-4.40154E-002	-4.51211E-004	3.39304E-005	-3.85689E-003	-3.59976E-003	1.80283E-004	2.51733E-004	-4.48922E-003	2.84951E-004
	170	170	4.99631E-002	-6.41176E-003	0.00000E+000	-3.20351E-004	-6.26653E-002	4.17880E-002	3.48854E+001	11	...........	6.97240E-002	-5.23778E-003	5.95851E-001	5.55881E-001	-2.78585E-002	-3.88876E-002	6.93404E-001	-4.38531E-002	-4.47054E-004	3.35834E-005	-3.82045E-003	-3.56418E-003	1.78622E-004	2.49338E-004	-4.44594E-003	2.81175E-004
	171	171	4.99627E-002	-6.33174E-003	0.00000E+000	-3.16351E-004	-6.18673E-002	4.17964E-002	3.48904E+001	11	...........	6.97256E-002	-5.22278E-003	5.95641E-001	5.55739E-001	-2.78696E-002	-3.88731E-002	6.93377E-001	-4.39707E-002	-4.41484E-004	3.30693E-005	-3.77145E-003	-3.51879E-003	1.76463E-004	2.46134E-004	-4.39028E-003	2.78411E-004
	172	172	4.99627E-002	-6.24948E-003	0.00000E+000	-3.12241E-004	-6.10447E-002	4.18022E-002	3.49044E+001	11	...........	6.97269E-002	-5.28806E-003	5.95647E-001	5.55704E-001	-2.78776E-002	-3.88783E-002	6.93256E-001	-4.41142E-002	-4.35757E-004	3.30476E-005	-3.72248E-003	-3.47286E-003	1.74221E-004	2.42969E-004	-4.33249E-003	2.75690E-004
	173	173	4.99630E-002	-6.17406E-003	0.00000E+000	-3.08475E-004	-6.02960E-002	4.18091E-002	3.49261E+001	11	...........	6.97392E-002	-5.24319E-003	5.95628E-001	5.55552E-001	-2.78683E-002	-3.89053E-002	6.93371E-001	-4.41051E-002	-4.30574E-004	3.23718E-005	-3.67744E-003	-3.43001E-003	1.72061E-004	2.40204E-004	-4.28092E-003	2.72308E-004
	174	174	4.99630E-002	-6.11111E-003	0.00000E+000	-3.05329E-004	-5.96693E-002	4.18119E-002	3.49290E+001	11	...........	6.97414E-002	-5.31083E-003	5.95633E-001	5.55557E-001	-2.78637E-002	-3.88892E-002	6.93417E-001	-4.40189E-002	-4.26197E-004	3.24551E-005	-3.63998E-003	-3.39507E-003	1.70278E-004	2.37656E-004	-4.23755E-003	2.69004E-004
	175	175	4.99628E-002	-6.03820E-003	0.00000E+000	-3.01686E-004	-5.89433E-002	4.18182E-002	3.49303E+001	11	...........	6.97539E-002	-5.27347E-003	5.95579E-001	5.55584E-001	-2.78760E-002	-3.89000E-002	6.93585E-001	-4.40958E-002	-4.21188E-004	3.18423E-005	-3.59623E-003	-3.35473E-003	1.68321E-004	2.34886E-004	-4.18800E-003	2.66260E-004
	176	176	4.99631E-002	-5.96964E-003	0.00000E+000	-2.98262E-004	-5.82587E-002	4.18253E-002	3.49172E+001	11	...........	6.97621E-002	-5.13944E-003	5.95363E-001	5.55791E-001	-2.78636E-002	-3.88644E-002	6.93507E-001	-4.41254E-002	-4.16455E-004	3.06807E-005	-3.55410E-003	-3.31788E-003	1.66336E-004	2.32007E-004	-4.13999E-003	2.63413E-004
	177	177	4.99626E-002	-5.90393E-003	0.00000E+000	-2.94976E-004	-5.76033E-002	4.18310E-002	3.49018E+001	11	...........	6.97743E-002	-5.16611E-003	5.95289E-001	5.55944E-001	-2.78818E-002	-3.88733E-002	6.93479E-001	-4.40279E-002	-4.11943E-004	3.05004E-005	-3.51455E-003	-3.28226E-003	1.64612E-004	2.29506E-004	-4.09425E-003	2.59938E-004
	178	178	4.99630E-002	-5.82850E-003	0.00000E+000	-2.91209E-004	-5.68460E-002	4.18385E-002	3.48898E+001	11	...........	6.97822E-002	-5.09639E-003	5.95327E-001	5.56082E-001	-2.78999E-002	-3.88932E-002	6.93389E-001	-4.40760E-002	-4.06726E-004	2.97043E-005	-3.46987E-003	-3.24113E-003	1.62614E-004	2.26689E-004	-4.04142E-003	2.56897E-004
	179	179	4.99630E-002	-5.76034E-003	0.00000E+000	-2.87804E-004	-5.61800E-002	4.18397E-002	3.48991E+001	11	...........	6.98022E-002	-5.01861E-003	5.95332E-001	5.56143E-001	-2.78840E-002	-3.88768E-002	6.93387E-001	-4.40801E-002	-4.02085E-004	2.89089E-005	-3.42932E-003	-3.20357E-003	1.60622E-004	2.23944E-004	-3.99415E-003	2.53917E-004
	180	180	4.99630E-002	-5.70938E-003	0.00000E+000	-2.85258E-004	-5.56680E-002	4.18409E-002	3.48829E+001	11	...........	6.98033E-002	-5.10569E-003	5.95206E-001	5.56039E-001	-2.78969E-002	-3.88922E-002	6.93497E-001	-4.40374E-002	-3.98533E-004	2.91503E-005	-3.39825E-003	-3.17463E-003	1.59274E-004	2.22050E-004	-3.95943E-003	2.51426E-004
	181	181	4.99630E-002	-5.64314E-003	0.00000E+000	-2.81949E-004	-5.50067E-002	4.18478E-002	3.48899E+001	11	...........	6.98210E-002	-5.12792E-003	5.95136E-001	5.55936E-001	-2.79089E-002	-3.88901E-002	6.93558E-001	-4.38694E-002	-3.94010E-004	2.89376E-005	-3.35844E-003	-3.13723E-003	1.57494E-004	2.19463E-004	-3.91385E-003	2.47562E-004
	182	182	4.99632E-002	-5.58504E-003	0.00000E+000	-2.79047E-004	-5.44273E-002	4.18503E-002	3.49137E+001	11	...........	6.98175E-002	-5.07014E-003	5.95097E-001	5.55979E-001	-2.78936E-002	-3.88901E-002	6.93502E-001	-4.38042E-002	-3.89934E-004	2.83170E-005	-3.32364E-003	-3.10517E-003	1.55787E-004	2.17203E-004	-3.87324E-003	2.44648E-004
	183	183	4.99629E-002	-5.52378E-003	0.00000E+000	-2.75984E-004	-5.38147E-002	4.18570E-002	3.49178E+001	11	...........	6.98254E-002	-5.06042E-003	5.94998E-001	5.55939E-001	-2.79083E-002	-3.88751E-002	6.93547E-001	-4.38868E-002	-3.85700E-004	2.79526E-005	-3.28664E-003	-3.07088E-003	1.54159E-004	2.14738E-004	-3.83100E-003	2.42421E-004
	184	184	4.99629E-002	-5.46682E-003	0.00000E+000	-2.73138E-004	-5.32467E-002	4.18568E-002	3.49570E+001	11	...........	6.98310E-002	-5.12861E-003	5.95002E-001	5.55781E-001	-2.79186E-002	-3.88712E-002	6.93536E-001	-4.40260E-002	-3.81753E-004	2.80372E-005	-3.25277E-003	-3.03835E-003	1.52626E-004	2.12502E-004	-3.79144E-003	2.40682E-004
	185	185	4.99630E-002	-5.39729E-003	0.00000E+000	-2.69664E-004	-5.25593E-002	4.18641E-002	3.49591E+001	11	...........	6.98437E-002	-5.29889E-003	5.94957E-001	5.55804E-001	-2.79136E-002	-3.89074E-002	6.93556E-001	-4.40579E-002	-3.76967E-004	2.85996E-005	-3.21115E-003	-2.99983E-003	1.50658E-004	2.09994E-004	-3.74332E-003	2.37793E-004
	186	186	4.99631E-002	-5.34603E-003	0.00000E+000	-2.67105E-004	-5.20493E-002	4.18722E-002	3.49539E+001	11	...........	6.98447E-002	-5.25000E-003	5.94986E-001	5.55784E-001	-2.79124E-002	-3.88906E-002	6.93506E-001	-4.40407E-002	-3.73392E-004	2.80667E-005	-3.18082E-003	-2.97124E-003	1.49220E-004	2.07910E-004	-3.70751E-003	2.35443E-004
	187	187	4.99631E-002	-5.30099E-003	0.00000E+000	-2.64854E-004	-5.16007E-002	4.15755E-002	3.49680E+001	11	...........	6.98536E-002	-5.14278E-003	5.94854E-001	5.55908E-001	-2.79060E-002	-3.88625E-002	6.93484E-001	-4.40958E-002	-3.70294E-004	2.72618E-005	-3.15332E-003	-2.94687E-003	1.47929E-004	2.06010E-004	-3.67615E-003	2.33752E-004
	188	188	4.99630E-002	-5.23120E-003	0.00000E+000	-2.61366E-004	-5.09227E-002	4.18799E-002	3.49753E+001	11	...........	6.98819E-002	-5.15139E-003	5.94882E-001	5.55873E-001	-2.79242E-002	-3.88582E-002	6.93342E-001	-4.39949E-002	-3.65566E-004	2.69479E-005	-3.11194E-003	-2.90788E-003	1.46077E-004	2.03275E-004	-3.62701E-003	2.30146E-004
	189	189	4.99628E-002	-5.17071E-003	0.00000E+000	-2.58343E-004	-5.03220E-002	4.18857E-002	3.49890E+001	11	...........	6.98858E-002	-5.15014E-003	5.94815E-001	5.55709E-001	-2.79369E-002	-3.88614E-002	6.93376E-001	-4.39971E-002	-3.61359E-004	2.66299E-005	-3.07561E-003	-2.87341E-003	1.44454E-004	2.00941E-004	-3.58524E-003	2.27496E-004
	190	190	4.99633E-002	-5.11590E-003	0.00000E+000	-2.55607E-004	-4.97807E-002	4.18880E-002	3.50013E+001	11	...........	6.98781E-002	-5.13069E-003	5.94699E-001	5.55776E-001	-2.79432E-002	-3.88525E-002	6.93447E-001	-4.40081E-002	-3.57489E-004	2.62481E-005	-3.04242E-003	-2.84330E-003	1.42955E-004	1.98766E-004	-3.54761E-003	2.25141E-004
	191	191	4.99630E-002	-5.06364E-003	0.00000E+000	-2.52995E-004	-4.92580E-002	4.18941E-002	3.50208E+001	11	...........	6.98881E-002	-5.02667E-003	5.94634E-001	5.55848E-001	-2.79403E-002	-3.88792E-002	6.93362E-001	-4.40088E-002	-3.53888E-004	2.54532E-005	-3.01101E-003	-2.81461E-003	1.41479E-004	1.96870E-004	-3.51094E-003	2.22844E-004
	192	191.192	4.99636E-002	-5.03377E-003	0.00000E+000	-2.51505E-004	-4.89548E-002	4.19017E-002	3.50280E+001	11	...........	6.99022E-002	-5.07246E-003	5.94783E-001	5.55936E-001	-2.80036E-002	-3.88927E-002	6.93209E-001	-4.40464E-002	-3.51871E-004	2.55336E-005	-2.99400E-003	-2.79845E-003	1.40964E-004	1.95777E-004	-3.48945E-003	2.21719E-004
STARTTIMEOFFSET	QUANT	559697.8	Start Time Offset (s)
