EXPLAIN
TAG	PWR800_DISCHARGE
TITLE	LABEL	PWR Discharge	Test Identifier
DATE	LABEL	10/16/2022	Date
TIME	LABEL	8:30:07	Time
NOTES	NOTES	1	Notes...
	
PSTAT	PSTAT	REF3000-21114	Potentiostat
CAPACITY	QUANT	5.30000E-002	Capacity (A-hr)
CELLTYPE	SELECTOR	1	Cell Type
WORKINGCONNECTION	SELECTOR	0	Working Connection
MAXDISCHARGETIME	VARIABLEANDUNITS	7.20000E+003	s	2.00000E+000	hour(s)	Max Discharge Time
DISCHARGEMODE	MULTIPARAM	0	1.00000E-001	Discharge Mode	Constant Current	Amp(s)
VOLTAGEFINISH	TWOPARAM	T	5.00000E-003	7.20000E+003	Voltage Finish	I (A) <	Max Time(s)
SAMPLETIME	QUANT	1.00000E+000	Sample Period (s)
DISCHARGESTOPAT1	MULTIPARAM	1	5.00000E-002	Stop At 1	|Voltage| < Limit	V
DISCHARGESTOPAT2	MULTIPARAM	0	0.00000E+000	Stop At 2	None	N/A
AESELECTOR	AESELECTOR	0x1	T	Set Limits	AE Channels
AESBHCSELECTOR	TOGGLE	F	Save Both Half Cells
IRCOMP	TOGGLE	F	IR Measure
EOC	QUANT	0.5373215	Open Circuit (V)
SEQUENCER	TOGGLE	TRUE	Run as Sequence
PSTATMODEL	IQUANT	5	Pstat Model
PSTATSECTION	LABEL	REF3000-21114	Pstat Section
PSTATSERIALNO	LABEL	21114	Pstat Serial Number
CTRLMODE	IQUANT	0	Control Mode
ELECTROMETER	IQUANT	0	RE=0 or CS=1
IESTAB	IQUANT	0	I/E Stability
CASPEED	IQUANT	4	Control Amp Speed
CONVENTION	IQUANT	1	Current Convention
ICHRANGE	IQUANT	2	Ich Range
ICHRANGEMODE	TOGGLE	T	Ich Auto Range
ICHOFFSETENABLE	TOGGLE	F	Ich Offset Enable
ICHOFFSET	QUANT	0	Ich Offset (V)
ICHFILTER	IQUANT	1	Ich Filter
VCHRANGE	IQUANT	3	Vch Range
VCHRANGEMODE	TOGGLE	T	Vch Auto Range
VCHOFFSETENABLE	TOGGLE	F	Vch Offset Enable
VCHOFFSET	QUANT	0	Vch Offset (V)
VCHFILTER	IQUANT	1	Vch Filter
ACHRANGE	IQUANT	2	Ach Range
ACHOFFSETENABLE	TOGGLE	F	Ach Offset Enable
ACHOFFSET	QUANT	0	Ach Offset (V)
ACHFILTER	IQUANT	1	Ach Filter
IERANGELOWERLIMIT	IQUANT	9	I/E Range Lower Limit
IERANGEMODE	TOGGLE	F	I/E AutoRange
IERANGE	IQUANT	9	I/E Range
POSFEEDENABLE	TOGGLE	F	Positive Feedback IR Comp
POSFEEDRESISTANCE	QUANT	0	Positive Feedback Resistance (ohm)
ACHSELECT	IQUANT	1	Ach Select
SENSECABLEID	IQUANT	13	Sense Cable ID
PWRCABLEID	IQUANT	13	Power Cable ID
DCCALDATE	LABEL		DC Calibration Date
ACCALDATE	LABEL		AC Calibration Date
THERMOSELECT	IQUANT	1	Thermo Select
FRAMEWORKVERSION	LABEL	7.8.6	Framework Version
INSTRUMENTVERSION	LABEL	4.50	Instrument Version
COMPLIANCEVOLTAGE	IQUANT	0	Compliance Voltage
CURVE	TABLE	89
	Pt	T	Vf	Im	Vu	Pwr	Sig	Ach	Temp	IERange	Over	Vf1	Vf2	Vf3	Vf4	Vf5	Vf6	Vf7	Vf8	Pwr1	Pwr2	Pwr3	Pwr4	Pwr5	Pwr6	Pwr7	Pwr8
	#	s	V	A	V	W	V	V	deg C	#	bits	V	V	V	V	V	V	V	V	W	W	W	W	W	W	W	W
	0	1	2.95734E-001	-1.00087E-001	0.00000E+000	-2.95992E-002	-9.94000E-001	3.55400E-002	2.89522E+001	11	...........	5.90174E-002	-4.07625E-003	5.76149E-001	6.15479E-001	-2.89503E-002	-3.88440E-002	6.65172E-001	-4.31708E-002	-5.90689E-003	4.07981E-004	-5.76652E-002	-6.16016E-002	2.89756E-003	3.88779E-003	-6.65752E-002	4.32085E-003
	1	2	1.99291E-001	-1.00088E-001	0.00000E+000	-1.99467E-002	-9.94000E-001	3.56412E-002	2.84486E+001	11	...........	5.92064E-002	-4.26764E-003	5.76179E-001	6.15472E-001	-2.89506E-002	-3.88585E-002	6.65231E-001	-4.31242E-002	-5.92585E-003	4.27140E-004	-5.76686E-002	-6.16015E-002	2.89761E-003	3.88927E-003	-6.65817E-002	4.31622E-003
	2	3	1.14799E-001	-1.00088E-001	0.00000E+000	-1.14900E-002	-9.94000E-001	3.55459E-002	2.73807E+001	11	...........	5.90503E-002	-4.27306E-003	5.76076E-001	6.15687E-001	-2.89164E-002	-3.88712E-002	6.65173E-001	-4.32087E-002	-5.91021E-003	4.27681E-004	-5.76582E-002	-6.16228E-002	2.89418E-003	3.89054E-003	-6.65758E-002	4.32467E-003
	3	3.335	6.24399E-002	-1.00088E-001	0.00000E+000	-6.24946E-003	-9.94000E-001	3.54679E-002	2.65528E+001	11	...........	5.89266E-002	-4.23590E-003	5.76051E-001	6.15662E-001	-2.89129E-002	-3.88711E-002	6.65214E-001	-4.31493E-002	-5.89782E-003	4.23961E-004	-5.76556E-002	-6.16201E-002	2.89383E-003	3.89051E-003	-6.65797E-002	4.31870E-003
	4	4	4.93298E-002	-8.38019E-002	0.00000E+000	-4.13393E-003	-8.32077E-001	3.57033E-002	2.69635E+001	11	...........	5.93028E-002	-4.25627E-003	5.76038E-001	6.15752E-001	-2.89463E-002	-3.88793E-002	6.65274E-001	-4.32112E-002	-4.96969E-003	3.56683E-004	-4.82731E-002	-5.16012E-002	2.42576E-003	3.25816E-003	-5.57512E-002	3.62118E-003
	5	5	4.96329E-002	-5.87531E-002	0.00000E+000	-2.91609E-003	-5.83043E-001	3.58052E-002	2.78453E+001	11	...........	5.94557E-002	-4.29208E-003	5.76096E-001	6.15812E-001	-2.89665E-002	-3.88918E-002	6.65427E-001	-4.32368E-002	-3.49321E-003	2.52173E-004	-3.38474E-002	-3.61809E-002	1.70187E-003	2.28501E-003	-3.90959E-002	2.54030E-003
	6	6	4.97708E-002	-4.28164E-002	0.00000E+000	-2.13101E-003	-4.24600E-001	3.57818E-002	2.93104E+001	11	...........	5.94212E-002	-4.31667E-003	5.76290E-001	6.15805E-001	-2.89400E-002	-3.88699E-002	6.65359E-001	-4.32633E-002	-2.54421E-003	1.84824E-004	-2.46747E-002	-2.63666E-002	1.23911E-003	1.66427E-003	-2.84883E-002	1.85238E-003
	7	7	4.98270E-002	-3.36554E-002	0.00000E+000	-1.67695E-003	-3.33518E-001	3.58810E-002	3.00574E+001	11	...........	5.95704E-002	-4.22514E-003	5.76460E-001	6.15649E-001	-2.88975E-002	-3.88590E-002	6.65198E-001	-4.32637E-002	-2.00487E-003	1.42199E-004	-1.94010E-002	-2.07199E-002	9.72558E-004	1.30782E-003	-2.23875E-002	1.45606E-003
	8	8	4.98589E-002	-2.77620E-002	0.00000E+000	-1.38418E-003	-2.74939E-001	3.59273E-002	3.03416E+001	11	...........	5.96574E-002	-4.27042E-003	5.76396E-001	6.15497E-001	-2.89303E-002	-3.88374E-002	6.65155E-001	-4.32785E-002	-1.65621E-003	1.18555E-004	-1.60019E-002	-1.70874E-002	8.03162E-004	1.07820E-003	-1.84660E-002	1.20150E-003
	9	9	4.98801E-002	-2.37412E-002	0.00000E+000	-1.18421E-003	-2.34948E-001	3.59305E-002	3.02190E+001	11	...........	5.96490E-002	-4.29333E-003	5.76317E-001	6.15503E-001	-2.89747E-002	-3.88271E-002	6.65155E-001	-4.32036E-002	-1.41614E-003	1.01929E-004	-1.36825E-002	-1.46128E-002	6.87894E-004	9.21801E-004	-1.57916E-002	1.02571E-003
	10	10	4.98972E-002	-2.11013E-002	0.00000E+000	-1.05290E-003	-2.08699E-001	3.59503E-002	3.12059E+001	11	...........	5.96899E-002	-4.33083E-003	5.76437E-001	6.15586E-001	-2.89501E-002	-3.88856E-002	6.65183E-001	-4.31503E-002	-1.25953E-003	9.13862E-005	-1.21636E-002	-1.29897E-002	6.10885E-004	8.20536E-004	-1.40362E-002	9.10527E-004
	11	11	4.99015E-002	-1.92540E-002	0.00000E+000	-9.60805E-004	-1.90336E-001	3.59536E-002	3.11563E+001	11	...........	5.96858E-002	-4.31292E-003	5.76608E-001	6.15870E-001	-2.89465E-002	-3.88697E-002	6.65308E-001	-4.30779E-002	-1.14919E-003	8.30410E-005	-1.11020E-002	-1.18580E-002	5.57337E-004	7.48398E-004	-1.28099E-002	8.29423E-004
	12	12	4.99052E-002	-1.77614E-002	0.00000E+000	-8.86384E-004	-1.75494E-001	3.61908E-002	3.15210E+001	11	...........	6.00697E-002	-4.29278E-003	5.76855E-001	6.15936E-001	-2.89743E-002	-3.88550E-002	6.65372E-001	-4.31143E-002	-1.06692E-003	7.62456E-005	-1.02457E-002	-1.09399E-002	5.14623E-004	6.90118E-004	-1.18179E-002	7.65769E-004
	13	13	4.99111E-002	-1.65426E-002	0.00000E+000	-8.25658E-004	-1.63372E-001	3.60165E-002	3.10050E+001	11	...........	5.97981E-002	-4.28556E-003	5.76831E-001	6.16092E-001	-2.89956E-002	-3.88565E-002	6.65238E-001	-4.31303E-002	-9.89215E-004	7.08942E-005	-9.54228E-003	-1.01918E-002	4.79662E-004	6.42788E-004	-1.10048E-002	7.13487E-004
	14	14	4.99131E-002	-1.55755E-002	0.00000E+000	-7.77421E-004	-1.53749E-001	3.60240E-002	3.12941E+001	11	...........	5.98003E-002	-4.33917E-003	5.76863E-001	6.16154E-001	-2.89447E-002	-3.88290E-002	6.65344E-001	-4.31507E-002	-9.31418E-004	6.75846E-005	-8.98492E-003	-9.59690E-003	4.50828E-004	6.04780E-004	-1.03630E-002	6.72092E-004
	15	15	4.99168E-002	-1.50074E-002	0.00000E+000	-7.49123E-004	-1.48097E-001	3.61732E-002	3.17447E+001	11	...........	6.00646E-002	-4.44931E-003	5.76873E-001	6.15938E-001	-2.89169E-002	-3.88578E-002	6.65295E-001	-4.32046E-002	-9.01415E-004	6.67726E-005	-8.65738E-003	-9.24366E-003	4.33969E-004	5.83155E-004	-9.98438E-003	6.48390E-004
	16	16	4.99153E-002	-1.42526E-002	0.00000E+000	-7.11425E-004	-1.40590E-001	3.60872E-002	3.18167E+001	11	...........	5.99121E-002	-4.29931E-003	5.76800E-001	6.15851E-001	-2.89546E-002	-3.88872E-002	6.65225E-001	-4.30031E-002	-8.53905E-004	6.12764E-005	-8.22093E-003	-8.77750E-003	4.12679E-004	5.54245E-004	-9.48121E-003	6.12907E-004
	17	17	4.99179E-002	-1.37111E-002	0.00000E+000	-6.84428E-004	-1.35206E-001	3.60794E-002	3.14713E+001	11	...........	5.99082E-002	-4.30236E-003	5.76954E-001	6.15613E-001	-2.89971E-002	-3.88825E-002	6.65239E-001	-4.30732E-002	-8.21406E-004	5.89900E-005	-7.91066E-003	-8.44071E-003	3.97581E-004	5.33121E-004	-9.12114E-003	5.90580E-004
	18	18	4.99175E-002	-1.33891E-002	0.00000E+000	-6.68352E-004	-1.32001E-001	3.62424E-002	3.18149E+001	11	...........	6.01615E-002	-4.34222E-003	5.77047E-001	6.15556E-001	-2.89893E-002	-3.88979E-002	6.65321E-001	-4.30629E-002	-8.05511E-004	5.81386E-005	-7.72616E-003	-8.24176E-003	3.88142E-004	5.20809E-004	-8.90807E-003	5.76575E-004
	19	19	4.99206E-002	-1.29187E-002	0.00000E+000	-6.44908E-004	-1.27334E-001	3.61447E-002	3.15912E+001	11	...........	6.00065E-002	-4.25764E-003	5.77002E-001	6.15719E-001	-2.89557E-002	-3.88861E-002	6.65355E-001	-4.30487E-002	-7.75205E-004	5.50031E-005	-7.45410E-003	-7.95427E-003	3.74069E-004	5.02357E-004	-8.59551E-003	5.56133E-004
	20	20	4.99200E-002	-1.26067E-002	0.00000E+000	-6.29326E-004	-1.24226E-001	3.60778E-002	3.20542E+001	11	...........	6.00781E-002	-4.22097E-003	5.77042E-001	6.15545E-001	-2.89964E-002	-3.88947E-002	6.65430E-001	-4.29682E-002	-7.57386E-004	5.32125E-005	-7.27459E-003	-7.75999E-003	3.65549E-004	4.90334E-004	-8.38887E-003	5.41687E-004
	21	21	4.99215E-002	-1.23001E-002	0.00000E+000	-6.14038E-004	-1.21170E-001	3.59933E-002	3.20856E+001	11	...........	6.00772E-002	-4.31486E-003	5.77055E-001	6.15534E-001	-2.90043E-002	-3.89050E-002	6.65415E-001	-4.29946E-002	-7.38955E-004	5.30731E-005	-7.09782E-003	-7.57111E-003	3.56755E-004	4.78535E-004	-8.18466E-003	5.28837E-004
	22	22	4.99201E-002	-1.19990E-002	0.00000E+000	-5.98991E-004	-1.18172E-001	3.60272E-002	3.22120E+001	11	...........	6.01061E-002	-4.27306E-003	5.77090E-001	6.15418E-001	-2.90007E-002	-3.88925E-002	6.65507E-001	-4.31865E-002	-7.21213E-004	5.12724E-005	-6.92450E-003	-7.38440E-003	3.47979E-004	4.66671E-004	-7.98542E-003	5.18195E-004
	23	23	4.99194E-002	-1.17381E-002	0.00000E+000	-5.85961E-004	-1.15576E-001	3.60918E-002	3.21752E+001	11	...........	6.02237E-002	-4.26528E-003	5.77164E-001	6.15410E-001	-2.90003E-002	-3.89087E-002	6.65633E-001	-4.31049E-002	-7.06915E-004	5.00664E-005	-6.77483E-003	-7.22376E-003	3.40409E-004	4.56716E-004	-7.81329E-003	5.05971E-004
	24	24	4.99213E-002	-1.14338E-002	0.00000E+000	-5.70792E-004	-1.12562E-001	3.60547E-002	3.16034E+001	11	...........	6.01639E-002	-4.32639E-003	5.77169E-001	6.15226E-001	-2.89871E-002	-3.89267E-002	6.65541E-001	-4.32368E-002	-6.87905E-004	4.94673E-005	-6.59926E-003	-7.03441E-003	3.31434E-004	4.45082E-004	-7.60970E-003	4.94363E-004
	25	25	4.99223E-002	-1.11953E-002	0.00000E+000	-5.58894E-004	-1.10189E-001	3.60002E-002	3.21257E+001	11	...........	6.00514E-002	-4.36847E-003	5.77106E-001	6.15132E-001	-2.89769E-002	-3.88936E-002	6.65506E-001	-4.33137E-002	-6.72293E-004	4.89063E-005	-6.46087E-003	-6.88659E-003	3.24405E-004	4.35425E-004	-7.45054E-003	4.84910E-004
	26	26	4.99224E-002	-1.10515E-002	0.00000E+000	-5.51716E-004	-1.08755E-001	3.61300E-002	3.20679E+001	11	...........	6.02831E-002	-4.27375E-003	5.77109E-001	6.15183E-001	-2.89806E-002	-3.88996E-002	6.65606E-001	-4.32942E-002	-6.66217E-004	4.72313E-005	-6.37791E-003	-6.79868E-003	3.20278E-004	4.29898E-004	-7.35593E-003	4.78465E-004
	27	27	4.99204E-002	-1.07758E-002	0.00000E+000	-5.37932E-004	-1.06014E-001	3.60592E-002	3.22515E+001	11	...........	6.01697E-002	-4.25833E-003	5.77196E-001	6.15227E-001	-2.89765E-002	-3.88921E-002	6.65594E-001	-4.33096E-002	-6.48376E-004	4.58869E-005	-6.21974E-003	-6.62955E-003	3.12245E-004	4.19093E-004	-7.17230E-003	4.66695E-004
	28	28	4.99229E-002	-1.06371E-002	0.00000E+000	-5.31034E-004	-1.04629E-001	3.61232E-002	3.22855E+001	11	...........	6.02886E-002	-4.24986E-003	5.77228E-001	6.15170E-001	-2.89574E-002	-3.88871E-002	6.65635E-001	-4.31511E-002	-6.41295E-004	4.52061E-005	-6.14003E-003	-6.54361E-003	3.08022E-004	4.13645E-004	-7.08041E-003	4.59002E-004
	29	29	4.99205E-002	-1.04373E-002	0.00000E+000	-5.21037E-004	-1.02655E-001	3.61174E-002	3.25437E+001	11	...........	6.02667E-002	-4.30139E-003	5.77246E-001	6.15209E-001	-2.89646E-002	-3.88550E-002	6.65622E-001	-4.31853E-002	-6.29023E-004	4.48950E-005	-6.02491E-003	-6.42114E-003	3.02313E-004	4.05542E-004	-6.94732E-003	4.50739E-004
	30	30	4.99222E-002	-1.01820E-002	0.00000E+000	-5.08310E-004	-1.00151E-001	3.61172E-002	3.19457E+001	11	...........	6.02653E-002	-4.24806E-003	5.77222E-001	6.15045E-001	-2.89649E-002	-3.88467E-002	6.65564E-001	-4.33860E-002	-6.13623E-004	4.32539E-005	-5.87730E-003	-6.26241E-003	2.94921E-004	3.95538E-004	-6.77680E-003	4.41758E-004
	31	31	4.99228E-002	-1.00405E-002	0.00000E+000	-5.01248E-004	-9.87377E-002	3.60522E-002	3.21894E+001	11	...........	6.01421E-002	-4.21014E-003	5.77296E-001	6.15121E-001	-2.89778E-002	-3.88593E-002	6.65476E-001	-4.34135E-002	-6.03854E-004	4.22717E-005	-5.79632E-003	-6.17610E-003	2.90950E-004	3.90165E-004	-6.68169E-003	4.35891E-004
	32	32	4.99218E-002	-9.91952E-003	0.00000E+000	-4.95201E-004	-9.75280E-002	3.61610E-002	3.25816E+001	11	...........	6.03462E-002	-4.28028E-003	5.77292E-001	6.15295E-001	-2.89811E-002	-3.88814E-002	6.65460E-001	-4.32875E-002	-5.98606E-004	4.24583E-005	-5.72646E-003	-6.10343E-003	2.87479E-004	3.85685E-004	-6.60105E-003	4.29391E-004
	33	33	4.99220E-002	-9.77393E-003	0.00000E+000	-4.87934E-004	-9.60740E-002	3.62263E-002	3.24079E+001	11	...........	6.04489E-002	-4.32014E-003	5.77215E-001	6.15333E-001	-2.89632E-002	-3.88872E-002	6.65544E-001	-4.33183E-002	-5.90823E-004	4.22247E-005	-5.64166E-003	-6.01422E-003	2.83084E-004	3.80081E-004	-6.50498E-003	4.23390E-004
	34	34	4.99234E-002	-9.59672E-003	0.00000E+000	-4.79101E-004	-9.43153E-002	3.61582E-002	3.27144E+001	11	...........	6.03297E-002	-4.28014E-003	5.77118E-001	6.15319E-001	-2.89267E-002	-3.88861E-002	6.65642E-001	-4.33640E-002	-5.78968E-004	4.10753E-005	-5.53844E-003	-5.90504E-003	2.77601E-004	3.73179E-004	-6.38798E-003	4.16152E-004
	35	35	4.99207E-002	-9.37645E-003	0.00000E+000	-4.68078E-004	-9.21210E-002	3.60863E-002	3.14504E+001	11	...........	6.02322E-002	-4.30306E-003	5.77172E-001	6.15262E-001	-2.89050E-002	-3.89143E-002	6.65531E-001	-4.34275E-002	-5.64764E-004	4.03474E-005	-5.41183E-003	-5.76897E-003	2.71026E-004	3.64878E-004	-6.24031E-003	4.07196E-004
	36	36	4.99238E-002	-9.25884E-003	0.00000E+000	-4.62237E-004	-9.09467E-002	3.61707E-002	3.20853E+001	11	...........	6.03596E-002	-4.29361E-003	5.77123E-001	6.15233E-001	-2.89237E-002	-3.89092E-002	6.65567E-001	-4.33907E-002	-5.58860E-004	3.97539E-005	-5.34350E-003	-5.69635E-003	2.67800E-004	3.60254E-004	-6.16238E-003	4.01748E-004
	37	37	4.99228E-002	-9.15495E-003	0.00000E+000	-4.57041E-004	-8.99077E-002	3.62862E-002	3.26969E+001	11	...........	6.05526E-002	-4.38583E-003	5.77153E-001	6.15272E-001	-2.89101E-002	-3.89399E-002	6.65494E-001	-4.33167E-002	-5.54356E-004	4.01521E-005	-5.28381E-003	-5.63278E-003	2.64671E-004	3.56492E-004	-6.09257E-003	3.96562E-004
	38	38	4.99204E-002	-8.98955E-003	0.00000E+000	-4.48762E-004	-8.82777E-002	3.61350E-002	3.15777E+001	11	...........	6.02953E-002	-4.39014E-003	5.77104E-001	6.15302E-001	-2.89162E-002	-3.89321E-002	6.65604E-001	-4.32421E-002	-5.42027E-004	3.94654E-005	-5.18790E-003	-5.53129E-003	2.59944E-004	3.49982E-004	-5.98348E-003	3.88727E-004
	39	39	4.99251E-002	-8.90660E-003	0.00000E+000	-4.44663E-004	-8.74633E-002	3.63288E-002	3.25777E+001	11	...........	6.06031E-002	-4.33028E-003	5.77254E-001	6.15224E-001	-2.89067E-002	-3.89290E-002	6.65632E-001	-4.32972E-002	-5.39767E-004	3.85681E-005	-5.14137E-003	-5.47955E-003	2.57460E-004	3.46725E-004	-5.92852E-003	3.85631E-004
	40	40	4.99214E-002	-8.75226E-003	0.00000E+000	-4.36925E-004	-8.59237E-002	3.62451E-002	3.25707E+001	11	...........	6.04799E-002	-4.29292E-003	5.77259E-001	6.15038E-001	-2.89144E-002	-3.89219E-002	6.65806E-001	-4.31982E-002	-5.29335E-004	3.75727E-005	-5.05232E-003	-5.38297E-003	2.53067E-004	3.40655E-004	-5.82731E-003	3.78082E-004
	41	41	4.99230E-002	-8.55195E-003	0.00000E+000	-4.26939E-004	-8.39253E-002	3.61620E-002	3.15615E+001	11	...........	6.03390E-002	-4.20958E-003	5.77167E-001	6.14900E-001	-2.89100E-002	-3.89150E-002	6.65804E-001	-4.32399E-002	-5.16016E-004	3.60001E-005	-4.93590E-003	-5.25859E-003	2.47237E-004	3.32799E-004	-5.69392E-003	3.69785E-004
	42	42	4.99233E-002	-8.49310E-003	0.00000E+000	-4.24004E-004	-8.33407E-002	3.63257E-002	3.23471E+001	11	...........	6.06075E-002	-4.33042E-003	5.77227E-001	6.15025E-001	-2.89075E-002	-3.89219E-002	6.65826E-001	-4.32246E-002	-5.14746E-004	3.67787E-005	-4.90245E-003	-5.22347E-003	2.45514E-004	3.30568E-004	-5.65493E-003	3.67111E-004
	43	43	4.99228E-002	-8.40833E-003	0.00000E+000	-4.19768E-004	-8.24933E-002	3.62986E-002	3.27560E+001	11	...........	6.05581E-002	-4.20444E-003	5.77232E-001	6.15120E-001	-2.89079E-002	-3.89010E-002	6.65773E-001	-4.32896E-002	-5.09192E-004	3.53524E-005	-4.85356E-003	-5.17213E-003	2.43067E-004	3.27092E-004	-5.59804E-003	3.63993E-004
	44	44	4.99220E-002	-8.26339E-003	0.00000E+000	-4.12525E-004	-8.10537E-002	3.62399E-002	3.21416E+001	11	...........	6.04772E-002	-4.17042E-003	5.77192E-001	6.15207E-001	-2.89033E-002	-3.88699E-002	6.65619E-001	-4.30918E-002	-4.99747E-004	3.44618E-005	-4.76956E-003	-5.08370E-003	2.38840E-004	3.21197E-004	-5.50027E-003	3.56085E-004
	45	45	4.99231E-002	-8.09484E-003	0.00000E+000	-4.04119E-004	-7.93757E-002	3.62815E-002	3.18621E+001	11	...........	6.05299E-002	-4.14903E-003	5.77359E-001	6.15238E-001	-2.89003E-002	-3.88660E-002	6.65631E-001	-4.30885E-002	-4.89980E-004	3.35857E-005	-4.67363E-003	-4.98025E-003	2.33943E-004	3.14614E-004	-5.38818E-003	3.48794E-004
	46	46	4.99226E-002	-8.04185E-003	0.00000E+000	-4.01470E-004	-7.88457E-002	3.63092E-002	3.22996E+001	11	...........	6.05840E-002	-4.10611E-003	5.77415E-001	6.15280E-001	-2.89025E-002	-3.88385E-002	6.65605E-001	-4.31361E-002	-4.87208E-004	3.30207E-005	-4.64349E-003	-4.94799E-003	2.32430E-004	3.12333E-004	-5.35270E-003	3.46894E-004
	47	47	4.99238E-002	-7.96273E-003	0.00000E+000	-3.97530E-004	-7.80633E-002	3.62862E-002	3.27241E+001	11	...........	6.05486E-002	-4.15833E-003	5.77506E-001	6.15357E-001	-2.89219E-002	-3.88706E-002	6.65579E-001	-4.32365E-002	-4.82132E-004	3.31117E-005	-4.59852E-003	-4.89992E-003	2.30298E-004	3.09516E-004	-5.29982E-003	3.44281E-004
	48	48	4.99230E-002	-7.86114E-003	0.00000E+000	-3.92452E-004	-7.70567E-002	3.63203E-002	3.22731E+001	11	...........	6.06136E-002	-4.19097E-003	5.77594E-001	6.15528E-001	-2.89122E-002	-3.88321E-002	6.65636E-001	-4.32844E-002	-4.76492E-004	3.29458E-005	-4.54055E-003	-4.83875E-003	2.27283E-004	3.05265E-004	-5.23266E-003	3.40265E-004
	49	49	4.99219E-002	-7.69314E-003	0.00000E+000	-3.84056E-004	-7.54007E-002	3.62903E-002	3.25762E+001	11	...........	6.05506E-002	-4.15903E-003	5.77558E-001	6.15575E-001	-2.89068E-002	-3.88374E-002	6.65607E-001	-4.32144E-002	-4.65824E-004	3.19960E-005	-4.44324E-003	-4.73571E-003	2.22384E-004	2.98781E-004	-5.12061E-003	3.32455E-004
	50	50	4.99239E-002	-7.60695E-003	0.00000E+000	-3.79768E-004	-7.45383E-002	3.62982E-002	3.18652E+001	11	...........	6.05518E-002	-4.31653E-003	5.77577E-001	6.15495E-001	-2.88942E-002	-3.88451E-002	6.65653E-001	-4.31774E-002	-4.60615E-004	3.28356E-005	-4.39360E-003	-4.68204E-003	2.19796E-004	2.95493E-004	-5.06359E-003	3.28448E-004
	51	51	4.99232E-002	-7.56169E-003	0.00000E+000	-3.77504E-004	-7.40830E-002	3.63897E-002	3.24902E+001	11	...........	6.07164E-002	-4.30542E-003	5.77449E-001	6.15427E-001	-2.88971E-002	-3.88417E-002	6.65741E-001	-4.31632E-002	-4.59119E-004	3.25562E-005	-4.36649E-003	-4.65367E-003	2.18511E-004	2.93709E-004	-5.03413E-003	3.26387E-004
	52	52	4.99238E-002	-7.47893E-003	0.00000E+000	-3.73377E-004	-7.32643E-002	3.63191E-002	3.32283E+001	11	...........	6.06011E-002	-4.24472E-003	5.77481E-001	6.15325E-001	-2.88875E-002	-3.88392E-002	6.65721E-001	-4.32512E-002	-4.53232E-004	3.17460E-005	-4.31894E-003	-4.60198E-003	2.16048E-004	2.90475E-004	-4.97888E-003	3.23473E-004
	53	53	4.99211E-002	-7.37476E-003	0.00000E+000	-3.68156E-004	-7.22227E-002	3.63934E-002	3.24228E+001	11	...........	6.07311E-002	-4.34708E-003	5.77530E-001	6.15342E-001	-2.88939E-002	-3.88243E-002	6.65806E-001	-4.32394E-002	-4.47877E-004	3.20587E-005	-4.25914E-003	-4.53800E-003	2.13085E-004	2.86320E-004	-4.91015E-003	3.18880E-004
	54	54	4.99243E-002	-7.21203E-003	0.00000E+000	-3.60056E-004	-7.06003E-002	3.62887E-002	3.22727E+001	11	...........	6.05600E-002	-4.35944E-003	5.77727E-001	6.15364E-001	-2.88971E-002	-3.88450E-002	6.65785E-001	-4.32378E-002	-4.36761E-004	3.14404E-005	-4.16659E-003	-4.43802E-003	2.08407E-004	2.80151E-004	-4.80166E-003	3.11832E-004
	55	55	4.99236E-002	-7.15215E-003	0.00000E+000	-3.57061E-004	-7.00033E-002	3.62624E-002	3.23890E+001	11	...........	6.04981E-002	-4.27625E-003	5.77673E-001	6.15336E-001	-2.88979E-002	-3.88510E-002	6.65795E-001	-4.32114E-002	-4.32691E-004	3.05844E-005	-4.13160E-003	-4.40097E-003	2.06682E-004	2.77868E-004	-4.76187E-003	3.09054E-004
	56	56	4.99236E-002	-7.09397E-003	0.00000E+000	-3.54156E-004	-6.94270E-002	3.64065E-002	3.23589E+001	11	...........	6.07350E-002	-4.24236E-003	5.77680E-001	6.15294E-001	-2.89258E-002	-3.88614E-002	6.65831E-001	-4.31224E-002	-4.30852E-004	3.00952E-005	-4.09804E-003	-4.36487E-003	2.05199E-004	2.75681E-004	-4.72338E-003	3.05909E-004
	57	57	4.99236E-002	-7.03300E-003	0.00000E+000	-3.51112E-004	-6.88233E-002	3.64530E-002	3.28044E+001	11	...........	6.08056E-002	-4.40986E-003	5.77641E-001	6.15287E-001	-2.89383E-002	-3.88875E-002	6.65797E-001	-4.32196E-002	-4.27645E-004	3.10145E-005	-4.06255E-003	-4.32732E-003	2.03523E-004	2.73496E-004	-4.68255E-003	3.03963E-004
	58	58	4.99220E-002	-6.90671E-003	0.00000E+000	-3.44797E-004	-6.75643E-002	3.63190E-002	3.25230E+001	11	...........	6.05914E-002	-4.44181E-003	5.77650E-001	6.15198E-001	-2.89292E-002	-3.88874E-002	6.65872E-001	-4.33331E-002	-4.18487E-004	3.06783E-005	-3.98966E-003	-4.24900E-003	1.99805E-004	2.68584E-004	-4.59899E-003	2.99289E-004
	59	59	4.99234E-002	-6.80219E-003	0.00000E+000	-3.39588E-004	-6.65200E-002	3.63798E-002	3.19349E+001	11	...........	6.07094E-002	-4.44847E-003	5.77609E-001	6.15131E-001	-2.89439E-002	-3.88890E-002	6.65705E-001	-4.33043E-002	-4.12957E-004	3.02593E-005	-3.92900E-003	-4.18424E-003	1.96882E-004	2.64530E-004	-4.52825E-003	2.94564E-004
	60	60	4.99247E-002	-6.75724E-003	0.00000E+000	-3.37353E-004	-6.60703E-002	3.63478E-002	3.27036E+001	11	...........	6.06451E-002	-4.37250E-003	5.77646E-001	6.15169E-001	-2.89533E-002	-3.88801E-002	6.65663E-001	-4.33071E-002	-4.09794E-004	2.95460E-005	-3.90329E-003	-4.15684E-003	1.95645E-004	2.62722E-004	-4.49805E-003	2.92636E-004
	61	61	4.99222E-002	-6.71154E-003	0.00000E+000	-3.35055E-004	-6.56137E-002	3.64604E-002	3.29103E+001	11	...........	6.08256E-002	-4.26792E-003	5.77608E-001	6.15114E-001	-2.89576E-002	-3.88639E-002	6.65705E-001	-4.32071E-002	-4.08233E-004	2.86443E-005	-3.87664E-003	-4.12837E-003	1.94350E-004	2.60837E-004	-4.46791E-003	2.89986E-004
	62	62	4.99227E-002	-6.62821E-003	0.00000E+000	-3.30899E-004	-6.47920E-002	3.64162E-002	3.25436E+001	11	...........	6.07622E-002	-4.11625E-003	5.77583E-001	6.15000E-001	-2.89746E-002	-3.88650E-002	6.65667E-001	-4.30885E-002	-4.02745E-004	2.72834E-005	-3.82834E-003	-4.07635E-003	1.92050E-004	2.57605E-004	-4.41218E-003	2.85600E-004
	63	63	4.99240E-002	-6.50791E-003	0.00000E+000	-3.24901E-004	-6.35897E-002	3.64243E-002	3.26617E+001	11	...........	6.07836E-002	-4.10264E-003	5.77516E-001	6.14969E-001	-2.89956E-002	-3.88546E-002	6.65771E-001	-4.31419E-002	-3.95574E-004	2.66996E-005	-3.75842E-003	-4.00217E-003	1.88701E-004	2.52862E-004	-4.33278E-003	2.80764E-004
	64	64	4.99246E-002	-6.47371E-003	0.00000E+000	-3.23197E-004	-6.32570E-002	3.63782E-002	3.27756E+001	11	...........	6.06990E-002	-4.11556E-003	5.77472E-001	6.14909E-001	-2.89797E-002	-3.88536E-002	6.65780E-001	-4.30887E-002	-3.92948E-004	2.66429E-005	-3.73839E-003	-3.98074E-003	1.87606E-004	2.51527E-004	-4.31007E-003	2.78944E-004
	65	65	4.99228E-002	-6.40911E-003	0.00000E+000	-3.19961E-004	-6.26237E-002	3.63540E-002	3.30576E+001	11	...........	6.06590E-002	-4.18597E-003	5.77468E-001	6.14843E-001	-2.89621E-002	-3.88803E-002	6.65674E-001	-4.30139E-002	-3.88770E-004	2.68283E-005	-3.70106E-003	-3.94060E-003	1.85621E-004	2.49188E-004	-4.26638E-003	2.75681E-004
	66	66	4.99224E-002	-6.33232E-003	0.00000E+000	-3.16125E-004	-6.18560E-002	3.64720E-002	3.27091E+001	11	...........	6.08578E-002	-4.26972E-003	5.77388E-001	6.14858E-001	-2.89532E-002	-3.88871E-002	6.65573E-001	-4.30707E-002	-3.85371E-004	2.70373E-005	-3.65621E-003	-3.89348E-003	1.83341E-004	2.46246E-004	-4.21463E-003	2.72738E-004
	67	67	4.99235E-002	-6.22603E-003	0.00000E+000	-3.10825E-004	-6.07987E-002	3.63560E-002	3.20252E+001	11	...........	6.06689E-002	-4.25458E-003	5.77342E-001	6.14867E-001	-2.89408E-002	-3.88700E-002	6.65506E-001	-4.31179E-002	-3.77727E-004	2.64892E-005	-3.59455E-003	-3.82818E-003	1.80187E-004	2.42006E-004	-4.14346E-003	2.68454E-004
	68	68	4.99243E-002	-6.21334E-003	0.00000E+000	-3.10197E-004	-6.06697E-002	3.64792E-002	3.26952E+001	11	...........	6.08650E-002	-4.31111E-003	5.77291E-001	6.14942E-001	-2.89415E-002	-3.88335E-002	6.65582E-001	-4.31435E-002	-3.78175E-004	2.67864E-005	-3.58691E-003	-3.82085E-003	1.79824E-004	2.41286E-004	-4.13549E-003	2.68065E-004
	69	69	4.99238E-002	-6.13434E-003	0.00000E+000	-3.06249E-004	-5.98807E-002	3.64265E-002	3.33358E+001	11	...........	6.07875E-002	-4.26792E-003	5.77310E-001	6.14818E-001	-2.89390E-002	-3.88408E-002	6.65774E-001	-4.31349E-002	-3.72891E-004	2.61808E-005	-3.54142E-003	-3.77150E-003	1.77522E-004	2.38263E-004	-4.08409E-003	2.64604E-004
	70	70	4.99231E-002	-6.07105E-003	0.00000E+000	-3.03085E-004	-5.92567E-002	3.64342E-002	3.28527E+001	11	...........	6.07875E-002	-4.30264E-003	5.77310E-001	6.14839E-001	-2.89471E-002	-3.88374E-002	6.65705E-001	-4.32633E-002	-3.69044E-004	2.61215E-005	-3.50487E-003	-3.73271E-003	1.75739E-004	2.35783E-004	-4.04153E-003	2.62654E-004
	71	71	4.99237E-002	-5.99620E-003	0.00000E+000	-2.99353E-004	-5.85077E-002	3.64716E-002	3.30905E+001	11	...........	6.08546E-002	-4.19444E-003	5.77195E-001	6.14825E-001	-2.89578E-002	-3.88472E-002	6.65728E-001	-4.32406E-002	-3.64896E-004	2.51507E-005	-3.46098E-003	-3.68662E-003	1.73637E-004	2.32936E-004	-3.99184E-003	2.59279E-004
	72	72	4.99238E-002	-5.94780E-003	0.00000E+000	-2.96937E-004	-5.80240E-002	3.64587E-002	3.28862E+001	11	...........	6.08472E-002	-4.24542E-003	5.77091E-001	6.14839E-001	-2.89308E-002	-3.88640E-002	6.65782E-001	-4.32508E-002	-3.61907E-004	2.52509E-005	-3.43242E-003	-3.65694E-003	1.72075E-004	2.31155E-004	-3.95994E-003	2.57247E-004
	73	73	4.99235E-002	-5.89926E-003	0.00000E+000	-2.94512E-004	-5.75397E-002	3.64744E-002	3.29561E+001	11	...........	6.08572E-002	-4.30792E-003	5.77025E-001	6.14730E-001	-2.88667E-002	-3.88201E-002	6.65799E-001	-4.31117E-002	-3.59013E-004	2.54135E-005	-3.40402E-003	-3.62646E-003	1.70292E-004	2.29010E-004	-3.92773E-003	2.54327E-004
	74	74	4.99234E-002	-5.81480E-003	0.00000E+000	-2.90295E-004	-5.66977E-002	3.64637E-002	3.35837E+001	11	...........	6.08640E-002	-4.27625E-003	5.77166E-001	6.14763E-001	-2.88517E-002	-3.88096E-002	6.65791E-001	-4.30276E-002	-3.53912E-004	2.48655E-005	-3.35610E-003	-3.57472E-003	1.67767E-004	2.25670E-004	-3.87144E-003	2.50197E-004
	75	75	4.99229E-002	-5.73945E-003	0.00000E+000	-2.86530E-004	-5.59527E-002	3.64861E-002	3.23088E+001	11	...........	6.08694E-002	-4.37458E-003	5.77275E-001	6.14773E-001	-2.88961E-002	-3.88171E-002	6.65840E-001	-4.30043E-002	-3.49357E-004	2.51077E-005	-3.31324E-003	-3.52846E-003	1.65848E-004	2.22789E-004	-3.82155E-003	2.46821E-004
	76	76	4.99242E-002	-5.68090E-003	0.00000E+000	-2.83614E-004	-5.53677E-002	3.63817E-002	3.29714E+001	11	...........	6.07156E-002	-4.41792E-003	5.77420E-001	6.14833E-001	-2.89168E-002	-3.88099E-002	6.65685E-001	-4.30244E-002	-3.44919E-004	2.50977E-005	-3.28027E-003	-3.49281E-003	1.64273E-004	2.20475E-004	-3.78169E-003	2.44417E-004
	77	77	4.99238E-002	-5.65857E-003	0.00000E+000	-2.82497E-004	-5.51453E-002	3.65181E-002	3.31882E+001	11	...........	6.09124E-002	-4.38833E-003	5.77447E-001	6.14924E-001	-2.89117E-002	-3.88247E-002	6.65800E-001	-4.30515E-002	-3.44677E-004	2.48317E-005	-3.26752E-003	-3.47959E-003	1.63599E-004	2.19692E-004	-3.76747E-003	2.43610E-004
	78	78	4.99235E-002	-5.60702E-003	0.00000E+000	-2.79922E-004	-5.46300E-002	3.64878E-002	3.29660E+001	11	...........	6.08899E-002	-4.30736E-003	5.77569E-001	6.15131E-001	-2.88479E-002	-3.88383E-002	6.65767E-001	-4.31399E-002	-3.41411E-004	2.41515E-005	-3.23844E-003	-3.44905E-003	1.61751E-004	2.17767E-004	-3.73297E-003	2.41886E-004
	79	79	4.99233E-002	-5.53411E-003	0.00000E+000	-2.76281E-004	-5.39070E-002	3.65011E-002	3.35669E+001	11	...........	6.09008E-002	-4.34347E-003	5.77544E-001	6.15144E-001	-2.88414E-002	-3.88454E-002	6.65736E-001	-4.31529E-002	-3.37032E-004	2.40372E-005	-3.19619E-003	-3.40427E-003	1.59611E-004	2.14975E-004	-3.68426E-003	2.38813E-004
	80	80	4.99227E-002	-5.42987E-003	0.00000E+000	-2.71074E-004	-5.28690E-002	3.64375E-002	3.15909E+001	11	...........	6.07917E-002	-4.23111E-003	5.77690E-001	6.15179E-001	-2.88850E-002	-3.88607E-002	6.65752E-001	-4.31810E-002	-3.30091E-004	2.29744E-005	-3.13678E-003	-3.34034E-003	1.56842E-004	2.11009E-004	-3.61495E-003	2.34467E-004
	81	81	4.99237E-002	-5.37880E-003	0.00000E+000	-2.68530E-004	-5.23657E-002	3.65840E-002	3.22622E+001	11	...........	6.10415E-002	-4.25153E-003	5.77593E-001	6.15195E-001	-2.88993E-002	-3.88451E-002	6.65612E-001	-4.31975E-002	-3.28330E-004	2.28681E-005	-3.10676E-003	-3.30901E-003	1.55444E-004	2.08940E-004	-3.58019E-003	2.32351E-004
	82	82	4.99247E-002	-5.35229E-003	0.00000E+000	-2.67212E-004	-5.20960E-002	3.64933E-002	3.26379E+001	11	...........	6.08917E-002	-4.35833E-003	5.77568E-001	6.15184E-001	-2.89022E-002	-3.88367E-002	6.65562E-001	-4.32057E-002	-3.25910E-004	2.33271E-005	-3.09131E-003	-3.29264E-003	1.54693E-004	2.07865E-004	-3.56228E-003	2.31249E-004
	83	83	4.99232E-002	-5.28303E-003	0.00000E+000	-2.63746E-004	-5.14117E-002	3.64558E-002	3.25871E+001	11	...........	6.07979E-002	-4.29181E-003	5.77586E-001	6.15322E-001	-2.88706E-002	-3.88532E-002	6.65697E-001	-4.32010E-002	-3.21197E-004	2.26738E-005	-3.05141E-003	-3.25077E-003	1.52524E-004	2.05263E-004	-3.51690E-003	2.28232E-004
	84	84	4.99241E-002	-5.23480E-003	0.00000E+000	-2.61343E-004	-5.09443E-002	3.66503E-002	3.27949E+001	11	...........	6.11597E-002	-4.36806E-003	5.77567E-001	6.15386E-001	-2.88892E-002	-3.88637E-002	6.65736E-001	-4.32968E-002	-3.20159E-004	2.28659E-005	-3.02345E-003	-3.22142E-003	1.51229E-004	2.03444E-004	-3.48500E-003	2.26650E-004
	85	85	4.99232E-002	-5.16296E-003	0.00000E+000	-2.57752E-004	-5.02343E-002	3.63834E-002	3.22570E+001	11	...........	6.07022E-002	-4.22639E-003	5.77507E-001	6.15449E-001	-2.89461E-002	-3.88449E-002	6.65632E-001	-4.32449E-002	-3.13403E-004	2.18207E-005	-2.98165E-003	-3.17754E-003	1.49448E-004	2.00554E-004	-3.43663E-003	2.23271E-004
	86	86	4.99238E-002	-5.15572E-003	0.00000E+000	-2.57393E-004	-5.01577E-002	3.66982E-002	3.27013E+001	11	...........	6.12449E-002	-4.25306E-003	5.77449E-001	6.15513E-001	-2.89589E-002	-3.88515E-002	6.65812E-001	-4.31590E-002	-3.15761E-004	2.19276E-005	-2.97717E-003	-3.17341E-003	1.49304E-004	2.00308E-004	-3.43274E-003	2.22516E-004
	87	87	4.99243E-002	-5.11636E-003	0.00000E+000	-2.55430E-004	-4.97693E-002	3.65327E-002	3.30408E+001	11	...........	6.09572E-002	-4.38278E-003	5.77382E-001	6.15476E-001	-2.89396E-002	-3.88562E-002	6.65725E-001	-4.31518E-002	-3.11879E-004	2.24239E-005	-2.95409E-003	-3.14900E-003	1.48065E-004	1.98803E-004	-3.40609E-003	2.20780E-004
	88	87.345	4.99213E-002	-5.06381E-003	0.00000E+000	-2.52792E-004	-4.92502E-002	3.64959E-002	3.25929E+001	11	...........	6.09134E-002	-4.38043E-003	5.77436E-001	6.15479E-001	-2.89932E-002	-3.88370E-002	6.65674E-001	-4.32343E-002	-3.08454E-004	2.21817E-005	-2.92403E-003	-3.11667E-003	1.46816E-004	1.96663E-004	-3.37085E-003	2.18930E-004
STARTTIMEOFFSET	QUANT	821933.9	Start Time Offset (s)
