EXPLAIN
TAG	PWR800_DISCHARGE
TITLE	LABEL	PWR Discharge	Test Identifier
DATE	LABEL	10/17/2022	Date
TIME	LABEL	15:28:17	Time
NOTES	NOTES	1	Notes...
	
PSTAT	PSTAT	REF3000-21114	Potentiostat
CAPACITY	QUANT	5.30000E-002	Capacity (A-hr)
CELLTYPE	SELECTOR	1	Cell Type
WORKINGCONNECTION	SELECTOR	0	Working Connection
MAXDISCHARGETIME	VARIABLEANDUNITS	7.20000E+003	s	2.00000E+000	hour(s)	Max Discharge Time
DISCHARGEMODE	MULTIPARAM	0	1.00000E-001	Discharge Mode	Constant Current	Amp(s)
VOLTAGEFINISH	TWOPARAM	T	5.00000E-003	7.20000E+003	Voltage Finish	I (A) <	Max Time(s)
SAMPLETIME	QUANT	1.00000E+000	Sample Period (s)
DISCHARGESTOPAT1	MULTIPARAM	1	5.00000E-002	Stop At 1	|Voltage| < Limit	V
DISCHARGESTOPAT2	MULTIPARAM	0	0.00000E+000	Stop At 2	None	N/A
AESELECTOR	AESELECTOR	0x1	T	Set Limits	AE Channels
AESBHCSELECTOR	TOGGLE	F	Save Both Half Cells
IRCOMP	TOGGLE	F	IR Measure
EOC	QUANT	0.5210297	Open Circuit (V)
SEQUENCER	TOGGLE	TRUE	Run as Sequence
PSTATMODEL	IQUANT	5	Pstat Model
PSTATSECTION	LABEL	REF3000-21114	Pstat Section
PSTATSERIALNO	LABEL	21114	Pstat Serial Number
CTRLMODE	IQUANT	0	Control Mode
ELECTROMETER	IQUANT	0	RE=0 or CS=1
IESTAB	IQUANT	0	I/E Stability
CASPEED	IQUANT	4	Control Amp Speed
CONVENTION	IQUANT	1	Current Convention
ICHRANGE	IQUANT	2	Ich Range
ICHRANGEMODE	TOGGLE	T	Ich Auto Range
ICHOFFSETENABLE	TOGGLE	F	Ich Offset Enable
ICHOFFSET	QUANT	0	Ich Offset (V)
ICHFILTER	IQUANT	1	Ich Filter
VCHRANGE	IQUANT	3	Vch Range
VCHRANGEMODE	TOGGLE	T	Vch Auto Range
VCHOFFSETENABLE	TOGGLE	F	Vch Offset Enable
VCHOFFSET	QUANT	0	Vch Offset (V)
VCHFILTER	IQUANT	1	Vch Filter
ACHRANGE	IQUANT	2	Ach Range
ACHOFFSETENABLE	TOGGLE	F	Ach Offset Enable
ACHOFFSET	QUANT	0	Ach Offset (V)
ACHFILTER	IQUANT	1	Ach Filter
IERANGELOWERLIMIT	IQUANT	9	I/E Range Lower Limit
IERANGEMODE	TOGGLE	F	I/E AutoRange
IERANGE	IQUANT	9	I/E Range
POSFEEDENABLE	TOGGLE	F	Positive Feedback IR Comp
POSFEEDRESISTANCE	QUANT	0	Positive Feedback Resistance (ohm)
ACHSELECT	IQUANT	1	Ach Select
SENSECABLEID	IQUANT	13	Sense Cable ID
PWRCABLEID	IQUANT	13	Power Cable ID
DCCALDATE	LABEL		DC Calibration Date
ACCALDATE	LABEL		AC Calibration Date
THERMOSELECT	IQUANT	1	Thermo Select
FRAMEWORKVERSION	LABEL	7.8.6	Framework Version
INSTRUMENTVERSION	LABEL	4.50	Instrument Version
COMPLIANCEVOLTAGE	IQUANT	0	Compliance Voltage
CURVE	TABLE	54
	Pt	T	Vf	Im	Vu	Pwr	Sig	Ach	Temp	IERange	Over	Vf1	Vf2	Vf3	Vf4	Vf5	Vf6	Vf7	Vf8	Pwr1	Pwr2	Pwr3	Pwr4	Pwr5	Pwr6	Pwr7	Pwr8
	#	s	V	A	V	W	V	V	deg C	#	bits	V	V	V	V	V	V	V	V	W	W	W	W	W	W	W	W
	0	1	2.76518E-001	-1.00083E-001	0.00000E+000	-2.76747E-002	-9.94000E-001	3.49908E-002	2.85415E+001	11	...........	5.79875E-002	-4.29306E-003	5.81170E-001	5.75628E-001	-2.81589E-002	-3.85854E-002	6.73889E-001	-4.31629E-002	-5.80355E-003	4.29661E-004	-5.81651E-002	-5.76105E-002	2.81822E-003	3.86174E-003	-6.74447E-002	4.31987E-003
	1	2	1.77874E-001	-1.00083E-001	0.00000E+000	-1.78022E-002	-9.94000E-001	3.50287E-002	2.80976E+001	11	...........	5.80540E-002	-4.31167E-003	5.81102E-001	5.75694E-001	-2.81656E-002	-3.86011E-002	6.73886E-001	-4.32886E-002	-5.81023E-003	4.31525E-004	-5.81585E-002	-5.76173E-002	2.81890E-003	3.86332E-003	-6.74446E-002	4.33246E-003
	2	2.99667	9.07456E-002	-1.00084E-001	0.00000E+000	-9.08214E-003	-9.94000E-001	3.48674E-002	2.71617E+001	11	...........	5.77808E-002	-4.28999E-003	5.81089E-001	5.75666E-001	-2.81788E-002	-3.85996E-002	6.73860E-001	-4.32564E-002	-5.78291E-003	4.29358E-004	-5.81575E-002	-5.76147E-002	2.82023E-003	3.86319E-003	-6.74424E-002	4.32926E-003
	3	3	4.97316E-002	-1.00081E-001	0.00000E+000	-4.97721E-003	-9.94000E-001	3.51250E-002	2.64475E+001	11	...........	5.81250E-002	-4.41667E-003	5.81125E-001	5.75583E-001	-2.82083E-002	-3.87500E-002	6.73167E-001	-4.33333E-002	-5.81723E-003	4.42026E-004	-5.81598E-002	-5.76052E-002	2.82313E-003	3.87816E-003	-6.73715E-002	4.33686E-003
	4	4	4.93790E-002	-7.68343E-002	0.00000E+000	-3.79400E-003	-7.62835E-001	3.51269E-002	2.74843E+001	11	...........	5.82204E-002	-4.33139E-003	5.81250E-001	5.75503E-001	-2.81953E-002	-3.86144E-002	6.73967E-001	-4.32335E-002	-4.47333E-003	3.32799E-004	-4.46599E-002	-4.42184E-002	2.16636E-003	2.96691E-003	-5.17838E-002	3.32181E-003
	5	5	4.96757E-002	-5.00486E-002	0.00000E+000	-2.48620E-003	-4.96512E-001	3.51883E-002	2.89051E+001	11	...........	5.83200E-002	-4.38861E-003	5.81201E-001	5.75357E-001	-2.81947E-002	-3.86014E-002	6.74045E-001	-4.32528E-002	-2.91884E-003	2.19644E-004	-2.90883E-002	-2.87958E-002	1.41111E-003	1.93195E-003	-3.37350E-002	2.16474E-003
	6	6	4.97819E-002	-3.61395E-002	0.00000E+000	-1.79909E-003	-3.58221E-001	3.51641E-002	2.98909E+001	11	...........	5.82821E-002	-4.38861E-003	5.81273E-001	5.75532E-001	-2.81939E-002	-3.86003E-002	6.74030E-001	-4.32106E-002	-2.10629E-003	1.58602E-004	-2.10069E-002	-2.07994E-002	1.01891E-003	1.39500E-003	-2.43591E-002	1.56161E-003
	7	7	4.98366E-002	-2.78380E-002	0.00000E+000	-1.38735E-003	-2.75688E-001	3.52536E-002	3.06701E+001	11	...........	5.83937E-002	-4.41875E-003	5.81321E-001	5.75504E-001	-2.81835E-002	-3.86014E-002	6.74003E-001	-4.31462E-002	-1.62556E-003	1.23009E-004	-1.61828E-002	-1.60208E-002	7.84570E-004	1.07458E-003	-1.87629E-002	1.20110E-003
	8	8	4.98666E-002	-2.26722E-002	0.00000E+000	-1.13059E-003	-2.24325E-001	3.52642E-002	3.02753E+001	11	...........	5.84017E-002	-4.44569E-003	5.81237E-001	5.75557E-001	-2.81892E-002	-3.86033E-002	6.73939E-001	-4.32089E-002	-1.32410E-003	1.00794E-004	-1.31779E-002	-1.30492E-002	6.39112E-004	8.75224E-004	-1.52797E-002	9.79643E-004
	9	9	4.98875E-002	-1.90840E-002	0.00000E+000	-9.52055E-004	-1.88647E-001	3.53254E-002	3.11183E+001	11	...........	5.85199E-002	-4.51472E-003	5.81166E-001	5.75500E-001	-2.81937E-002	-3.86343E-002	6.73993E-001	-4.32551E-002	-1.11680E-003	8.61592E-005	-1.10910E-002	-1.09829E-002	5.38051E-004	7.37299E-004	-1.28625E-002	8.25483E-004
	10	10	4.98970E-002	-1.66079E-002	0.00000E+000	-8.28683E-004	-1.64023E-001	3.53607E-002	3.14123E+001	11	...........	5.85581E-002	-4.50500E-003	5.81222E-001	5.75202E-001	-2.82024E-002	-3.86510E-002	6.73888E-001	-4.32831E-002	-9.72524E-004	7.48184E-005	-9.65286E-003	-9.55287E-003	4.68381E-004	6.41910E-004	-1.11918E-002	7.18839E-004
	11	11	4.99033E-002	-1.47896E-002	0.00000E+000	-7.38048E-004	-1.45934E-001	3.53631E-002	3.13857E+001	11	...........	5.85606E-002	-4.49583E-003	5.81271E-001	5.75084E-001	-2.81843E-002	-3.86461E-002	6.73794E-001	-4.34565E-002	-8.66086E-004	6.64915E-005	-8.59676E-003	-8.50524E-003	4.16834E-004	5.71560E-004	-9.96513E-003	6.42704E-004
	12	12	4.99113E-002	-1.34022E-002	0.00000E+000	-6.68924E-004	-1.32141E-001	3.53755E-002	3.17057E+001	11	...........	5.85575E-002	-4.49736E-003	5.81245E-001	5.75137E-001	-2.81910E-002	-3.86383E-002	6.73926E-001	-4.34393E-002	-7.84801E-004	6.02747E-005	-7.78998E-003	-7.70813E-003	3.77822E-004	5.17840E-004	-9.03212E-003	5.82184E-004
	13	13	4.99139E-002	-1.23659E-002	0.00000E+000	-6.17232E-004	-1.21836E-001	3.54433E-002	3.19081E+001	11	...........	5.87194E-002	-4.58194E-003	5.81330E-001	5.75070E-001	-2.81817E-002	-3.86039E-002	6.74164E-001	-4.34592E-002	-7.26120E-004	5.66600E-005	-7.18868E-003	-7.11127E-003	3.48492E-004	4.77373E-004	-8.33665E-003	5.37413E-004
	14	14	4.99153E-002	-1.15135E-002	0.00000E+000	-5.74702E-004	-1.13356E-001	3.53694E-002	3.18241E+001	11	...........	5.85840E-002	-4.60556E-003	5.81228E-001	5.74997E-001	-2.81887E-002	-3.85989E-002	6.74182E-001	-4.33662E-002	-6.74510E-004	5.30263E-005	-6.69199E-003	-6.62025E-003	3.24552E-004	4.44410E-004	-7.76223E-003	4.99299E-004
	15	15	4.99175E-002	-1.08776E-002	0.00000E+000	-5.42983E-004	-1.07031E-001	3.54701E-002	3.22494E+001	11	...........	5.87826E-002	-4.46458E-003	5.81223E-001	5.74887E-001	-2.81696E-002	-3.85899E-002	6.74191E-001	-4.34461E-002	-6.39414E-004	4.85639E-005	-6.32231E-003	-6.25339E-003	3.06417E-004	4.19765E-004	-7.33358E-003	4.72589E-004
	16	16	4.99199E-002	-1.03443E-002	0.00000E+000	-5.16384E-004	-1.01749E-001	3.54737E-002	3.17579E+001	11	...........	5.87369E-002	-4.39486E-003	5.81201E-001	5.75064E-001	-2.81871E-002	-3.86175E-002	6.74223E-001	-4.34364E-002	-6.07590E-004	4.54616E-005	-6.01210E-003	-5.94861E-003	2.91574E-004	3.99469E-004	-6.97434E-003	4.49317E-004
	17	17	4.99204E-002	-9.83942E-003	0.00000E+000	-4.91188E-004	-9.67413E-002	3.54120E-002	3.18671E+001	11	...........	5.86553E-002	-4.37750E-003	5.80970E-001	5.75003E-001	-2.81632E-002	-3.86244E-002	6.74123E-001	-4.33904E-002	-5.77134E-004	4.30721E-005	-5.71641E-003	-5.65770E-003	2.77110E-004	3.80042E-004	-6.63298E-003	4.26937E-004
	18	18	4.99220E-002	-9.49306E-003	0.00000E+000	-4.73913E-004	-9.32893E-002	3.55392E-002	3.22388E+001	11	...........	5.88894E-002	-4.50944E-003	5.81019E-001	5.75009E-001	-2.81696E-002	-3.86489E-002	6.74159E-001	-4.33411E-002	-5.59041E-004	4.28084E-005	-5.51564E-003	-5.45859E-003	2.67415E-004	3.66896E-004	-6.39983E-003	4.11440E-004
	19	19	4.99209E-002	-9.12508E-003	0.00000E+000	-4.55533E-004	-8.96193E-002	3.53747E-002	3.14698E+001	11	...........	5.85825E-002	-4.37694E-003	5.80923E-001	5.75010E-001	-2.81942E-002	-3.86686E-002	6.74081E-001	-4.32553E-002	-5.34570E-004	3.99400E-005	-5.30097E-003	-5.24701E-003	2.57274E-004	3.52854E-004	-6.15105E-003	3.94708E-004
	20	20	4.99232E-002	-8.85551E-003	0.00000E+000	-4.42095E-004	-8.69593E-002	3.53907E-002	3.20503E+001	11	...........	5.88451E-002	-4.32889E-003	5.80996E-001	5.75068E-001	-2.82087E-002	-3.86407E-002	6.74177E-001	-4.34203E-002	-5.21104E-004	3.83345E-005	-5.14502E-003	-5.09252E-003	2.49803E-004	3.42183E-004	-5.97018E-003	3.84509E-004
	21	21	4.99229E-002	-8.63012E-003	0.00000E+000	-4.30841E-004	-8.47127E-002	3.53603E-002	3.23900E+001	11	...........	5.89025E-002	-4.35556E-003	5.81019E-001	5.75202E-001	-2.82560E-002	-3.86415E-002	6.74271E-001	-4.35417E-002	-5.08336E-004	3.75890E-005	-5.01426E-003	-4.96406E-003	2.43853E-004	3.33481E-004	-5.81904E-003	3.75770E-004
	22	22	4.99233E-002	-8.38365E-003	0.00000E+000	-4.18540E-004	-8.22573E-002	3.53278E-002	3.23759E+001	11	...........	5.88317E-002	-4.35861E-003	5.80979E-001	5.75346E-001	-2.82422E-002	-3.86608E-002	6.74247E-001	-4.34179E-002	-4.93224E-004	3.65411E-005	-4.87072E-003	-4.82349E-003	2.36773E-004	3.24119E-004	-5.65265E-003	3.64000E-004
	23	23	4.99231E-002	-8.17433E-003	0.00000E+000	-4.08088E-004	-8.01733E-002	3.53317E-002	3.22637E+001	11	...........	5.88817E-002	-4.37750E-003	5.80825E-001	5.75324E-001	-2.82394E-002	-3.86482E-002	6.74194E-001	-4.34022E-002	-4.81318E-004	3.57831E-005	-4.74785E-003	-4.70289E-003	2.30839E-004	3.15923E-004	-5.51108E-003	3.54784E-004
	24	24	4.99237E-002	-7.97265E-003	0.00000E+000	-3.98024E-004	-7.81660E-002	3.53420E-002	3.24104E+001	11	...........	5.89032E-002	-4.41333E-003	5.80604E-001	5.75181E-001	-2.82465E-002	-3.86553E-002	6.74243E-001	-4.35689E-002	-4.69615E-004	3.51860E-005	-4.62895E-003	-4.58571E-003	2.25200E-004	3.08185E-004	-5.37550E-003	3.47359E-004
	25	25	4.99224E-002	-7.75363E-003	0.00000E+000	-3.87080E-004	-7.60080E-002	3.53515E-002	3.19617E+001	11	...........	5.89061E-002	-4.38458E-003	5.80576E-001	5.75112E-001	-2.82396E-002	-3.86565E-002	6.74329E-001	-4.35733E-002	-4.56736E-004	3.39964E-005	-4.50157E-003	-4.45921E-003	2.18959E-004	2.99728E-004	-5.22849E-003	3.37851E-004
	26	26	4.99252E-002	-7.55134E-003	0.00000E+000	-3.77002E-004	-7.39967E-002	3.52498E-002	3.16409E+001	11	...........	5.87456E-002	-4.41819E-003	5.80580E-001	5.75322E-001	-2.82326E-002	-3.86969E-002	6.74196E-001	-4.35336E-002	-4.43608E-004	3.33633E-005	-4.38416E-003	-4.34446E-003	2.13194E-004	2.92214E-004	-5.09109E-003	3.28737E-004
	27	27	4.99242E-002	-7.49570E-003	0.00000E+000	-3.74217E-004	-7.34407E-002	3.55178E-002	3.23300E+001	11	...........	5.91964E-002	-4.45875E-003	5.80682E-001	5.75518E-001	-2.82365E-002	-3.87303E-002	6.74056E-001	-4.34019E-002	-4.43718E-004	3.34215E-005	-4.35262E-003	-4.31391E-003	2.11653E-004	2.90311E-004	-5.05253E-003	3.25328E-004
	28	28	4.99243E-002	-7.31769E-003	0.00000E+000	-3.65330E-004	-7.16693E-002	3.53669E-002	3.23419E+001	11	...........	5.89135E-002	-4.42000E-003	5.80853E-001	5.75553E-001	-2.82444E-002	-3.87326E-002	6.74029E-001	-4.32535E-002	-4.31110E-004	3.23442E-005	-4.25050E-003	-4.21172E-003	2.06684E-004	2.83433E-004	-4.93233E-003	3.16515E-004
	29	29	4.99253E-002	-7.17863E-003	0.00000E+000	-3.58395E-004	-7.02727E-002	3.53932E-002	3.25721E+001	11	...........	5.89654E-002	-4.36222E-003	5.81058E-001	5.75406E-001	-2.82612E-002	-3.87412E-002	6.74089E-001	-4.33832E-002	-4.23291E-004	3.13148E-005	-4.17120E-003	-4.13063E-003	2.02877E-004	2.78109E-004	-4.83904E-003	3.11432E-004
	30	30	4.99236E-002	-7.07391E-003	0.00000E+000	-3.53155E-004	-6.92300E-002	3.54690E-002	3.25902E+001	11	...........	5.91035E-002	-4.33417E-003	5.81115E-001	5.75342E-001	-2.82710E-002	-3.87882E-002	6.74258E-001	-4.35385E-002	-4.18093E-004	3.06595E-005	-4.11076E-003	-4.06992E-003	1.99986E-004	2.74384E-004	-4.76964E-003	3.07987E-004
	31	31	4.99245E-002	-6.91025E-003	0.00000E+000	-3.44990E-004	-6.76000E-002	3.53689E-002	3.24508E+001	11	...........	5.89365E-002	-4.37861E-003	5.81150E-001	5.75480E-001	-2.82696E-002	-3.87919E-002	6.74291E-001	-4.35846E-002	-4.07266E-004	3.02573E-005	-4.01589E-003	-3.97671E-003	1.95350E-004	2.68062E-004	-4.65952E-003	3.01180E-004
	32	32	4.99251E-002	-6.79791E-003	0.00000E+000	-3.39387E-004	-6.64747E-002	3.54057E-002	3.20305E+001	11	...........	5.90015E-002	-4.35292E-003	5.81103E-001	5.75590E-001	-2.82162E-002	-3.88215E-002	6.74271E-001	-4.35694E-002	-4.01087E-004	2.95907E-005	-3.95029E-003	-3.91281E-003	1.91812E-004	2.63905E-004	-4.58363E-003	2.96181E-004
	33	33	4.99246E-002	-6.68393E-003	0.00000E+000	-3.33693E-004	-6.53340E-002	3.54071E-002	3.26621E+001	11	...........	5.90269E-002	-4.39236E-003	5.81107E-001	5.75546E-001	-2.82092E-002	-3.87899E-002	6.74346E-001	-4.35994E-002	-3.94532E-004	2.93582E-005	-3.88408E-003	-3.84691E-003	1.88548E-004	2.59269E-004	-4.50728E-003	2.91416E-004
	34	34	4.99250E-002	-6.61012E-003	0.00000E+000	-3.30010E-004	-6.45953E-002	3.54890E-002	3.28439E+001	11	...........	5.91172E-002	-4.35653E-003	5.81044E-001	5.75412E-001	-2.81840E-002	-3.87672E-002	6.74324E-001	-4.36158E-002	-3.90772E-004	2.87972E-005	-3.84077E-003	-3.80355E-003	1.86300E-004	2.56256E-004	-4.45736E-003	2.88306E-004
	35	35	4.99247E-002	-6.49699E-003	0.00000E+000	-3.24361E-004	-6.34847E-002	3.54438E-002	3.29427E+001	11	...........	5.90672E-002	-4.37611E-003	5.80944E-001	5.75356E-001	-2.81996E-002	-3.87133E-002	6.74241E-001	-4.36011E-002	-3.83759E-004	2.84316E-005	-3.77439E-003	-3.73808E-003	1.83212E-004	2.51520E-004	-4.38054E-003	2.83276E-004
	36	36	4.99245E-002	-6.37597E-003	0.00000E+000	-3.18317E-004	-6.23013E-002	3.55381E-002	3.22785E+001	11	...........	5.92122E-002	-4.35861E-003	5.81019E-001	5.75448E-001	-2.82046E-002	-3.86785E-002	6.74254E-001	-4.35156E-002	-3.77535E-004	2.77904E-005	-3.70456E-003	-3.66904E-003	1.79832E-004	2.46613E-004	-4.29902E-003	2.77454E-004
	37	37	4.99258E-002	-6.26736E-003	0.00000E+000	-3.12903E-004	-6.12200E-002	3.54346E-002	3.28457E+001	11	...........	5.90658E-002	-4.34542E-003	5.80942E-001	5.75239E-001	-2.81801E-002	-3.86992E-002	6.74373E-001	-4.35217E-002	-3.70187E-004	2.72343E-005	-3.64097E-003	-3.60523E-003	1.76615E-004	2.42541E-004	-4.22654E-003	2.72766E-004
	38	38	4.99246E-002	-6.19049E-003	0.00000E+000	-3.09058E-004	-6.04520E-002	3.54825E-002	3.29677E+001	11	...........	5.91183E-002	-4.34250E-003	5.80767E-001	5.75248E-001	-2.82019E-002	-3.86808E-002	6.74414E-001	-4.34843E-002	-3.65971E-004	2.68822E-005	-3.59523E-003	-3.56107E-003	1.74584E-004	2.39453E-004	-4.17495E-003	2.69189E-004
	39	39	4.99246E-002	-6.07664E-003	0.00000E+000	-3.03374E-004	-5.93193E-002	3.55059E-002	3.23765E+001	11	...........	5.91685E-002	-4.31028E-003	5.80838E-001	5.75511E-001	-2.82437E-002	-3.86901E-002	6.74270E-001	-4.32660E-002	-3.59545E-004	2.61920E-005	-3.52954E-003	-3.49717E-003	1.71627E-004	2.35106E-004	-4.09730E-003	2.62912E-004
	40	40	4.99258E-002	-5.98838E-003	0.00000E+000	-2.98974E-004	-5.84393E-002	3.54899E-002	3.24513E+001	11	...........	5.91261E-002	-4.35264E-003	5.80821E-001	5.75554E-001	-2.82337E-002	-3.86610E-002	6.74233E-001	-4.31990E-002	-3.54069E-004	2.60652E-005	-3.47817E-003	-3.44663E-003	1.69074E-004	2.31516E-004	-4.03756E-003	2.58692E-004
	41	41	4.99253E-002	-5.93485E-003	0.00000E+000	-2.96299E-004	-5.79013E-002	3.55782E-002	3.30337E+001	11	...........	5.92821E-002	-4.35819E-003	5.80813E-001	5.75355E-001	-2.81903E-002	-3.86574E-002	6.74224E-001	-4.33903E-002	-3.51830E-004	2.58652E-005	-3.44704E-003	-3.41464E-003	1.67305E-004	2.29426E-004	-4.00142E-003	2.57515E-004
	42	42	4.99247E-002	-5.84413E-003	0.00000E+000	-2.91767E-004	-5.69987E-002	3.54725E-002	3.27024E+001	11	...........	5.90982E-002	-4.33431E-003	5.80812E-001	5.75318E-001	-2.81710E-002	-3.86642E-002	6.74109E-001	-4.33999E-002	-3.45378E-004	2.53303E-005	-3.39435E-003	-3.36224E-003	1.64635E-004	2.25959E-004	-3.93959E-003	2.53635E-004
	43	43	4.99248E-002	-5.74252E-003	0.00000E+000	-2.86695E-004	-5.59940E-002	3.55343E-002	3.28809E+001	11	...........	5.92204E-002	-4.32125E-003	5.80700E-001	5.75408E-001	-2.82001E-002	-3.86799E-002	6.74149E-001	-4.34331E-002	-3.40075E-004	2.48149E-005	-3.33468E-003	-3.30430E-003	1.61940E-004	2.22120E-004	-3.87132E-003	2.49415E-004
	44	44	4.99251E-002	-5.66152E-003	0.00000E+000	-2.82652E-004	-5.51853E-002	3.55777E-002	3.23282E+001	11	...........	5.92735E-002	-4.37111E-003	5.80632E-001	5.75396E-001	-2.82004E-002	-3.86890E-002	6.74047E-001	-4.34554E-002	-3.35578E-004	2.47471E-005	-3.28726E-003	-3.25762E-003	1.59657E-004	2.19039E-004	-3.81613E-003	2.46024E-004
	45	45	4.99255E-002	-5.59550E-003	0.00000E+000	-2.79358E-004	-5.45233E-002	3.55288E-002	3.27531E+001	11	...........	5.92106E-002	-4.38417E-003	5.80619E-001	5.75322E-001	-2.82318E-002	-3.86561E-002	6.74056E-001	-4.34189E-002	-3.31313E-004	2.45316E-005	-3.24885E-003	-3.21921E-003	1.57971E-004	2.16300E-004	-3.77168E-003	2.42950E-004
	46	46	4.99254E-002	-5.53643E-003	0.00000E+000	-2.76408E-004	-5.39380E-002	3.56206E-002	3.33765E+001	11	...........	5.93801E-002	-4.38278E-003	5.80563E-001	5.75325E-001	-2.81733E-002	-3.86489E-002	6.74239E-001	-4.34621E-002	-3.28754E-004	2.42649E-005	-3.21425E-003	-3.18524E-003	1.55980E-004	2.13977E-004	-3.73288E-003	2.40625E-004
	47	47	4.99253E-002	-5.46057E-003	0.00000E+000	-2.72620E-004	-5.31800E-002	3.55981E-002	3.29233E+001	11	...........	5.93079E-002	-4.37431E-003	5.80537E-001	5.75474E-001	-2.81103E-002	-3.86485E-002	6.74210E-001	-4.35119E-002	-3.23855E-004	2.38862E-005	-3.17006E-003	-3.14241E-003	1.53498E-004	2.11043E-004	-3.68157E-003	2.37600E-004
	48	48	4.99250E-002	-5.36867E-003	0.00000E+000	-2.68031E-004	-5.22700E-002	3.55707E-002	3.27403E+001	11	...........	5.92889E-002	-4.37222E-003	5.80499E-001	5.75490E-001	-2.81314E-002	-3.86437E-002	6.74311E-001	-4.34469E-002	-3.18302E-004	2.34730E-005	-3.11650E-003	-3.08962E-003	1.51028E-004	2.07465E-004	-3.62015E-003	2.33252E-004
	49	49	4.99247E-002	-5.30262E-003	0.00000E+000	-2.64732E-004	-5.16120E-002	3.55433E-002	3.26953E+001	11	...........	5.92322E-002	-4.34792E-003	5.80475E-001	5.75548E-001	-2.81214E-002	-3.86272E-002	6.74393E-001	-4.33537E-002	-3.14086E-004	2.30554E-005	-3.07804E-003	-3.05192E-003	1.49117E-004	2.04826E-004	-3.57605E-003	2.29889E-004
	50	50	4.99245E-002	-5.20704E-003	0.00000E+000	-2.59959E-004	-5.06773E-002	3.56919E-002	3.17095E+001	11	...........	5.94679E-002	-4.38847E-003	5.80515E-001	5.75359E-001	-2.81700E-002	-3.86162E-002	6.74415E-001	-4.35112E-002	-3.09652E-004	2.28509E-005	-3.02277E-003	-2.99592E-003	1.46682E-004	2.01076E-004	-3.51171E-003	2.26565E-004
	51	51	4.99269E-002	-5.15230E-003	0.00000E+000	-2.57238E-004	-5.01327E-002	3.55151E-002	3.24205E+001	11	...........	5.91772E-002	-4.32889E-003	5.80640E-001	5.75171E-001	-2.81579E-002	-3.86046E-002	6.74379E-001	-4.34825E-002	-3.04899E-004	2.23037E-005	-2.99163E-003	-2.96345E-003	1.45078E-004	1.98902E-004	-3.47461E-003	2.24035E-004
	52	52	4.99254E-002	-5.10037E-003	0.00000E+000	-2.54638E-004	-4.96153E-002	3.56927E-002	3.22855E+001	11	...........	5.94865E-002	-4.37361E-003	5.80751E-001	5.75081E-001	-2.81222E-002	-3.86058E-002	6.74409E-001	-4.34703E-002	-3.03403E-004	2.23070E-005	-2.96205E-003	-2.93312E-003	1.43434E-004	1.96904E-004	-3.43973E-003	2.21714E-004
	53	52.3	4.99230E-002	-5.06228E-003	0.00000E+000	-2.52724E-004	-4.92422E-002	3.57003E-002	3.18361E+001	11	...........	5.94935E-002	-4.41157E-003	5.80818E-001	5.75054E-001	-2.81148E-002	-3.86144E-002	6.74451E-001	-4.35056E-002	-3.01173E-004	2.23326E-005	-2.94026E-003	-2.91108E-003	1.42325E-004	1.95476E-004	-3.41426E-003	2.20237E-004
STARTTIMEOFFSET	QUANT	933396	Start Time Offset (s)
