EXPLAIN
TAG	PWR800_DISCHARGE
TITLE	LABEL	PWR Discharge	Test Identifier
DATE	LABEL	10/14/2022	Date
TIME	LABEL	23:01:58	Time
NOTES	NOTES	1	Notes...
	
PSTAT	PSTAT	REF3000-21114	Potentiostat
CAPACITY	QUANT	5.30000E-002	Capacity (A-hr)
CELLTYPE	SELECTOR	1	Cell Type
WORKINGCONNECTION	SELECTOR	0	Working Connection
MAXDISCHARGETIME	VARIABLEANDUNITS	7.20000E+003	s	2.00000E+000	hour(s)	Max Discharge Time
DISCHARGEMODE	MULTIPARAM	0	1.00000E-001	Discharge Mode	Constant Current	Amp(s)
VOLTAGEFINISH	TWOPARAM	T	5.00000E-003	7.20000E+003	Voltage Finish	I (A) <	Max Time(s)
SAMPLETIME	QUANT	1.00000E+000	Sample Period (s)
DISCHARGESTOPAT1	MULTIPARAM	1	5.00000E-002	Stop At 1	|Voltage| < Limit	V
DISCHARGESTOPAT2	MULTIPARAM	0	0.00000E+000	Stop At 2	None	N/A
AESELECTOR	AESELECTOR	0x1	T	Set Limits	AE Channels
AESBHCSELECTOR	TOGGLE	F	Save Both Half Cells
IRCOMP	TOGGLE	F	IR Measure
EOC	QUANT	0.5716372	Open Circuit (V)
SEQUENCER	TOGGLE	TRUE	Run as Sequence
PSTATMODEL	IQUANT	5	Pstat Model
PSTATSECTION	LABEL	REF3000-21114	Pstat Section
PSTATSERIALNO	LABEL	21114	Pstat Serial Number
CTRLMODE	IQUANT	0	Control Mode
ELECTROMETER	IQUANT	0	RE=0 or CS=1
IESTAB	IQUANT	0	I/E Stability
CASPEED	IQUANT	4	Control Amp Speed
CONVENTION	IQUANT	1	Current Convention
ICHRANGE	IQUANT	2	Ich Range
ICHRANGEMODE	TOGGLE	T	Ich Auto Range
ICHOFFSETENABLE	TOGGLE	F	Ich Offset Enable
ICHOFFSET	QUANT	0	Ich Offset (V)
ICHFILTER	IQUANT	1	Ich Filter
VCHRANGE	IQUANT	3	Vch Range
VCHRANGEMODE	TOGGLE	T	Vch Auto Range
VCHOFFSETENABLE	TOGGLE	F	Vch Offset Enable
VCHOFFSET	QUANT	0	Vch Offset (V)
VCHFILTER	IQUANT	1	Vch Filter
ACHRANGE	IQUANT	2	Ach Range
ACHOFFSETENABLE	TOGGLE	F	Ach Offset Enable
ACHOFFSET	QUANT	0	Ach Offset (V)
ACHFILTER	IQUANT	1	Ach Filter
IERANGELOWERLIMIT	IQUANT	9	I/E Range Lower Limit
IERANGEMODE	TOGGLE	F	I/E AutoRange
IERANGE	IQUANT	9	I/E Range
POSFEEDENABLE	TOGGLE	F	Positive Feedback IR Comp
POSFEEDRESISTANCE	QUANT	0	Positive Feedback Resistance (ohm)
ACHSELECT	IQUANT	1	Ach Select
SENSECABLEID	IQUANT	13	Sense Cable ID
PWRCABLEID	IQUANT	13	Power Cable ID
DCCALDATE	LABEL		DC Calibration Date
ACCALDATE	LABEL		AC Calibration Date
THERMOSELECT	IQUANT	1	Thermo Select
FRAMEWORKVERSION	LABEL	7.8.6	Framework Version
INSTRUMENTVERSION	LABEL	4.50	Instrument Version
COMPLIANCEVOLTAGE	IQUANT	0	Compliance Voltage
CURVE	TABLE	232
	Pt	T	Vf	Im	Vu	Pwr	Sig	Ach	Temp	IERange	Over	Vf1	Vf2	Vf3	Vf4	Vf5	Vf6	Vf7	Vf8	Pwr1	Pwr2	Pwr3	Pwr4	Pwr5	Pwr6	Pwr7	Pwr8
	#	s	V	A	V	W	V	V	deg C	#	bits	V	V	V	V	V	V	V	V	W	W	W	W	W	W	W	W
	0	1	3.45020E-001	-1.00091E-001	0.00000E+000	-3.45334E-002	-9.94000E-001	3.61617E-002	3.12216E+001	11	...........	6.00176E-002	-5.20361E-003	6.09293E-001	5.34658E-001	-2.60978E-002	-3.72125E-002	7.06617E-001	-4.35012E-002	-6.00722E-003	5.20834E-004	-6.09847E-002	-5.35145E-002	2.61215E-003	3.72463E-003	-7.07260E-002	4.35408E-003
	1	2	2.57742E-001	-1.00091E-001	0.00000E+000	-2.57977E-002	-9.94000E-001	3.62553E-002	3.05625E+001	11	...........	6.02074E-002	-5.25458E-003	6.09316E-001	5.34541E-001	-2.60915E-002	-3.72122E-002	7.06667E-001	-4.34854E-002	-6.02622E-003	5.25937E-004	-6.09871E-002	-5.35028E-002	2.61153E-003	3.72461E-003	-7.07311E-002	4.35250E-003
	2	3	1.91630E-001	-1.00092E-001	0.00000E+000	-1.91807E-002	-9.94000E-001	3.61484E-002	2.97684E+001	11	...........	6.00199E-002	-5.18931E-003	6.09403E-001	5.34632E-001	-2.60694E-002	-3.72256E-002	7.06743E-001	-4.34011E-002	-6.00753E-003	5.19410E-004	-6.09966E-002	-5.35126E-002	2.60935E-003	3.72599E-003	-7.07395E-002	4.34412E-003
	3	4	1.39380E-001	-1.00092E-001	0.00000E+000	-1.39508E-002	-9.94000E-001	3.61741E-002	2.96681E+001	11	...........	6.00751E-002	-5.23167E-003	6.09406E-001	5.34626E-001	-2.60578E-002	-3.72429E-002	7.06800E-001	-4.34614E-002	-6.01304E-003	5.23648E-004	-6.09966E-002	-5.35118E-002	2.60817E-003	3.72772E-003	-7.07450E-002	4.35014E-003
	4	5	9.64957E-002	-1.00093E-001	0.00000E+000	-9.65851E-003	-9.94000E-001	3.61360E-002	2.89061E+001	11	...........	6.00126E-002	-5.22528E-003	6.09351E-001	5.34601E-001	-2.60467E-002	-3.72701E-002	7.06762E-001	-4.36879E-002	-6.00682E-003	5.23012E-004	-6.09916E-002	-5.35096E-002	2.60708E-003	3.73047E-003	-7.07417E-002	4.37284E-003
	5	5.85833	6.26049E-002	-1.00092E-001	0.00000E+000	-6.26628E-003	-9.94000E-001	3.61013E-002	2.85150E+001	11	...........	5.99560E-002	-5.19482E-003	6.09456E-001	5.34583E-001	-2.60625E-002	-3.72354E-002	7.06822E-001	-4.37820E-002	-6.00114E-003	5.19962E-004	-6.10019E-002	-5.35077E-002	2.60866E-003	3.72699E-003	-7.07475E-002	4.38225E-003
	6	6	4.97319E-002	-9.85751E-002	0.00000E+000	-4.90233E-003	-9.78908E-001	3.62253E-002	2.83938E+001	11	...........	6.01451E-002	-5.17941E-003	6.09598E-001	5.34594E-001	-2.59863E-002	-3.72863E-002	7.06794E-001	-4.37069E-002	-5.92881E-003	5.10561E-004	-6.00912E-002	-5.26977E-002	2.56160E-003	3.67550E-003	-6.96723E-002	4.30841E-003
	7	7	4.97982E-002	-8.83113E-002	0.00000E+000	-4.39775E-003	-8.76864E-001	3.62612E-002	2.87456E+001	11	...........	6.01854E-002	-5.22500E-003	6.09531E-001	5.34598E-001	-2.60662E-002	-3.72696E-002	7.06732E-001	-4.35979E-002	-5.31505E-003	4.61427E-004	-5.38285E-002	-4.72111E-002	2.30195E-003	3.29133E-003	-6.24125E-002	3.85019E-003
	8	8	4.99044E-002	-7.83768E-002	0.00000E+000	-3.91135E-003	-7.78102E-001	3.63821E-002	2.97772E+001	11	...........	6.03769E-002	-5.19000E-003	6.09559E-001	5.34542E-001	-2.60775E-002	-3.72687E-002	7.06755E-001	-4.34628E-002	-4.73215E-003	4.06776E-004	-4.77753E-002	-4.18957E-002	2.04387E-003	2.92101E-003	-5.53933E-002	3.40647E-003
	9	9	4.99345E-002	-7.27403E-002	0.00000E+000	-3.63225E-003	-7.22065E-001	3.64822E-002	3.01161E+001	11	...........	6.05768E-002	-5.17431E-003	6.09503E-001	5.34506E-001	-2.60693E-002	-3.72675E-002	7.06874E-001	-4.34576E-002	-4.40637E-003	3.76380E-004	-4.43354E-002	-3.88801E-002	1.89629E-003	2.71085E-003	-5.14182E-002	3.16112E-003
	10	10	4.99360E-002	-6.83310E-002	0.00000E+000	-3.41218E-003	-6.78234E-001	3.64960E-002	3.00643E+001	11	...........	6.06206E-002	-5.18486E-003	6.09309E-001	5.34419E-001	-2.60846E-002	-3.72625E-002	7.06869E-001	-4.35168E-002	-4.14227E-003	3.54287E-004	-4.16347E-002	-3.65174E-002	1.78239E-003	2.54619E-003	-4.83011E-002	2.97355E-003
	11	11	4.99374E-002	-6.54080E-002	0.00000E+000	-3.26631E-003	-6.49170E-001	3.66163E-002	2.98977E+001	11	...........	6.08056E-002	-5.27847E-003	6.09455E-001	5.34269E-001	-2.60878E-002	-3.72585E-002	7.06706E-001	-4.34699E-002	-3.97717E-003	3.45254E-004	-3.98632E-002	-3.49455E-002	1.70635E-003	2.43700E-003	-4.62242E-002	2.84328E-003
	12	12	4.99827E-002	-6.27633E-002	0.00000E+000	-3.13708E-003	-6.22871E-001	3.66236E-002	3.02940E+001	11	...........	6.07911E-002	-5.34750E-003	6.09432E-001	5.34246E-001	-2.60621E-002	-3.72532E-002	7.06747E-001	-4.35007E-002	-3.81545E-003	3.35627E-004	-3.82499E-002	-3.35310E-002	1.63574E-003	2.33813E-003	-4.43578E-002	2.73025E-003
	13	13	4.99548E-002	-6.21400E-002	0.00000E+000	-3.10419E-003	-6.16668E-001	3.67776E-002	3.04829E+001	11	...........	6.10300E-002	-5.38014E-003	6.09463E-001	5.34208E-001	-2.60435E-002	-3.72719E-002	7.06937E-001	-4.36124E-002	-3.79240E-003	3.34322E-004	-3.78720E-002	-3.31957E-002	1.61834E-003	2.31608E-003	-4.39291E-002	2.71007E-003
	14	14	4.99955E-002	-6.05561E-002	0.00000E+000	-3.02753E-003	-6.00931E-001	3.68487E-002	3.10219E+001	11	...........	6.11462E-002	-5.27750E-003	6.09455E-001	5.34146E-001	-2.60432E-002	-3.72714E-002	7.06852E-001	-4.37274E-002	-3.70278E-003	3.19585E-004	-3.69062E-002	-3.23458E-002	1.57707E-003	2.25701E-003	-4.28042E-002	2.64796E-003
	15	15	4.99720E-002	-5.96357E-002	0.00000E+000	-2.98011E-003	-5.91779E-001	3.69101E-002	3.11965E+001	11	...........	6.12378E-002	-5.27417E-003	6.09445E-001	5.34078E-001	-2.60583E-002	-3.72542E-002	7.06790E-001	-4.37544E-002	-3.65196E-003	3.14528E-004	-3.63447E-002	-3.18501E-002	1.55401E-003	2.22168E-003	-4.21499E-002	2.60933E-003
	16	16	4.99606E-002	-5.82499E-002	0.00000E+000	-2.91020E-003	-5.78009E-001	3.69930E-002	3.04712E+001	11	...........	6.13918E-002	-5.35528E-003	6.09367E-001	5.33950E-001	-2.60511E-002	-3.72569E-002	7.06744E-001	-4.37340E-002	-3.57607E-003	3.11945E-004	-3.54956E-002	-3.11026E-002	1.51748E-003	2.17021E-003	-4.11678E-002	2.54750E-003
	17	17	4.99864E-002	-5.64533E-002	0.00000E+000	-2.82190E-003	-5.60147E-001	3.69337E-002	3.07920E+001	11	...........	6.12825E-002	-5.34014E-003	6.09323E-001	5.33818E-001	-2.60401E-002	-3.72728E-002	7.06774E-001	-4.37790E-002	-3.45960E-003	3.01469E-004	-3.43983E-002	-3.01358E-002	1.47005E-003	2.10417E-003	-3.98998E-002	2.47147E-003
	18	18	4.99827E-002	-5.67439E-002	0.00000E+000	-2.83621E-003	-5.63028E-001	3.71487E-002	3.14630E+001	11	...........	6.16418E-002	-5.32681E-003	6.09454E-001	5.33970E-001	-2.60132E-002	-3.72706E-002	7.06835E-001	-4.38069E-002	-3.49780E-003	3.02264E-004	-3.45828E-002	-3.02995E-002	1.47609E-003	2.11488E-003	-4.01086E-002	2.48578E-003
	19	19	4.99778E-002	-5.60769E-002	0.00000E+000	-2.80260E-003	-5.56398E-001	3.72203E-002	3.15972E+001	11	...........	6.17542E-002	-5.39486E-003	6.09492E-001	5.34146E-001	-2.60003E-002	-3.72540E-002	7.06823E-001	-4.37664E-002	-3.46298E-003	3.02527E-004	-3.41784E-002	-2.99532E-002	1.45801E-003	2.08909E-003	-3.96364E-002	2.45428E-003
	20	20	4.99654E-002	-5.51694E-002	0.00000E+000	-2.75656E-003	-5.47361E-001	3.71282E-002	3.10534E+001	11	...........	6.18100E-002	-5.22861E-003	6.09380E-001	5.34301E-001	-2.60215E-002	-3.72554E-002	7.06778E-001	-4.37218E-002	-3.41002E-003	2.88459E-004	-3.36191E-002	-2.94771E-002	1.43559E-003	2.05536E-003	-3.89925E-002	2.41211E-003
	21	21	4.99908E-002	-5.41141E-002	0.00000E+000	-2.70521E-003	-5.36875E-001	3.70989E-002	3.12543E+001	11	...........	6.18746E-002	-5.19014E-003	6.09457E-001	5.34175E-001	-2.60224E-002	-3.72442E-002	7.06755E-001	-4.36424E-002	-3.34829E-003	2.80860E-004	-3.29802E-002	-2.89064E-002	1.40818E-003	2.01543E-003	-3.82454E-002	2.36167E-003
	22	22	4.99802E-002	-5.31178E-002	0.00000E+000	-2.65484E-003	-5.26977E-001	3.69543E-002	3.07807E+001	11	...........	6.16571E-002	-5.28264E-003	6.09429E-001	5.34035E-001	-2.60269E-002	-3.72426E-002	7.06818E-001	-4.37194E-002	-3.27509E-003	2.80602E-004	-3.23715E-002	-2.83668E-002	1.38249E-003	1.97825E-003	-3.75446E-002	2.32228E-003
	23	23	4.99843E-002	-5.32283E-002	0.00000E+000	-2.66058E-003	-5.28072E-001	3.73116E-002	3.16578E+001	11	...........	6.22340E-002	-5.20431E-003	6.09467E-001	5.34032E-001	-2.60217E-002	-3.72440E-002	7.06881E-001	-4.36654E-002	-3.31261E-003	2.77016E-004	-3.24409E-002	-2.84256E-002	1.38509E-003	1.98244E-003	-3.76261E-002	2.32424E-003
	24	24	4.99763E-002	-5.27771E-002	0.00000E+000	-2.63761E-003	-5.23578E-001	3.72491E-002	3.16234E+001	11	...........	6.21494E-002	-5.21292E-003	6.09612E-001	5.34073E-001	-2.60156E-002	-3.72522E-002	7.06950E-001	-4.37229E-002	-3.28007E-003	2.75123E-004	-3.21735E-002	-2.81868E-002	1.37303E-003	1.96606E-003	-3.73107E-002	2.30757E-003
	25	25	4.99762E-002	-5.15966E-002	0.00000E+000	-2.57860E-003	-5.11862E-001	3.72415E-002	3.13404E+001	11	...........	6.21078E-002	-5.23167E-003	6.09614E-001	5.34129E-001	-2.60181E-002	-3.72533E-002	7.06972E-001	-4.36281E-002	-3.20455E-003	2.69936E-004	-3.14540E-002	-2.75593E-002	1.34244E-003	1.92215E-003	-3.64774E-002	2.25106E-003
	26	26	4.99831E-002	-5.12947E-002	0.00000E+000	-2.56386E-003	-5.08874E-001	3.74408E-002	3.18705E+001	11	...........	6.24394E-002	-5.23639E-003	6.09649E-001	5.34025E-001	-2.60306E-002	-3.72676E-002	7.06853E-001	-4.34169E-002	-3.20281E-003	2.68599E-004	-3.12717E-002	-2.73927E-002	1.33523E-003	1.91163E-003	-3.62578E-002	2.22706E-003
	27	27	4.99655E-002	-5.02336E-002	0.00000E+000	-2.50995E-003	-4.98326E-001	3.73437E-002	3.11002E+001	11	...........	6.22749E-002	-5.25972E-003	6.09543E-001	5.33937E-001	-2.60554E-002	-3.72604E-002	7.06941E-001	-4.36011E-002	-3.12829E-003	2.64215E-004	-3.06195E-002	-2.68215E-002	1.30886E-003	1.87172E-003	-3.55122E-002	2.19024E-003
	28	28	5.00035E-002	-4.99727E-002	0.00000E+000	-2.49881E-003	-4.95720E-001	3.74679E-002	3.14568E+001	11	...........	6.24757E-002	-5.20236E-003	6.09458E-001	5.33944E-001	-2.60768E-002	-3.72524E-002	7.06935E-001	-4.36643E-002	-3.12208E-003	2.59976E-004	-3.04563E-002	-2.66826E-002	1.30313E-003	1.86160E-003	-3.53275E-002	2.18202E-003
	29	29	4.99787E-002	-4.95182E-002	0.00000E+000	-2.47486E-003	-4.91204E-001	3.73361E-002	3.19143E+001	11	...........	6.24125E-002	-5.24292E-003	6.09446E-001	5.34004E-001	-2.61107E-002	-3.72457E-002	7.06915E-001	-4.34796E-002	-3.09055E-003	2.59620E-004	-3.01787E-002	-2.64429E-002	1.29295E-003	1.84434E-003	-3.50052E-002	2.15303E-003
	30	30	4.99712E-002	-4.92932E-002	0.00000E+000	-2.46324E-003	-4.88961E-001	3.75976E-002	3.20602E+001	11	...........	6.26701E-002	-5.27792E-003	6.09412E-001	5.33954E-001	-2.60986E-002	-3.72067E-002	7.06881E-001	-4.33783E-002	-3.08921E-003	2.60166E-004	-3.00399E-002	-2.63203E-002	1.28648E-003	1.83404E-003	-3.48445E-002	2.13826E-003
	31	31	4.99837E-002	-4.85012E-002	0.00000E+000	-2.42427E-003	-4.81098E-001	3.75864E-002	3.22532E+001	11	...........	6.26433E-002	-5.30139E-003	6.09261E-001	5.33891E-001	-2.61000E-002	-3.71947E-002	7.06857E-001	-4.33456E-002	-3.03827E-003	2.57124E-004	-2.95499E-002	-2.58943E-002	1.26588E-003	1.80399E-003	-3.42834E-002	2.10231E-003
	32	32	4.99735E-002	-4.74069E-002	0.00000E+000	-2.36909E-003	-4.70206E-001	3.75298E-002	3.11374E+001	11	...........	6.25610E-002	-5.34639E-003	6.09177E-001	5.33739E-001	-2.60976E-002	-3.71804E-002	7.06941E-001	-4.35089E-002	-2.96582E-003	2.53456E-004	-2.88792E-002	-2.53029E-002	1.23721E-003	1.76261E-003	-3.35139E-002	2.06262E-003
	33	33	4.99830E-002	-4.68800E-002	0.00000E+000	-2.34320E-003	-4.64956E-001	3.76441E-002	3.15489E+001	11	...........	6.27569E-002	-5.34778E-003	6.09226E-001	5.33805E-001	-2.60961E-002	-3.71732E-002	7.06889E-001	-4.37271E-002	-2.94205E-003	2.50704E-004	-2.85605E-002	-2.50248E-002	1.22339E-003	1.74268E-003	-3.31390E-002	2.04993E-003
	34	34	4.99886E-002	-4.68920E-002	0.00000E+000	-2.34407E-003	-4.65075E-001	3.76890E-002	3.22746E+001	11	...........	6.28214E-002	-5.38653E-003	6.09196E-001	5.33853E-001	-2.61169E-002	-3.71811E-002	7.06856E-001	-4.36240E-002	-2.94582E-003	2.52585E-004	-2.85664E-002	-2.50335E-002	1.22468E-003	1.74350E-003	-3.31459E-002	2.04562E-003
	35	35	4.99740E-002	-4.63044E-002	0.00000E+000	-2.31402E-003	-4.59233E-001	3.76551E-002	3.19488E+001	11	...........	6.27644E-002	-5.41139E-003	6.09111E-001	5.33987E-001	-2.61535E-002	-3.71962E-002	7.06781E-001	-4.36847E-002	-2.90627E-003	2.50571E-004	-2.82045E-002	-2.47259E-002	1.21102E-003	1.72235E-003	-3.27271E-002	2.02279E-003
	36	36	4.99845E-002	-4.58653E-002	0.00000E+000	-2.29255E-003	-4.54879E-001	3.77797E-002	3.23732E+001	11	...........	6.29960E-002	-5.46792E-003	6.09063E-001	5.34009E-001	-2.61224E-002	-3.71999E-002	7.06759E-001	-4.36133E-002	-2.88933E-003	2.50788E-004	-2.79349E-002	-2.44925E-002	1.19811E-003	1.70618E-003	-3.24157E-002	2.00034E-003
	37	37	4.99678E-002	-4.51354E-002	0.00000E+000	-2.25532E-003	-4.47623E-001	3.77593E-002	3.14419E+001	11	...........	6.29707E-002	-5.43944E-003	6.09125E-001	5.34238E-001	-2.61292E-002	-3.71731E-002	7.06767E-001	-4.36251E-002	-2.84221E-003	2.45511E-004	-2.74931E-002	-2.41130E-002	1.17935E-003	1.67782E-003	-3.19002E-002	1.96904E-003
	38	38	4.99955E-002	-4.42019E-002	0.00000E+000	-2.20990E-003	-4.38334E-001	3.77016E-002	3.20682E+001	11	...........	6.28719E-002	-5.35222E-003	6.09171E-001	5.34465E-001	-2.61224E-002	-3.71493E-002	7.06655E-001	-4.36426E-002	-2.77906E-003	2.36579E-004	-2.69265E-002	-2.36244E-002	1.15466E-003	1.64207E-003	-3.12355E-002	1.92909E-003
	39	39	4.99802E-002	-4.45310E-002	0.00000E+000	-2.22567E-003	-4.41596E-001	3.78473E-002	3.25117E+001	11	...........	6.30840E-002	-5.41875E-003	6.09190E-001	5.34401E-001	-2.61286E-002	-3.71550E-002	7.06682E-001	-4.37446E-002	-2.80920E-003	2.41302E-004	-2.71278E-002	-2.37974E-002	1.16353E-003	1.65455E-003	-3.14693E-002	1.94799E-003
	40	40	4.99762E-002	-4.38267E-002	0.00000E+000	-2.19029E-003	-4.34600E-001	3.78507E-002	3.22195E+001	11	...........	6.31382E-002	-5.25889E-003	6.09046E-001	5.34388E-001	-2.61556E-002	-3.71383E-002	7.06745E-001	-4.36000E-002	-2.76714E-003	2.30480E-004	-2.66925E-002	-2.34205E-002	1.14631E-003	1.62765E-003	-3.09743E-002	1.91084E-003
	41	41	4.99890E-002	-4.32702E-002	0.00000E+000	-2.16304E-003	-4.29088E-001	3.79282E-002	3.21743E+001	11	...........	6.32522E-002	-5.20944E-003	6.09065E-001	5.34339E-001	-2.61650E-002	-3.71528E-002	7.06724E-001	-4.36932E-002	-2.73694E-003	2.25414E-004	-2.63544E-002	-2.31210E-002	1.13217E-003	1.60761E-003	-3.05801E-002	1.89061E-003
	42	42	4.99756E-002	-4.24708E-002	0.00000E+000	-2.12251E-003	-4.21129E-001	3.77747E-002	3.19256E+001	11	...........	6.29967E-002	-5.22681E-003	6.09277E-001	5.34303E-001	-2.61571E-002	-3.71774E-002	7.06751E-001	-4.37611E-002	-2.67552E-003	2.21987E-004	-2.58765E-002	-2.26923E-002	1.11091E-003	1.57895E-003	-3.00163E-002	1.85857E-003
	43	43	4.99890E-002	-4.24556E-002	0.00000E+000	-2.12231E-003	-4.20976E-001	3.80263E-002	3.28387E+001	11	...........	6.34322E-002	-5.19542E-003	6.09319E-001	5.34343E-001	-2.61336E-002	-3.71933E-002	7.06803E-001	-4.37068E-002	-2.69305E-003	2.20574E-004	-2.58690E-002	-2.26858E-002	1.10952E-003	1.57906E-003	-3.00077E-002	1.85560E-003
	44	44	4.99722E-002	-4.21205E-002	0.00000E+000	-2.10485E-003	-4.17634E-001	3.79941E-002	3.22804E+001	11	...........	6.33669E-002	-5.23264E-003	6.09314E-001	5.34478E-001	-2.61671E-002	-3.72062E-002	7.06786E-001	-4.34782E-002	-2.66904E-003	2.20401E-004	-2.56646E-002	-2.25125E-002	1.10217E-003	1.56714E-003	-2.97701E-002	1.83132E-003
	45	45	4.99855E-002	-4.10210E-002	0.00000E+000	-2.05045E-003	-4.06732E-001	3.79988E-002	3.25096E+001	11	...........	6.33626E-002	-5.23361E-003	6.09251E-001	5.34558E-001	-2.61544E-002	-3.72086E-002	7.06641E-001	-4.33958E-002	-2.59920E-003	2.14688E-004	-2.49921E-002	-2.19281E-002	1.07288E-003	1.52634E-003	-2.89871E-002	1.78014E-003
	46	46	4.99740E-002	-4.08129E-002	0.00000E+000	-2.03958E-003	-4.04675E-001	3.79787E-002	3.19751E+001	11	...........	6.33337E-002	-5.24917E-003	6.09202E-001	5.34558E-001	-2.61489E-002	-3.72060E-002	7.06735E-001	-4.35347E-002	-2.58483E-003	2.14234E-004	-2.48633E-002	-2.18169E-002	1.06721E-003	1.51848E-003	-2.88439E-002	1.77678E-003
	47	47	4.99946E-002	-4.03760E-002	0.00000E+000	-2.01858E-003	-4.00320E-001	3.80535E-002	3.29175E+001	11	...........	6.34703E-002	-5.29236E-003	6.09134E-001	5.34621E-001	-2.61451E-002	-3.72324E-002	7.06767E-001	-4.35601E-002	-2.56268E-003	2.13684E-004	-2.45944E-002	-2.15859E-002	1.05564E-003	1.50329E-003	-2.85365E-002	1.75878E-003
	48	48	4.99858E-002	-4.03890E-002	0.00000E+000	-2.01888E-003	-4.00456E-001	3.80703E-002	3.28215E+001	11	...........	6.34760E-002	-5.33875E-003	6.09318E-001	5.34540E-001	-2.61222E-002	-3.72353E-002	7.06741E-001	-4.35874E-002	-2.56373E-003	2.15627E-004	-2.46098E-002	-2.15896E-002	1.05505E-003	1.50390E-003	-2.85446E-002	1.76045E-003
	49	49	4.99736E-002	-3.95035E-002	0.00000E+000	-1.97413E-003	-3.91635E-001	3.80271E-002	3.26193E+001	11	...........	6.34136E-002	-5.35875E-003	6.09395E-001	5.34495E-001	-2.61226E-002	-3.72385E-002	7.06758E-001	-4.35232E-002	-2.50506E-003	2.11689E-004	-2.40732E-002	-2.11144E-002	1.03194E-003	1.47105E-003	-2.79194E-002	1.71932E-003
	50	50	4.99841E-002	-3.89910E-002	0.00000E+000	-1.94893E-003	-3.86539E-001	3.81336E-002	3.23330E+001	11	...........	6.35881E-002	-5.32236E-003	6.09284E-001	5.34445E-001	-2.61154E-002	-3.72456E-002	7.06864E-001	-4.34772E-002	-2.47936E-003	2.07524E-004	-2.37566E-002	-2.08386E-002	1.01827E-003	1.45224E-003	-2.75614E-002	1.69522E-003
	51	51	4.99852E-002	-3.86742E-002	0.00000E+000	-1.93314E-003	-3.83397E-001	3.80982E-002	3.27526E+001	11	...........	6.35300E-002	-5.35819E-003	6.09208E-001	5.34455E-001	-2.61393E-002	-3.72054E-002	7.06896E-001	-4.35347E-002	-2.45697E-003	2.07224E-004	-2.35606E-002	-2.06696E-002	1.01092E-003	1.43889E-003	-2.73386E-002	1.68367E-003
	52	52	4.99832E-002	-3.84954E-002	0.00000E+000	-1.92412E-003	-3.81620E-001	3.82011E-002	3.31132E+001	11	...........	6.37149E-002	-5.33847E-003	6.09231E-001	5.34296E-001	-2.61344E-002	-3.71844E-002	7.06846E-001	-4.34317E-002	-2.45273E-003	2.05507E-004	-2.34526E-002	-2.05679E-002	1.00606E-003	1.43143E-003	-2.72103E-002	1.67192E-003
	53	53	4.99756E-002	-3.79812E-002	0.00000E+000	-1.89813E-003	-3.76513E-001	3.81613E-002	3.26633E+001	11	...........	6.36464E-002	-5.30875E-003	6.09187E-001	5.34383E-001	-2.61076E-002	-3.71822E-002	7.06899E-001	-4.35829E-002	-2.41737E-003	2.01633E-004	-2.31377E-002	-2.02965E-002	9.91600E-004	1.41223E-003	-2.68489E-002	1.65533E-003
	54	54	4.99815E-002	-3.74338E-002	0.00000E+000	-1.87099E-003	-3.71070E-001	3.82851E-002	3.29860E+001	11	...........	6.38781E-002	-5.25917E-003	6.09190E-001	5.34503E-001	-2.60942E-002	-3.72256E-002	7.06866E-001	-4.37265E-002	-2.39120E-003	1.96870E-004	-2.28043E-002	-2.00085E-002	9.76803E-004	1.39349E-003	-2.64606E-002	1.63685E-003
	55	55	4.99792E-002	-3.66405E-002	0.00000E+000	-1.83126E-003	-3.63161E-001	3.81099E-002	3.19706E+001	11	...........	6.35787E-002	-5.40278E-003	6.09370E-001	5.34471E-001	-2.61233E-002	-3.72228E-002	7.06911E-001	-4.37662E-002	-2.32956E-003	1.97961E-004	-2.23276E-002	-1.95833E-002	9.57173E-004	1.36386E-003	-2.59016E-002	1.60362E-003
	56	56	4.99819E-002	-3.65801E-002	0.00000E+000	-1.82834E-003	-3.62556E-001	3.83440E-002	3.24897E+001	11	...........	6.39669E-002	-5.39778E-003	6.09519E-001	5.34487E-001	-2.60979E-002	-3.72097E-002	7.06973E-001	-4.35742E-002	-2.33992E-003	1.97451E-004	-2.22963E-002	-1.95516E-002	9.54664E-004	1.36113E-003	-2.58611E-002	1.59395E-003
	57	57	4.99935E-002	-3.62185E-002	0.00000E+000	-1.81069E-003	-3.58961E-001	3.83046E-002	3.31703E+001	11	...........	6.39046E-002	-5.36111E-003	6.09588E-001	5.34539E-001	-2.61160E-002	-3.71867E-002	7.06881E-001	-4.34407E-002	-2.31453E-003	1.94172E-004	-2.20784E-002	-1.93602E-002	9.45882E-004	1.34685E-003	-2.56022E-002	1.57336E-003
	58	58	4.99827E-002	-3.59741E-002	0.00000E+000	-1.79808E-003	-3.56548E-001	3.83181E-002	3.33800E+001	11	...........	6.39304E-002	-5.36750E-003	6.09477E-001	5.34789E-001	-2.60915E-002	-3.72035E-002	7.06873E-001	-4.33708E-002	-2.29984E-003	1.93091E-004	-2.19254E-002	-1.92386E-002	9.38620E-004	1.33836E-003	-2.54292E-002	1.56023E-003
	59	59	4.99660E-002	-3.52987E-002	0.00000E+000	-1.76373E-003	-3.49821E-001	3.83749E-002	3.23843E+001	11	...........	6.40392E-002	-5.30708E-003	6.09584E-001	5.34822E-001	-2.60918E-002	-3.71828E-002	7.06972E-001	-4.36236E-002	-2.26050E-003	1.87333E-004	-2.15175E-002	-1.88785E-002	9.21006E-004	1.31250E-003	-2.49552E-002	1.53985E-003
	60	60	4.99915E-002	-3.46309E-002	0.00000E+000	-1.73125E-003	-3.43177E-001	3.82947E-002	3.24893E+001	11	...........	6.38681E-002	-5.37514E-003	6.09547E-001	5.34613E-001	-2.61218E-002	-3.71839E-002	7.06773E-001	-4.35729E-002	-2.21181E-003	1.86146E-004	-2.11092E-002	-1.85141E-002	9.04622E-004	1.28771E-003	-2.44762E-002	1.50897E-003
	61	61	4.99880E-002	-3.45991E-002	0.00000E+000	-1.72954E-003	-3.42860E-001	3.84093E-002	3.34227E+001	11	...........	6.40824E-002	-5.34528E-003	6.09651E-001	5.34479E-001	-2.60875E-002	-3.71679E-002	7.06802E-001	-4.36424E-002	-2.21719E-003	1.84942E-004	-2.10934E-002	-1.84925E-002	9.02604E-004	1.28598E-003	-2.44547E-002	1.50999E-003
	62	62	4.99825E-002	-3.45230E-002	0.00000E+000	-1.72554E-003	-3.42105E-001	3.84502E-002	3.28482E+001	11	...........	6.41419E-002	-5.29389E-003	6.09668E-001	5.34427E-001	-2.61186E-002	-3.71724E-002	7.06939E-001	-4.35381E-002	-2.21437E-003	1.82761E-004	-2.10475E-002	-1.84500E-002	9.01692E-004	1.28330E-003	-2.44056E-002	1.50306E-003
	63	63	4.99818E-002	-3.36902E-002	0.00000E+000	-1.68389E-003	-3.33829E-001	3.84390E-002	3.34055E+001	11	...........	6.41401E-002	-5.26014E-003	6.09617E-001	5.34373E-001	-2.60711E-002	-3.71643E-002	7.06987E-001	-4.35154E-002	-2.16089E-003	1.77215E-004	-2.05381E-002	-1.80031E-002	8.78340E-004	1.25207E-003	-2.38185E-002	1.46604E-003
	64	64	4.99815E-002	-3.36393E-002	0.00000E+000	-1.68134E-003	-3.33323E-001	3.85011E-002	3.33403E+001	11	...........	6.42342E-002	-5.22653E-003	6.09805E-001	5.34126E-001	-2.60656E-002	-3.71767E-002	7.06820E-001	-4.34647E-002	-2.16079E-003	1.75817E-004	-2.05134E-002	-1.79676E-002	8.76827E-004	1.25060E-003	-2.37769E-002	1.46212E-003
	65	65	4.99863E-002	-3.32414E-002	0.00000E+000	-1.66161E-003	-3.29373E-001	3.84289E-002	3.26144E+001	11	...........	6.41367E-002	-5.19792E-003	6.09802E-001	5.34009E-001	-2.60993E-002	-3.71843E-002	7.06820E-001	-4.36210E-002	-2.13199E-003	1.72786E-004	-2.02707E-002	-1.77512E-002	8.67577E-004	1.23606E-003	-2.34957E-002	1.45002E-003
	66	66	4.99865E-002	-3.27619E-002	0.00000E+000	-1.63765E-003	-3.24602E-001	3.84796E-002	3.33051E+001	11	...........	6.42090E-002	-5.17361E-003	6.09652E-001	5.34325E-001	-2.61171E-002	-3.71786E-002	7.06849E-001	-4.35093E-002	-2.10361E-003	1.69497E-004	-1.99733E-002	-1.75055E-002	8.55644E-004	1.21804E-003	-2.31577E-002	1.42545E-003
	67	67	4.99805E-002	-3.27903E-002	0.00000E+000	-1.63888E-003	-3.24888E-001	3.86031E-002	3.38180E+001	11	...........	6.44072E-002	-5.30194E-003	6.09720E-001	5.34453E-001	-2.61357E-002	-3.71675E-002	7.06976E-001	-4.34910E-002	-2.11193E-003	1.73853E-004	-1.99929E-002	-1.75249E-002	8.56998E-004	1.21873E-003	-2.31820E-002	1.42608E-003
	68	68	4.99809E-002	-3.20594E-002	0.00000E+000	-1.60236E-003	-3.17607E-001	3.85727E-002	3.31759E+001	11	...........	6.43537E-002	-5.19931E-003	6.09857E-001	5.34615E-001	-2.61322E-002	-3.71429E-002	7.07017E-001	-4.34157E-002	-2.06314E-003	1.66687E-004	-1.95517E-002	-1.71394E-002	8.37784E-004	1.19078E-003	-2.26666E-002	1.39188E-003
	69	69	4.99800E-002	-3.13861E-002	0.00000E+000	-1.56868E-003	-3.10915E-001	3.84376E-002	3.28634E+001	11	...........	6.41161E-002	-5.23750E-003	6.09842E-001	5.34591E-001	-2.61479E-002	-3.71325E-002	7.07124E-001	-4.35103E-002	-2.01235E-003	1.64384E-004	-1.91405E-002	-1.67787E-002	8.20680E-004	1.16544E-003	-2.21938E-002	1.36562E-003
	70	70	4.99890E-002	-3.14791E-002	0.00000E+000	-1.57361E-003	-3.11826E-001	3.86923E-002	3.37783E+001	11	...........	6.45565E-002	-5.27944E-003	6.09801E-001	5.34589E-001	-2.61382E-002	-3.71089E-002	7.07108E-001	-4.35512E-002	-2.03218E-003	1.66192E-004	-1.91960E-002	-1.68284E-002	8.22807E-004	1.16816E-003	-2.22591E-002	1.37095E-003
	71	71	4.99704E-002	-3.11105E-002	0.00000E+000	-1.55460E-003	-3.08175E-001	3.86533E-002	3.33695E+001	11	...........	6.44858E-002	-5.34583E-003	6.09797E-001	5.34509E-001	-2.61257E-002	-3.70993E-002	7.07084E-001	-4.35993E-002	-2.00618E-003	1.66311E-004	-1.89711E-002	-1.66288E-002	8.12782E-004	1.15418E-003	-2.19977E-002	1.35639E-003
	72	72	4.99913E-002	-3.06023E-002	0.00000E+000	-1.52985E-003	-3.03166E-001	3.86965E-002	3.38736E+001	11	...........	6.45569E-002	-5.24542E-003	6.09845E-001	5.34508E-001	-2.61093E-002	-3.71172E-002	7.06970E-001	-4.35835E-002	-1.97559E-003	1.60522E-004	-1.86626E-002	-1.63572E-002	7.99004E-004	1.13587E-003	-2.16349E-002	1.33375E-003
	73	73	4.99788E-002	-3.01517E-002	0.00000E+000	-1.50695E-003	-2.98683E-001	3.86752E-002	3.27235E+001	11	...........	6.45156E-002	-5.24347E-003	6.09793E-001	5.34501E-001	-2.61167E-002	-3.70990E-002	7.06868E-001	-4.35972E-002	-1.94525E-003	1.58100E-004	-1.83863E-002	-1.61161E-002	7.87462E-004	1.11860E-003	-2.13133E-002	1.31453E-003
	74	74	4.99872E-002	-2.94906E-002	0.00000E+000	-1.47415E-003	-2.92104E-001	3.85749E-002	3.34824E+001	11	...........	6.43556E-002	-5.15694E-003	6.09706E-001	5.34707E-001	-2.60940E-002	-3.71129E-002	7.06909E-001	-4.35985E-002	-1.89789E-003	1.52082E-004	-1.79806E-002	-1.57688E-002	7.69529E-004	1.09448E-003	-2.08472E-002	1.28575E-003
	75	75	4.99851E-002	-2.97535E-002	0.00000E+000	-1.48723E-003	-2.94719E-001	3.87351E-002	3.36661E+001	11	...........	6.46162E-002	-5.21958E-003	6.09742E-001	5.34832E-001	-2.61149E-002	-3.71168E-002	7.06944E-001	-4.35735E-002	-1.92256E-003	1.55301E-004	-1.81420E-002	-1.59132E-002	7.77009E-004	1.10436E-003	-2.10341E-002	1.29646E-003
	76	76	4.99823E-002	-2.92170E-002	0.00000E+000	-1.46033E-003	-2.89359E-001	3.86993E-002	3.36553E+001	11	...........	6.45701E-002	-5.23250E-003	6.09752E-001	5.34909E-001	-2.60761E-002	-3.70922E-002	7.06984E-001	-4.36164E-002	-1.88654E-003	1.52878E-004	-1.78151E-002	-1.56284E-002	7.61865E-004	1.08372E-003	-2.06559E-002	1.27434E-003
	77	77	4.99809E-002	-2.88747E-002	0.00000E+000	-1.44318E-003	-2.85957E-001	3.88083E-002	3.33248E+001	11	...........	6.47426E-002	-5.20292E-003	6.09824E-001	5.34940E-001	-2.60494E-002	-3.70992E-002	7.07147E-001	-4.36907E-002	-1.86942E-003	1.50233E-004	-1.76085E-002	-1.54462E-002	7.52169E-004	1.07123E-003	-2.04186E-002	1.26155E-003
	78	78	4.99798E-002	-2.81203E-002	0.00000E+000	-1.40545E-003	-2.78483E-001	3.86175E-002	3.28892E+001	11	...........	6.44229E-002	-5.21375E-003	6.09948E-001	5.34911E-001	-2.60749E-002	-3.71151E-002	7.07155E-001	-4.36378E-002	-1.81159E-003	1.46612E-004	-1.71519E-002	-1.50418E-002	7.33233E-004	1.04369E-003	-1.98854E-002	1.22711E-003
	79	79	4.99920E-002	-2.81415E-002	0.00000E+000	-1.40685E-003	-2.78691E-001	3.87730E-002	3.36806E+001	11	...........	6.46832E-002	-5.11125E-003	6.09946E-001	5.34742E-001	-2.61037E-002	-3.71268E-002	7.07027E-001	-4.36254E-002	-1.82028E-003	1.43838E-004	-1.71648E-002	-1.50484E-002	7.34600E-004	1.04481E-003	-1.98968E-002	1.22769E-003
	80	80	4.99839E-002	-2.81207E-002	0.00000E+000	-1.40558E-003	-2.78472E-001	3.88488E-002	3.39926E+001	11	...........	6.47985E-002	-5.21694E-003	6.09964E-001	5.34525E-001	-2.60872E-002	-3.71197E-002	7.07239E-001	-4.35196E-002	-1.82218E-003	1.46704E-004	-1.71526E-002	-1.50312E-002	7.33591E-004	1.04383E-003	-1.98881E-002	1.22380E-003
	81	81	4.99750E-002	-2.75580E-002	0.00000E+000	-1.37721E-003	-2.72879E-001	3.87889E-002	3.36162E+001	11	...........	6.47001E-002	-5.21833E-003	6.09810E-001	5.34360E-001	-2.60689E-002	-3.71272E-002	7.07144E-001	-4.35386E-002	-1.78301E-003	1.43807E-004	-1.68052E-002	-1.47259E-002	7.18407E-004	1.02315E-003	-1.94875E-002	1.19984E-003
	82	82	4.99869E-002	-2.71732E-002	0.00000E+000	-1.35831E-003	-2.69046E-001	3.88812E-002	3.37229E+001	11	...........	6.48572E-002	-5.21792E-003	6.09828E-001	5.34221E-001	-2.61264E-002	-3.71383E-002	7.07253E-001	-4.37110E-002	-1.76238E-003	1.41788E-004	-1.65710E-002	-1.45165E-002	7.09939E-004	1.00917E-003	-1.92184E-002	1.18777E-003
	83	83	4.99796E-002	-2.66043E-002	0.00000E+000	-1.32967E-003	-2.63381E-001	3.86663E-002	3.28463E+001	11	...........	6.45237E-002	-5.32500E-003	6.09768E-001	5.34146E-001	-2.61346E-002	-3.71333E-002	7.07208E-001	-4.37362E-002	-1.71661E-003	1.41668E-004	-1.62225E-002	-1.42106E-002	6.95294E-004	9.87908E-004	-1.88148E-002	1.16357E-003
	84	84	4.99919E-002	-2.65455E-002	0.00000E+000	-1.32706E-003	-2.62794E-001	3.89014E-002	3.40284E+001	11	...........	6.49107E-002	-5.19069E-003	6.09758E-001	5.34160E-001	-2.61237E-002	-3.71431E-002	7.07177E-001	-4.37432E-002	-1.72309E-003	1.37790E-004	-1.61863E-002	-1.41795E-002	6.93468E-004	9.85981E-004	-1.87723E-002	1.16118E-003
	85	85	4.99814E-002	-2.64504E-002	0.00000E+000	-1.32203E-003	-2.61854E-001	3.88748E-002	3.37847E+001	11	...........	6.48585E-002	-5.20014E-003	6.09794E-001	5.34317E-001	-2.61074E-002	-3.71431E-002	7.07265E-001	-4.37418E-002	-1.71554E-003	1.37546E-004	-1.61293E-002	-1.41329E-002	6.90551E-004	9.82450E-004	-1.87075E-002	1.15699E-003
	86	86	4.99831E-002	-2.58032E-002	0.00000E+000	-1.28972E-003	-2.55424E-001	3.88358E-002	3.38985E+001	11	...........	6.47976E-002	-5.18347E-003	6.09719E-001	5.34096E-001	-2.60883E-002	-3.71636E-002	7.07219E-001	-4.37394E-002	-1.67199E-003	1.33750E-004	-1.57327E-002	-1.37814E-002	6.73162E-004	9.58940E-004	-1.82485E-002	1.12862E-003
	87	87	4.99830E-002	-2.57097E-002	0.00000E+000	-1.28505E-003	-2.54501E-001	3.89262E-002	3.44712E+001	11	...........	6.49519E-002	-5.25431E-003	6.09771E-001	5.34035E-001	-2.60781E-002	-3.71632E-002	7.07148E-001	-4.37396E-002	-1.66990E-003	1.35087E-004	-1.56770E-002	-1.37299E-002	6.70460E-004	9.55455E-004	-1.81806E-002	1.12453E-003
	88	88	4.99743E-002	-2.52324E-002	0.00000E+000	-1.26097E-003	-2.49748E-001	3.89043E-002	3.30752E+001	11	...........	6.48976E-002	-5.34181E-003	6.09921E-001	5.34140E-001	-2.60743E-002	-3.71592E-002	7.07051E-001	-4.36551E-002	-1.63752E-003	1.34786E-004	-1.53897E-002	-1.34776E-002	6.57916E-004	9.37613E-004	-1.78406E-002	1.10152E-003
	89	89	4.99928E-002	-2.47285E-002	0.00000E+000	-1.23625E-003	-2.44742E-001	3.88022E-002	3.35175E+001	11	...........	6.47342E-002	-5.35097E-003	6.09871E-001	5.34287E-001	-2.60851E-002	-3.71204E-002	7.07044E-001	-4.34411E-002	-1.60078E-003	1.32321E-004	-1.50812E-002	-1.32121E-002	6.45046E-004	9.17931E-004	-1.74841E-002	1.07423E-003
	90	90	4.99865E-002	-2.48350E-002	0.00000E+000	-1.24141E-003	-2.45799E-001	3.89992E-002	3.44858E+001	11	...........	6.50715E-002	-5.23778E-003	6.09972E-001	5.34268E-001	-2.60896E-002	-3.71481E-002	7.07174E-001	-4.35621E-002	-1.61605E-003	1.30080E-004	-1.51486E-002	-1.32685E-002	6.47934E-004	9.22571E-004	-1.75626E-002	1.08186E-003
	91	91	4.99771E-002	-2.45063E-002	0.00000E+000	-1.22476E-003	-2.42525E-001	3.89328E-002	3.34448E+001	11	...........	6.49649E-002	-5.29111E-003	6.10058E-001	5.34391E-001	-2.61058E-002	-3.71249E-002	7.07199E-001	-4.34643E-002	-1.59205E-003	1.29666E-004	-1.49503E-002	-1.30960E-002	6.39759E-004	9.09795E-004	-1.73309E-002	1.06515E-003
	92	92	4.99880E-002	-2.38872E-002	0.00000E+000	-1.19408E-003	-2.36363E-001	3.89464E-002	3.41982E+001	11	...........	6.49876E-002	-5.33486E-003	6.10208E-001	5.34339E-001	-2.61286E-002	-3.71164E-002	7.07145E-001	-4.34972E-002	-1.55238E-003	1.27435E-004	-1.45762E-002	-1.27639E-002	6.24141E-004	8.86608E-004	-1.68917E-002	1.03903E-003
	93	93	4.99847E-002	-2.38408E-002	0.00000E+000	-1.19168E-003	-2.35897E-001	3.89000E-002	3.39220E+001	11	...........	6.49039E-002	-5.32861E-003	6.10167E-001	5.34261E-001	-2.61337E-002	-3.71426E-002	7.07197E-001	-4.34999E-002	-1.54736E-003	1.27038E-004	-1.45469E-002	-1.27372E-002	6.23050E-004	8.85511E-004	-1.68601E-002	1.03707E-003
	94	94	4.99852E-002	-2.35986E-002	0.00000E+000	-1.17958E-003	-2.33493E-001	3.89501E-002	3.43361E+001	11	...........	6.49921E-002	-5.14903E-003	6.10087E-001	5.34083E-001	-2.61119E-002	-3.71597E-002	7.07161E-001	-4.35224E-002	-1.53372E-003	1.21510E-004	-1.43972E-002	-1.26036E-002	6.16205E-004	8.76917E-004	-1.66880E-002	1.02707E-003
	95	95	4.99828E-002	-2.34438E-002	0.00000E+000	-1.17179E-003	-2.31954E-001	3.90635E-002	3.39607E+001	11	...........	6.51689E-002	-5.22958E-003	6.09997E-001	5.34113E-001	-2.60960E-002	-3.71837E-002	7.07133E-001	-4.36399E-002	-1.52780E-003	1.22601E-004	-1.43006E-002	-1.25216E-002	6.11788E-004	8.71727E-004	-1.65779E-002	1.02308E-003
	96	96	4.99819E-002	-2.28374E-002	0.00000E+000	-1.14146E-003	-2.25944E-001	3.89348E-002	3.41516E+001	11	...........	6.49590E-002	-5.25569E-003	6.09925E-001	5.34100E-001	-2.61039E-002	-3.71876E-002	7.07029E-001	-4.35387E-002	-1.48350E-003	1.20026E-004	-1.39291E-002	-1.21974E-002	5.96145E-004	8.49269E-004	-1.61467E-002	9.94312E-004
	97	97	4.99845E-002	-2.27016E-002	0.00000E+000	-1.13473E-003	-2.24583E-001	3.90106E-002	3.40326E+001	11	...........	6.50797E-002	-5.26528E-003	6.10004E-001	5.34135E-001	-2.61017E-002	-3.71750E-002	7.07035E-001	-4.34146E-002	-1.47742E-003	1.19530E-004	-1.38481E-002	-1.21257E-002	5.92550E-004	8.43933E-004	-1.60508E-002	9.85582E-004
	98	98	4.99881E-002	-2.24216E-002	0.00000E+000	-1.12081E-003	-2.21806E-001	3.89341E-002	3.40877E+001	11	...........	6.49557E-002	-5.34458E-003	6.10057E-001	5.34030E-001	-2.61050E-002	-3.71522E-002	7.07072E-001	-4.35610E-002	-1.45641E-003	1.19834E-004	-1.36785E-002	-1.19738E-002	5.85317E-004	8.33013E-004	-1.58537E-002	9.76708E-004
	99	99	4.99840E-002	-2.24211E-002	0.00000E+000	-1.12070E-003	-2.21802E-001	3.91206E-002	3.48138E+001	11	...........	6.52589E-002	-5.35319E-003	6.10118E-001	5.33938E-001	-2.61075E-002	-3.71681E-002	7.07000E-001	-4.36544E-002	-1.46318E-003	1.20025E-004	-1.36795E-002	-1.19715E-002	5.85359E-004	8.33349E-004	-1.58517E-002	9.78781E-004
	100	100	4.99751E-002	-2.20182E-002	0.00000E+000	-1.10036E-003	-2.17800E-001	3.90617E-002	3.38769E+001	11	...........	6.51687E-002	-5.21319E-003	6.10110E-001	5.33807E-001	-2.61004E-002	-3.71497E-002	7.07142E-001	-4.34425E-002	-1.43490E-003	1.14785E-004	-1.34335E-002	-1.17535E-002	5.74684E-004	8.17970E-004	-1.55700E-002	9.56526E-004
	101	101	4.99889E-002	-2.13967E-002	0.00000E+000	-1.06960E-003	-2.11597E-001	3.90438E-002	3.39883E+001	11	...........	6.51310E-002	-5.20556E-003	6.10024E-001	5.33649E-001	-2.60856E-002	-3.71532E-002	7.07106E-001	-4.34851E-002	-1.39359E-003	1.11382E-004	-1.30525E-002	-1.14183E-002	5.58146E-004	7.94957E-004	-1.51298E-002	9.30440E-004
	102	102	4.99862E-002	-2.13683E-002	0.00000E+000	-1.06812E-003	-2.11310E-001	3.90187E-002	3.45390E+001	11	...........	6.50956E-002	-5.24653E-003	6.10099E-001	5.33718E-001	-2.60731E-002	-3.71396E-002	7.06939E-001	-4.34568E-002	-1.39098E-003	1.12109E-004	-1.30368E-002	-1.14046E-002	5.57136E-004	7.93608E-004	-1.51060E-002	9.28596E-004
	103	103	4.99864E-002	-2.13509E-002	0.00000E+000	-1.06725E-003	-2.11137E-001	3.91240E-002	3.46855E+001	11	...........	6.52755E-002	-5.31097E-003	6.10128E-001	5.33887E-001	-2.60650E-002	-3.71272E-002	7.06960E-001	-4.35097E-002	-1.39369E-003	1.13394E-004	-1.30268E-002	-1.13990E-002	5.56511E-004	7.92699E-004	-1.50942E-002	9.28971E-004
	104	104	4.99852E-002	-2.08958E-002	0.00000E+000	-1.04448E-003	-2.06622E-001	3.90119E-002	3.42336E+001	11	...........	6.50949E-002	-5.27653E-003	6.10121E-001	5.33893E-001	-2.60801E-002	-3.71561E-002	7.07038E-001	-4.34651E-002	-1.36021E-003	1.10257E-004	-1.27489E-002	-1.11561E-002	5.44965E-004	7.76406E-004	-1.47741E-002	9.08238E-004
	105	105	4.99814E-002	-2.07615E-002	0.00000E+000	-1.03769E-003	-2.05286E-001	3.92037E-002	3.47819E+001	11	...........	6.54146E-002	-5.19375E-003	6.10117E-001	5.33960E-001	-2.60868E-002	-3.71728E-002	7.07117E-001	-4.35061E-002	-1.35811E-003	1.07830E-004	-1.26670E-002	-1.10858E-002	5.41601E-004	7.71763E-004	-1.46808E-002	9.03253E-004
	106	106	4.99816E-002	-2.02876E-002	0.00000E+000	-1.01400E-003	-2.00584E-001	3.91081E-002	3.35959E+001	11	...........	6.52457E-002	-5.21000E-003	6.10047E-001	5.34243E-001	-2.60994E-002	-3.71617E-002	7.07106E-001	-4.35301E-002	-1.32368E-003	1.05698E-004	-1.23764E-002	-1.08385E-002	5.29494E-004	7.53920E-004	-1.43455E-002	8.83121E-004
	107	107	4.99888E-002	-1.99127E-002	0.00000E+000	-9.95415E-004	-1.96866E-001	3.90428E-002	3.43249E+001	11	...........	6.51285E-002	-5.16889E-003	6.10031E-001	5.34427E-001	-2.60976E-002	-3.71189E-002	7.07093E-001	-4.34656E-002	-1.29689E-003	1.02927E-004	-1.21474E-002	-1.06419E-002	5.19675E-004	7.39139E-004	-1.40802E-002	8.65518E-004
	108	108	4.99796E-002	-1.99064E-002	0.00000E+000	-9.94917E-004	-1.96804E-001	3.91428E-002	3.40930E+001	11	...........	6.53037E-002	-5.26083E-003	6.09997E-001	5.34338E-001	-2.61176E-002	-3.70999E-002	7.07051E-001	-4.35501E-002	-1.29997E-003	1.04724E-004	-1.21429E-002	-1.06368E-002	5.19909E-004	7.38526E-004	-1.40749E-002	8.66928E-004
	109	109	4.99876E-002	-1.97408E-002	0.00000E+000	-9.86793E-004	-1.95165E-001	3.92417E-002	3.47582E+001	11	...........	6.54699E-002	-5.32292E-003	6.09954E-001	5.34308E-001	-2.61151E-002	-3.70854E-002	7.07051E-001	-4.36921E-002	-1.29242E-003	1.05078E-004	-1.20409E-002	-1.05476E-002	5.15533E-004	7.32094E-004	-1.39577E-002	8.62515E-004
	110	110	4.99864E-002	-1.94536E-002	0.00000E+000	-9.72415E-004	-1.92300E-001	3.91656E-002	3.47649E+001	11	...........	6.53453E-002	-5.34653E-003	6.09975E-001	5.34345E-001	-2.61296E-002	-3.70989E-002	7.07006E-001	-4.37576E-002	-1.27120E-003	1.04009E-004	-1.18662E-002	-1.03949E-002	5.08315E-004	7.21707E-004	-1.37538E-002	8.51244E-004
	111	111	4.99828E-002	-1.91871E-002	0.00000E+000	-9.59026E-004	-1.89633E-001	3.91934E-002	3.45253E+001	11	...........	6.53732E-002	-5.27375E-003	6.09915E-001	5.34327E-001	-2.61065E-002	-3.70875E-002	7.06923E-001	-4.37776E-002	-1.25432E-003	1.01188E-004	-1.17025E-002	-1.02522E-002	5.00909E-004	7.11602E-004	-1.35638E-002	8.39967E-004
	112	112	4.99821E-002	-1.86933E-002	0.00000E+000	-9.34332E-004	-1.84725E-001	3.90707E-002	3.33394E+001	11	...........	6.51782E-002	-5.18750E-003	6.09893E-001	5.34240E-001	-2.60964E-002	-3.71086E-002	7.07028E-001	-4.35499E-002	-1.21840E-003	9.69716E-005	-1.14009E-002	-9.98672E-003	4.87828E-004	6.93683E-004	-1.32167E-002	8.14092E-004
	113	113	4.99896E-002	-1.86934E-002	0.00000E+000	-9.34474E-004	-1.84723E-001	3.92980E-002	3.45508E+001	11	...........	6.55506E-002	-5.19694E-003	6.09946E-001	5.34006E-001	-2.61015E-002	-3.70969E-002	7.07047E-001	-4.35619E-002	-1.22536E-003	9.71485E-005	-1.14020E-002	-9.98238E-003	4.87926E-004	6.93468E-004	-1.32171E-002	8.14320E-004
	114	114	4.99829E-002	-1.86323E-002	0.00000E+000	-9.31295E-004	-1.84118E-001	3.92553E-002	3.49972E+001	11	...........	6.54904E-002	-5.26653E-003	6.10083E-001	5.33991E-001	-2.61203E-002	-3.71153E-002	7.07004E-001	-4.35846E-002	-1.22023E-003	9.81273E-005	-1.13672E-002	-9.94946E-003	4.86680E-004	6.91541E-004	-1.31731E-002	8.12079E-004
	115	115	4.99844E-002	-1.82996E-002	0.00000E+000	-9.14696E-004	-1.80795E-001	3.92396E-002	3.48374E+001	11	...........	6.54728E-002	-5.36236E-003	6.10053E-001	5.34012E-001	-2.61311E-002	-3.71337E-002	7.07042E-001	-4.36718E-002	-1.19813E-003	9.81292E-005	-1.11637E-002	-9.77221E-003	4.78189E-004	6.79534E-004	-1.29386E-002	7.99178E-004
	116	116	4.99839E-002	-1.81009E-002	0.00000E+000	-9.04754E-004	-1.78829E-001	3.92183E-002	3.37220E+001	11	...........	6.54386E-002	-5.28833E-003	6.10033E-001	5.34127E-001	-2.61174E-002	-3.71319E-002	7.07058E-001	-4.35228E-002	-1.18450E-003	9.57237E-005	-1.10422E-002	-9.66819E-003	4.72748E-004	6.72122E-004	-1.27984E-002	7.87802E-004
	117	117	4.99854E-002	-1.77700E-002	0.00000E+000	-8.88242E-004	-1.75558E-001	3.93229E-002	3.49752E+001	11	...........	6.56051E-002	-5.29306E-003	6.10063E-001	5.34222E-001	-2.61229E-002	-3.71211E-002	7.06973E-001	-4.34715E-002	-1.16580E-003	9.40577E-005	-1.08408E-002	-9.49313E-003	4.64205E-004	6.59643E-004	-1.25629E-002	7.72490E-004
	118	118	4.99803E-002	-1.75928E-002	0.00000E+000	-8.79293E-004	-1.73795E-001	3.91749E-002	3.42181E+001	11	...........	6.53646E-002	-5.34264E-003	6.10110E-001	5.34103E-001	-2.60911E-002	-3.71126E-002	7.06964E-001	-4.33658E-002	-1.14995E-003	9.39920E-005	-1.07335E-002	-9.39636E-003	4.59016E-004	6.52915E-004	-1.24375E-002	7.62926E-004
	119	119	4.99909E-002	-1.73404E-002	0.00000E+000	-8.66862E-004	-1.71290E-001	3.92726E-002	3.46379E+001	11	...........	6.55079E-002	-5.31944E-003	6.10038E-001	5.34160E-001	-2.60833E-002	-3.71244E-002	7.06998E-001	-4.35547E-002	-1.13593E-003	9.22412E-005	-1.05783E-002	-9.26253E-003	4.52295E-004	6.43752E-004	-1.22596E-002	7.55256E-004
	120	120	4.99801E-002	-1.71235E-002	0.00000E+000	-8.55837E-004	-1.69136E-001	3.92244E-002	3.45613E+001	11	...........	6.54199E-002	-5.21639E-003	6.09986E-001	5.34217E-001	-2.60979E-002	-3.71292E-002	7.06970E-001	-4.35468E-002	-1.12022E-003	8.93231E-005	-1.04451E-002	-9.14769E-003	4.46889E-004	6.35783E-004	-1.21058E-002	7.45676E-004
	121	121	4.99876E-002	-1.70521E-002	0.00000E+000	-8.52393E-004	-1.68422E-001	3.93784E-002	3.50182E+001	11	...........	6.56812E-002	-5.28208E-003	6.09915E-001	5.34153E-001	-2.61436E-002	-3.71278E-002	7.06927E-001	-4.35662E-002	-1.12000E-003	9.00706E-005	-1.04003E-002	-9.10844E-003	4.45804E-004	6.33107E-004	-1.20546E-002	7.42896E-004
	122	122	4.99839E-002	-1.67366E-002	0.00000E+000	-8.36563E-004	-1.65275E-001	3.93218E-002	3.42270E+001	11	...........	6.55771E-002	-5.34028E-003	6.09815E-001	5.34154E-001	-2.61583E-002	-3.71319E-002	7.06901E-001	-4.34474E-002	-1.09754E-003	8.93783E-005	-1.02063E-002	-8.93994E-003	4.37802E-004	6.21464E-004	-1.18311E-002	7.27163E-004
	123	123	4.99865E-002	-1.63137E-002	0.00000E+000	-8.15463E-004	-1.61051E-001	3.91105E-002	3.41881E+001	11	...........	6.52496E-002	-5.32917E-003	6.09692E-001	5.34286E-001	-2.61406E-002	-3.71233E-002	7.06951E-001	-4.34243E-002	-1.06446E-003	8.69382E-005	-9.94631E-003	-8.71615E-003	4.26448E-004	6.05617E-004	-1.15330E-002	7.08409E-004
	124	124	4.99861E-002	-1.64880E-002	0.00000E+000	-8.24171E-004	-1.62790E-001	3.94038E-002	3.47358E+001	11	...........	6.57321E-002	-5.41153E-003	6.09631E-001	5.34315E-001	-2.61311E-002	-3.71168E-002	7.06965E-001	-4.35726E-002	-1.08379E-003	8.92253E-005	-1.00516E-002	-8.80978E-003	4.30850E-004	6.11982E-004	-1.16564E-002	7.18426E-004
	125	125	4.99848E-002	-1.62259E-002	0.00000E+000	-8.11046E-004	-1.60183E-001	3.93188E-002	3.49239E+001	11	...........	6.55857E-002	-5.29236E-003	6.09673E-001	5.34335E-001	-2.61151E-002	-3.71411E-002	7.06831E-001	-4.35014E-002	-1.06418E-003	8.58730E-005	-9.89246E-003	-8.67004E-003	4.23740E-004	6.02646E-004	-1.14689E-002	7.05847E-004
	126	126	4.99851E-002	-1.60441E-002	0.00000E+000	-8.01966E-004	-1.58368E-001	3.94178E-002	3.50895E+001	11	...........	6.57504E-002	-5.25792E-003	6.09734E-001	5.34520E-001	-2.61047E-002	-3.71419E-002	7.06837E-001	-4.36006E-002	-1.05491E-003	8.43586E-005	-9.78263E-003	-8.57590E-003	4.18827E-004	5.95909E-004	-1.13406E-002	6.99532E-004
	127	127	4.99776E-002	-1.57274E-002	0.00000E+000	-7.86017E-004	-1.55229E-001	3.93579E-002	3.36940E+001	11	...........	6.56426E-002	-5.24750E-003	6.09756E-001	5.34749E-001	-2.61049E-002	-3.71764E-002	7.06922E-001	-4.37283E-002	-1.03239E-003	8.25294E-005	-9.58986E-003	-8.41020E-003	4.10561E-004	5.84687E-004	-1.11180E-002	6.87732E-004
	128	128	4.99932E-002	-1.54819E-002	0.00000E+000	-7.73991E-004	-1.52789E-001	3.93102E-002	3.44467E+001	11	...........	6.55899E-002	-5.30500E-003	6.09636E-001	5.34916E-001	-2.61250E-002	-3.71803E-002	7.07009E-001	-4.36719E-002	-1.01546E-003	8.21316E-005	-9.43834E-003	-8.28153E-003	4.04465E-004	5.75622E-004	-1.09459E-002	6.76126E-004
	129	129	4.99844E-002	-1.54838E-002	0.00000E+000	-7.73951E-004	-1.52828E-001	3.93813E-002	3.49357E+001	11	...........	6.56901E-002	-5.42847E-003	6.09625E-001	5.34915E-001	-2.61303E-002	-3.71693E-002	7.06882E-001	-4.35485E-002	-1.01714E-003	8.40536E-005	-9.43933E-003	-8.28253E-003	4.04597E-004	5.75523E-004	-1.09452E-002	6.74297E-004
	130	130	4.99849E-002	-1.52576E-002	0.00000E+000	-7.62652E-004	-1.50573E-001	3.93399E-002	3.52557E+001	11	...........	6.56235E-002	-5.38014E-003	6.09663E-001	5.34784E-001	-2.61014E-002	-3.71792E-002	7.06863E-001	-4.35903E-002	-1.00126E-003	8.20882E-005	-9.30201E-003	-8.15953E-003	3.98245E-004	5.67266E-004	-1.07851E-002	6.65084E-004
	131	131	4.99838E-002	-1.50508E-002	0.00000E+000	-7.52297E-004	-1.48517E-001	3.94083E-002	3.48378E+001	11	...........	6.57443E-002	-5.30417E-003	6.09752E-001	5.34651E-001	-2.61229E-002	-3.71878E-002	7.06833E-001	-4.34740E-002	-9.89506E-004	7.98320E-005	-9.17727E-003	-8.04693E-003	3.93171E-004	5.59706E-004	-1.06384E-002	6.54320E-004
	132	132	4.99830E-002	-1.46253E-002	0.00000E+000	-7.31017E-004	-1.44276E-001	3.92592E-002	3.37873E+001	11	...........	6.54978E-002	-5.31708E-003	6.09889E-001	5.34636E-001	-2.61433E-002	-3.71860E-002	7.06870E-001	-4.35382E-002	-9.57926E-004	7.77641E-005	-8.91982E-003	-7.81922E-003	3.82355E-004	5.43857E-004	-1.03382E-002	6.36760E-004
	133	133	4.99882E-002	-1.45515E-002	0.00000E+000	-7.27404E-004	-1.43546E-001	3.93881E-002	3.49043E+001	11	...........	6.57140E-002	-5.25222E-003	6.09801E-001	5.34630E-001	-2.61056E-002	-3.71722E-002	7.06771E-001	-4.35582E-002	-9.56238E-004	7.64278E-005	-8.87352E-003	-7.77967E-003	3.79875E-004	5.40912E-004	-1.02846E-002	6.33837E-004
	134	134	4.99870E-002	-1.45650E-002	0.00000E+000	-7.28063E-004	-1.43689E-001	3.94359E-002	3.52953E+001	11	...........	6.58089E-002	-5.32486E-003	6.09846E-001	5.34708E-001	-2.61174E-002	-3.71901E-002	7.06875E-001	-4.35386E-002	-9.58509E-004	7.75568E-005	-8.88243E-003	-7.78805E-003	3.80400E-004	5.41676E-004	-1.02957E-002	6.34142E-004
	135	135	4.99822E-002	-1.42733E-002	0.00000E+000	-7.13411E-004	-1.40793E-001	3.93647E-002	3.47018E+001	11	...........	6.56747E-002	-5.33736E-003	6.09823E-001	5.34603E-001	-2.61646E-002	-3.72117E-002	7.06896E-001	-4.37593E-002	-9.37395E-004	7.61818E-005	-8.70419E-003	-7.63055E-003	3.73455E-004	5.31133E-004	-1.00897E-002	6.24590E-004
	136	136	4.99857E-002	-1.40693E-002	0.00000E+000	-7.03265E-004	-1.38743E-001	3.94618E-002	3.42399E+001	11	...........	6.58376E-002	-5.39125E-003	6.09739E-001	5.34627E-001	-2.61439E-002	-3.72221E-002	7.06828E-001	-4.38456E-002	-9.26292E-004	7.58513E-005	-8.57862E-003	-7.52184E-003	3.67827E-004	5.23690E-004	-9.94460E-003	6.16878E-004
	137	137	4.99873E-002	-1.38452E-002	0.00000E+000	-6.92082E-004	-1.36506E-001	3.93094E-002	3.45631E+001	11	...........	6.55632E-002	-5.38597E-003	6.09820E-001	5.34671E-001	-2.61687E-002	-3.72507E-002	7.06776E-001	-4.38512E-002	-9.07734E-004	7.45697E-005	-8.44306E-003	-7.40262E-003	3.62311E-004	5.15742E-004	-9.78543E-003	6.07128E-004
	138	138	4.99863E-002	-1.38823E-002	0.00000E+000	-6.93925E-004	-1.36874E-001	3.94904E-002	3.56111E+001	11	...........	6.58737E-002	-5.30250E-003	6.09836E-001	5.34571E-001	-2.61649E-002	-3.72471E-002	7.06796E-001	-4.37058E-002	-9.14480E-004	7.36110E-005	-8.46594E-003	-7.42108E-003	3.63229E-004	5.17076E-004	-9.81197E-003	6.06738E-004
	139	139	4.99847E-002	-1.36857E-002	0.00000E+000	-6.84078E-004	-1.34919E-001	3.94969E-002	3.48904E+001	11	...........	6.58729E-002	-5.23236E-003	6.09843E-001	5.34664E-001	-2.61311E-002	-3.72331E-002	7.06802E-001	-4.37793E-002	-9.01520E-004	7.16088E-005	-8.34616E-003	-7.31728E-003	3.57624E-004	5.09562E-004	-9.67312E-003	5.99153E-004
	140	140	4.99844E-002	-1.33818E-002	0.00000E+000	-6.68883E-004	-1.31897E-001	3.93932E-002	3.51239E+001	11	...........	6.57094E-002	-5.26722E-003	6.09747E-001	5.34757E-001	-2.61193E-002	-3.72087E-002	7.06875E-001	-4.38290E-002	-8.79313E-004	7.04851E-005	-8.15953E-003	-7.15603E-003	3.49524E-004	4.97921E-004	-9.45928E-003	5.86513E-004
	141	141	4.99855E-002	-1.32415E-002	0.00000E+000	-6.61885E-004	-1.30489E-001	3.94798E-002	3.41245E+001	11	...........	6.58706E-002	-5.29458E-003	6.09894E-001	5.34756E-001	-2.60989E-002	-3.72018E-002	7.06823E-001	-4.37599E-002	-8.72228E-004	7.01085E-005	-8.07595E-003	-7.08100E-003	3.45590E-004	4.92609E-004	-9.35943E-003	5.79448E-004
	142	142	4.99870E-002	-1.30165E-002	0.00000E+000	-6.50655E-004	-1.28270E-001	3.93889E-002	3.51855E+001	11	...........	6.57203E-002	-5.16542E-003	6.09882E-001	5.34688E-001	-2.60579E-002	-3.71899E-002	7.06932E-001	-4.35987E-002	-8.55447E-004	6.72356E-005	-7.93853E-003	-6.95976E-003	3.39183E-004	4.84081E-004	-9.20178E-003	5.67503E-004
	143	143	4.99851E-002	-1.30602E-002	0.00000E+000	-6.52817E-004	-1.28710E-001	3.95063E-002	3.49828E+001	11	...........	6.59144E-002	-5.20639E-003	6.09984E-001	5.34733E-001	-2.60531E-002	-3.71790E-002	7.06939E-001	-4.35625E-002	-8.60858E-004	6.79966E-005	-7.96653E-003	-6.98374E-003	3.40259E-004	4.85567E-004	-9.23279E-003	5.68936E-004
	144	144	4.99853E-002	-1.27363E-002	0.00000E+000	-6.36627E-004	-1.25499E-001	3.93882E-002	3.49458E+001	11	...........	6.56986E-002	-5.16028E-003	6.09850E-001	5.34821E-001	-2.60483E-002	-3.71690E-002	7.06877E-001	-4.35579E-002	-8.36757E-004	6.57228E-005	-7.76723E-003	-6.81164E-003	3.31759E-004	4.73396E-004	-9.00300E-003	5.54767E-004
	145	145	4.99855E-002	-1.26881E-002	0.00000E+000	-6.34220E-004	-1.25013E-001	3.95524E-002	3.54730E+001	11	...........	6.59711E-002	-5.20444E-003	6.09681E-001	5.35008E-001	-2.60308E-002	-3.71740E-002	7.07046E-001	-4.35656E-002	-8.37047E-004	6.60345E-005	-7.73568E-003	-6.78823E-003	3.30282E-004	4.71667E-004	-8.97107E-003	5.52764E-004
	146	146	4.99857E-002	-1.25089E-002	0.00000E+000	-6.25267E-004	-1.23226E-001	3.95198E-002	3.52249E+001	11	...........	6.59393E-002	-5.26486E-003	6.09671E-001	5.35014E-001	-2.60558E-002	-3.71610E-002	7.06963E-001	-4.37165E-002	-8.24829E-004	6.58577E-005	-7.62633E-003	-6.69244E-003	3.25930E-004	4.64843E-004	-8.84333E-003	5.46846E-004
	147	147	4.99848E-002	-1.22739E-002	0.00000E+000	-6.13511E-004	-1.20892E-001	3.93381E-002	3.42901E+001	11	...........	6.56210E-002	-5.21514E-003	6.09657E-001	5.35172E-001	-2.60390E-002	-3.71640E-002	7.06991E-001	-4.36106E-002	-8.05428E-004	6.40103E-005	-7.48290E-003	-6.56866E-003	3.19601E-004	4.56149E-004	-8.67756E-003	5.35273E-004
	148	148	4.99877E-002	-1.23120E-002	0.00000E+000	-6.15446E-004	-1.21265E-001	3.96228E-002	3.51431E+001	11	...........	6.60918E-002	-5.29681E-003	6.09634E-001	5.35181E-001	-2.60500E-002	-3.71387E-002	7.06985E-001	-4.35458E-002	-8.13720E-004	6.52141E-005	-7.50579E-003	-6.58912E-003	3.20727E-004	4.57251E-004	-8.70437E-003	5.36135E-004
	149	149	4.99860E-002	-1.20642E-002	0.00000E+000	-6.03043E-004	-1.18815E-001	3.94099E-002	3.50878E+001	11	...........	6.57510E-002	-5.32750E-003	6.09632E-001	5.35265E-001	-2.60161E-002	-3.71425E-002	7.07003E-001	-4.35789E-002	-7.93234E-004	6.42721E-005	-7.35474E-003	-6.45756E-003	3.13864E-004	4.48095E-004	-8.52945E-003	5.25745E-004
	150	150	4.99849E-002	-1.19998E-002	0.00000E+000	-5.99807E-004	-1.18179E-001	3.95897E-002	3.55448E+001	11	...........	6.60565E-002	-5.33625E-003	6.09716E-001	5.35280E-001	-2.60543E-002	-3.71640E-002	7.06990E-001	-4.35207E-002	-7.92663E-004	6.40338E-005	-7.31645E-003	-6.42324E-003	3.12646E-004	4.45960E-004	-8.48371E-003	5.22238E-004
	151	151	4.99858E-002	-1.18720E-002	0.00000E+000	-5.93431E-004	-1.16914E-001	3.95283E-002	3.53390E+001	11	...........	6.59476E-002	-5.31236E-003	6.09599E-001	5.35342E-001	-2.60586E-002	-3.71735E-002	7.06952E-001	-4.35915E-002	-7.82929E-004	6.30683E-005	-7.23715E-003	-6.35558E-003	3.09367E-004	4.41323E-004	-8.39292E-003	5.17518E-004
	152	152	4.99847E-002	-1.16227E-002	0.00000E+000	-5.80956E-004	-1.14405E-001	3.94237E-002	3.48376E+001	11	...........	6.57789E-002	-5.28694E-003	6.09656E-001	5.35241E-001	-2.60687E-002	-3.71903E-002	7.07029E-001	-4.36037E-002	-7.64527E-004	6.14485E-005	-7.08584E-003	-6.22094E-003	3.02989E-004	4.32251E-004	-8.21758E-003	5.06793E-004
	153	153	4.99863E-002	-1.15319E-002	0.00000E+000	-5.76438E-004	-1.13504E-001	3.95947E-002	3.47904E+001	11	...........	6.60315E-002	-5.35014E-003	6.09581E-001	5.35234E-001	-2.60694E-002	-3.72031E-002	7.07063E-001	-4.37375E-002	-7.61470E-004	6.16974E-005	-7.02964E-003	-6.17228E-003	3.00631E-004	4.29023E-004	-8.15380E-003	5.04377E-004
	154	154	4.99850E-002	-1.13398E-002	0.00000E+000	-5.66822E-004	-1.11592E-001	3.95212E-002	3.49806E+001	11	...........	6.59343E-002	-5.36639E-003	6.09541E-001	5.35302E-001	-2.60753E-002	-3.72317E-002	7.07094E-001	-4.37285E-002	-7.47684E-004	6.08540E-005	-6.91210E-003	-6.07024E-003	2.95689E-004	4.22201E-004	-8.01833E-003	4.95874E-004
	155	155	4.99868E-002	-1.12414E-002	0.00000E+000	-5.61924E-004	-1.10619E-001	3.95322E-002	3.53563E+001	11	...........	6.59493E-002	-5.36097E-003	6.09614E-001	5.35243E-001	-2.61100E-002	-3.72554E-002	7.07142E-001	-4.37467E-002	-7.41365E-004	6.02650E-005	-6.85293E-003	-6.01690E-003	2.93514E-004	4.18804E-004	-7.94929E-003	4.91775E-004
	156	156	4.99863E-002	-1.11978E-002	0.00000E+000	-5.59738E-004	-1.10183E-001	3.95718E-002	3.53065E+001	11	...........	6.60267E-002	-5.23847E-003	6.09426E-001	5.35198E-001	-2.61025E-002	-3.72694E-002	7.07103E-001	-4.37490E-002	-7.39356E-004	5.86596E-005	-6.82425E-003	-5.99306E-003	2.92292E-004	4.17337E-004	-7.91803E-003	4.89895E-004
	157	157	4.99843E-002	-1.09961E-002	0.00000E+000	-5.49631E-004	-1.08173E-001	3.95970E-002	3.55302E+001	11	...........	6.60403E-002	-5.20889E-003	6.09351E-001	5.35205E-001	-2.61026E-002	-3.72681E-002	7.07126E-001	-4.35765E-002	-7.26185E-004	5.72774E-005	-6.70048E-003	-5.88516E-003	2.87027E-004	4.09803E-004	-7.77562E-003	4.79171E-004
	158	158	4.99837E-002	-1.07749E-002	0.00000E+000	-5.38570E-004	-1.05972E-001	3.95087E-002	3.39589E+001	11	...........	6.59003E-002	-5.18514E-003	6.09365E-001	5.35033E-001	-2.61042E-002	-3.72618E-002	7.07118E-001	-4.36060E-002	-7.10069E-004	5.58693E-005	-6.56584E-003	-5.76493E-003	2.81270E-004	4.01492E-004	-7.61912E-003	4.69850E-004
	159	159	4.99901E-002	-1.07176E-002	0.00000E+000	-5.35772E-004	-1.05403E-001	3.96349E-002	3.52224E+001	11	...........	6.61271E-002	-5.18444E-003	6.09401E-001	5.35116E-001	-2.61085E-002	-3.72422E-002	7.06891E-001	-4.34476E-002	-7.08721E-004	5.55646E-005	-6.53130E-003	-5.73514E-003	2.79819E-004	3.99146E-004	-7.57616E-003	4.65653E-004
	160	160	4.99858E-002	-1.06595E-002	0.00000E+000	-5.32822E-004	-1.04819E-001	3.95571E-002	3.54920E+001	11	...........	6.59861E-002	-5.29264E-003	6.09268E-001	5.35234E-001	-2.61189E-002	-3.72256E-002	7.06937E-001	-4.35000E-002	-7.03376E-004	5.64167E-005	-6.49447E-003	-5.70530E-003	2.78413E-004	3.96804E-004	-7.53557E-003	4.63686E-004
	161	161	4.99841E-002	-1.05485E-002	0.00000E+000	-5.27256E-004	-1.03723E-001	3.96254E-002	3.50279E+001	11	...........	6.61117E-002	-5.24625E-003	6.09269E-001	5.35332E-001	-2.61126E-002	-3.71968E-002	7.07039E-001	-4.35610E-002	-6.97377E-004	5.53399E-005	-6.42686E-003	-5.64694E-003	2.75448E-004	3.92369E-004	-7.45818E-003	4.59502E-004
	162	162	4.99874E-002	-1.03339E-002	0.00000E+000	-5.16564E-004	-1.01637E-001	3.95942E-002	3.56873E+001	11	...........	6.60574E-002	-5.24972E-003	6.09286E-001	5.35449E-001	-2.61479E-002	-3.72031E-002	7.06944E-001	-4.35146E-002	-6.82629E-004	5.42500E-005	-6.29629E-003	-5.53327E-003	2.70210E-004	3.84452E-004	-7.30548E-003	4.49675E-004
	163	163	4.99815E-002	-1.02450E-002	0.00000E+000	-5.12061E-004	-1.00747E-001	3.96211E-002	3.44932E+001	11	...........	6.60930E-002	-5.27431E-003	6.09389E-001	5.35304E-001	-2.61793E-002	-3.71918E-002	7.06936E-001	-4.35958E-002	-6.77125E-004	5.40354E-005	-6.24320E-003	-5.48420E-003	2.68207E-004	3.81031E-004	-7.24257E-003	4.46640E-004
	164	164	4.99898E-002	-1.00111E-002	0.00000E+000	-5.00451E-004	-9.84213E-002	3.94828E-002	3.51518E+001	11	...........	6.58703E-002	-5.28028E-003	6.09393E-001	5.35178E-001	-2.61786E-002	-3.71932E-002	7.06806E-001	-4.36428E-002	-6.59432E-004	5.28613E-005	-6.10068E-003	-5.35771E-003	2.62076E-004	3.72344E-004	-7.07588E-003	4.36911E-004
	165	165	4.99877E-002	-1.00961E-002	0.00000E+000	-5.04681E-004	-9.92820E-002	3.96645E-002	3.54256E+001	11	...........	6.61728E-002	-5.28736E-003	6.09549E-001	5.35242E-001	-2.61685E-002	-3.71949E-002	7.06803E-001	-4.35953E-002	-6.68087E-004	5.33817E-005	-6.15407E-003	-5.40386E-003	2.64199E-004	3.75523E-004	-7.13595E-003	4.40142E-004
	166	166	4.99855E-002	-9.89181E-003	0.00000E+000	-4.94447E-004	-9.72353E-002	3.95491E-002	3.53501E+001	11	...........	6.59724E-002	-5.18500E-003	6.09655E-001	5.35247E-001	-2.61825E-002	-3.71872E-002	7.06730E-001	-4.35732E-002	-6.52586E-004	5.12890E-005	-6.03059E-003	-5.29456E-003	2.58992E-004	3.67849E-004	-6.99084E-003	4.31018E-004
	167	167	4.99859E-002	-9.83950E-003	0.00000E+000	-4.91836E-004	-9.67083E-002	3.97176E-002	3.58648E+001	11	...........	6.62568E-002	-5.27625E-003	6.09676E-001	5.35195E-001	-2.61936E-002	-3.71814E-002	7.06678E-001	-4.35767E-002	-6.51934E-004	5.19156E-005	-5.99890E-003	-5.26605E-003	2.57732E-004	3.65846E-004	-6.95336E-003	4.28772E-004
	168	168	4.99858E-002	-9.74364E-003	0.00000E+000	-4.87044E-004	-9.57643E-002	3.96630E-002	3.55179E+001	11	...........	6.61835E-002	-5.28653E-003	6.09676E-001	5.35049E-001	-2.62099E-002	-3.71807E-002	7.06824E-001	-4.35025E-002	-6.44868E-004	5.15100E-005	-5.94047E-003	-5.21333E-003	2.55379E-004	3.62275E-004	-6.88704E-003	4.23873E-004
	169	169	4.99844E-002	-9.51564E-003	0.00000E+000	-4.75633E-004	-9.35120E-002	3.95218E-002	3.40580E+001	11	...........	6.59411E-002	-5.27958E-003	6.09734E-001	5.35041E-001	-2.62096E-002	-3.71843E-002	7.06823E-001	-4.36479E-002	-6.27472E-004	5.02386E-005	-5.80201E-003	-5.09125E-003	2.49401E-004	3.53832E-004	-6.72587E-003	4.15338E-004
	170	170	4.99887E-002	-9.41044E-003	0.00000E+000	-4.70415E-004	-9.24610E-002	3.96782E-002	3.55450E+001	11	...........	6.61917E-002	-5.22639E-003	6.09755E-001	5.35098E-001	-2.62206E-002	-3.71750E-002	7.06818E-001	-4.36583E-002	-6.22892E-004	4.91826E-005	-5.73806E-003	-5.03551E-003	2.46747E-004	3.49833E-004	-6.65147E-003	4.10844E-004
	171	171	4.99858E-002	-9.40474E-003	0.00000E+000	-4.70103E-004	-9.24023E-002	3.96738E-002	3.59901E+001	11	...........	6.61986E-002	-5.19958E-003	6.09751E-001	5.35061E-001	-2.62072E-002	-3.71719E-002	7.06890E-001	-4.36635E-002	-6.22581E-004	4.89007E-005	-5.73455E-003	-5.03211E-003	2.46472E-004	3.49592E-004	-6.64812E-003	4.10644E-004
	172	172	4.99848E-002	-9.25949E-003	0.00000E+000	-4.62834E-004	-9.09430E-002	3.96743E-002	3.53379E+001	11	...........	6.61782E-002	-5.25194E-003	6.09811E-001	5.35268E-001	-2.61871E-002	-3.71687E-002	7.06882E-001	-4.36908E-002	-6.12776E-004	4.86303E-005	-5.64654E-003	-4.95631E-003	2.42479E-004	3.44164E-004	-6.54537E-003	4.04555E-004
	173	173	4.99845E-002	-9.03398E-003	0.00000E+000	-4.51559E-004	-8.86973E-002	3.95818E-002	3.41287E+001	11	...........	6.60368E-002	-5.31819E-003	6.09701E-001	5.35291E-001	-2.62000E-002	-3.71772E-002	7.06886E-001	-4.37010E-002	-5.96575E-004	4.80445E-005	-5.50803E-003	-4.83581E-003	2.36690E-004	3.35858E-004	-6.38599E-003	3.94794E-004
	174	174	4.99896E-002	-8.99267E-003	0.00000E+000	-4.49540E-004	-8.82643E-002	3.97323E-002	3.56686E+001	11	...........	6.62915E-002	-5.42375E-003	6.09649E-001	5.35326E-001	-2.62040E-002	-3.71737E-002	7.06857E-001	-4.35960E-002	-5.96138E-004	4.87740E-005	-5.48238E-003	-4.81401E-003	2.35644E-004	3.34291E-004	-6.35654E-003	3.92044E-004
	175	175	4.99850E-002	-8.97803E-003	0.00000E+000	-4.48767E-004	-8.81313E-002	3.96498E-002	3.57827E+001	11	...........	6.61450E-002	-5.30806E-003	6.09623E-001	5.35217E-001	-2.61981E-002	-3.71542E-002	7.06782E-001	-4.37156E-002	-5.93852E-004	4.76559E-005	-5.47321E-003	-4.80520E-003	2.35207E-004	3.33571E-004	-6.34551E-003	3.92480E-004
	176	176	4.99863E-002	-8.81489E-003	0.00000E+000	-4.40624E-004	-8.65120E-002	3.96586E-002	3.52370E+001	11	...........	6.61636E-002	-5.31042E-003	6.09593E-001	5.35295E-001	-2.61957E-002	-3.71462E-002	7.06681E-001	-4.36965E-002	-5.83225E-004	4.68108E-005	-5.37350E-003	-4.71857E-003	2.30912E-004	3.27440E-004	-6.22931E-003	3.85180E-004
	177	177	4.99864E-002	-8.75165E-003	0.00000E+000	-4.37464E-004	-8.58823E-002	3.97531E-002	3.58674E+001	11	...........	6.63293E-002	-5.37431E-003	6.09575E-001	5.35229E-001	-2.61843E-002	-3.71633E-002	7.06768E-001	-4.37126E-002	-5.80491E-004	4.70340E-005	-5.33479E-003	-4.68414E-003	2.29156E-004	3.25240E-004	-6.18538E-003	3.82558E-004
	178	178	4.99844E-002	-8.63978E-003	0.00000E+000	-4.31854E-004	-8.47647E-002	3.96997E-002	3.51220E+001	11	...........	6.62256E-002	-5.39750E-003	6.09506E-001	5.35002E-001	-2.61526E-002	-3.71649E-002	7.06780E-001	-4.38174E-002	-5.72174E-004	4.66332E-005	-5.26600E-003	-4.62230E-003	2.25953E-004	3.21096E-004	-6.10642E-003	3.78572E-004
	179	179	4.99864E-002	-8.51517E-003	0.00000E+000	-4.25643E-004	-8.35193E-002	3.96430E-002	3.49317E+001	11	...........	6.61326E-002	-5.38750E-003	6.09460E-001	5.34762E-001	-2.61408E-002	-3.71517E-002	7.06825E-001	-4.38096E-002	-5.63131E-004	4.58755E-005	-5.18966E-003	-4.55359E-003	2.22594E-004	3.16353E-004	-6.01874E-003	3.73046E-004
	180	180	4.99888E-002	-8.46590E-003	0.00000E+000	-4.23200E-004	-8.30367E-002	3.97179E-002	3.59744E+001	11	...........	6.62658E-002	-5.39222E-003	6.09584E-001	5.34633E-001	-2.61337E-002	-3.71724E-002	7.06921E-001	-4.38718E-002	-5.61000E-004	4.56500E-005	-5.16067E-003	-4.52615E-003	2.21246E-004	3.14697E-004	-5.98472E-003	3.71414E-004
	181	181	4.99860E-002	-8.41623E-003	0.00000E+000	-4.20694E-004	-8.25430E-002	3.97069E-002	3.58597E+001	11	...........	6.62457E-002	-5.29278E-003	6.09878E-001	5.34585E-001	-2.61483E-002	-3.72110E-002	7.06697E-001	-4.38096E-002	-5.57539E-004	4.45453E-005	-5.13287E-003	-4.49919E-003	2.20070E-004	3.13176E-004	-5.94773E-003	3.68712E-004
	182	182	4.99864E-002	-8.25156E-003	0.00000E+000	-4.12466E-004	-8.09027E-002	3.96442E-002	3.54090E+001	11	...........	6.61394E-002	-5.31514E-003	6.09870E-001	5.34508E-001	-2.61554E-002	-3.72218E-002	7.06755E-001	-4.36912E-002	-5.45754E-004	4.38582E-005	-5.03238E-003	-4.41053E-003	2.15823E-004	3.07138E-004	-5.83183E-003	3.60521E-004
	183	183	4.99855E-002	-8.17956E-003	0.00000E+000	-4.08859E-004	-8.01820E-002	3.97522E-002	3.51150E+001	11	...........	6.63296E-002	-5.33764E-003	6.09809E-001	5.34586E-001	-2.61418E-002	-3.72019E-002	7.06721E-001	-4.36107E-002	-5.42547E-004	4.36595E-005	-4.98797E-003	-4.37268E-003	2.13828E-004	3.04295E-004	-5.78067E-003	3.56716E-004
	184	184	4.99882E-002	-8.05275E-003	0.00000E+000	-4.02542E-004	-7.89237E-002	3.96037E-002	3.52216E+001	11	...........	6.60624E-002	-5.18417E-003	6.09642E-001	5.34497E-001	-2.61301E-002	-3.71724E-002	7.06794E-001	-4.36228E-002	-5.31983E-004	4.17468E-005	-4.90929E-003	-4.30417E-003	2.10419E-004	2.99340E-004	-5.69163E-003	3.51283E-004
	185	185	4.99862E-002	-8.06581E-003	0.00000E+000	-4.03179E-004	-7.90603E-002	3.97816E-002	3.60308E+001	11	...........	6.63599E-002	-5.23833E-003	6.09717E-001	5.34280E-001	-2.61494E-002	-3.71807E-002	7.06767E-001	-4.38179E-002	-5.35246E-004	4.22514E-005	-4.91786E-003	-4.30940E-003	2.10916E-004	2.99892E-004	-5.70065E-003	3.53427E-004
	186	186	4.99862E-002	-7.97021E-003	0.00000E+000	-3.98401E-004	-7.81157E-002	3.98088E-002	3.59697E+001	11	...........	6.64087E-002	-5.23764E-003	6.09735E-001	5.34357E-001	-2.61808E-002	-3.71664E-002	7.06790E-001	-4.37161E-002	-5.29292E-004	4.17451E-005	-4.85972E-003	-4.25894E-003	2.08667E-004	2.96224E-004	-5.63327E-003	3.48427E-004
	187	187	4.99850E-002	-7.80752E-003	0.00000E+000	-3.90258E-004	-7.65007E-002	3.97303E-002	3.55029E+001	11	...........	6.62882E-002	-5.25583E-003	6.09750E-001	5.34468E-001	-2.61807E-002	-3.71650E-002	7.06958E-001	-4.37407E-002	-5.17546E-004	4.10350E-005	-4.76063E-003	-4.17287E-003	2.04406E-004	2.90166E-004	-5.51959E-003	3.41506E-004
	188	188	4.99847E-002	-7.67141E-003	0.00000E+000	-3.83453E-004	-7.51453E-002	3.97507E-002	3.44406E+001	11	...........	6.63200E-002	-5.23736E-003	6.09695E-001	5.34452E-001	-2.62142E-002	-3.71574E-002	7.06880E-001	-4.37294E-002	-5.08768E-004	4.01780E-005	-4.67722E-003	-4.10000E-003	2.01100E-004	2.85049E-004	-5.42276E-003	3.35467E-004
	189	189	4.99904E-002	-7.63102E-003	0.00000E+000	-3.81478E-004	-7.47630E-002	3.97688E-002	3.57063E+001	11	...........	6.63457E-002	-5.09083E-003	6.09702E-001	5.34517E-001	-2.61864E-002	-3.71471E-002	7.06866E-001	-4.35962E-002	-5.06285E-004	3.88482E-005	-4.65265E-003	-4.07891E-003	1.99829E-004	2.83470E-004	-5.39411E-003	3.32684E-004
	190	190	4.99861E-002	-7.63263E-003	0.00000E+000	-3.81525E-004	-7.47747E-002	3.97864E-002	3.59543E+001	11	...........	6.63835E-002	-5.29681E-003	6.09900E-001	5.34493E-001	-2.61869E-002	-3.71314E-002	7.06867E-001	-4.34236E-002	-5.06680E-004	4.04285E-005	-4.65514E-003	-4.07958E-003	1.99875E-004	2.83410E-004	-5.39525E-003	3.31436E-004
	191	191	4.99852E-002	-7.47436E-003	0.00000E+000	-3.73607E-004	-7.31863E-002	3.96882E-002	3.53117E+001	11	...........	6.62231E-002	-5.32083E-003	6.09854E-001	5.34438E-001	-2.61818E-002	-3.71104E-002	7.06964E-001	-4.35936E-002	-4.94975E-004	3.97698E-005	-4.55827E-003	-3.99458E-003	1.95692E-004	2.77377E-004	-5.28411E-003	3.25834E-004
	192	192	4.99875E-002	-7.44535E-003	0.00000E+000	-3.72175E-004	-7.28810E-002	3.98607E-002	3.58753E+001	11	...........	6.65011E-002	-5.25889E-003	6.09950E-001	5.34398E-001	-2.61768E-002	-3.71390E-002	7.07021E-001	-4.36207E-002	-4.95124E-004	3.91543E-005	-4.54129E-003	-3.97878E-003	1.94896E-004	2.76513E-004	-5.26402E-003	3.24771E-004
	193	193	4.99855E-002	-7.34023E-003	0.00000E+000	-3.66905E-004	-7.18737E-002	3.97758E-002	3.52580E+001	11	...........	6.63417E-002	-5.25764E-003	6.09938E-001	5.34338E-001	-2.61869E-002	-3.71646E-002	7.06981E-001	-4.35419E-002	-4.86963E-004	3.85923E-005	-4.47708E-003	-3.92216E-003	1.92218E-004	2.72796E-004	-5.18940E-003	3.19608E-004
	194	194	4.99872E-002	-7.21124E-003	0.00000E+000	-3.60470E-004	-7.05653E-002	3.96037E-002	3.51994E+001	11	...........	6.60718E-002	-5.26847E-003	6.09959E-001	5.34288E-001	-2.61819E-002	-3.71760E-002	7.07020E-001	-4.36800E-002	-4.76460E-004	3.79922E-005	-4.39856E-003	-3.85288E-003	1.88804E-004	2.68085E-004	-5.09849E-003	3.14987E-004
	195	195	4.99876E-002	-7.25714E-003	0.00000E+000	-3.62767E-004	-7.10060E-002	3.99242E-002	3.62191E+001	11	...........	6.66218E-002	-5.31778E-003	6.10106E-001	5.34287E-001	-2.61696E-002	-3.71764E-002	7.06961E-001	-4.36746E-002	-4.83483E-004	3.85918E-005	-4.42762E-003	-3.87739E-003	1.89916E-004	2.69794E-004	-5.13051E-003	3.16952E-004
	196	196	4.99837E-002	-7.16224E-003	0.00000E+000	-3.57995E-004	-7.00933E-002	3.98328E-002	3.53437E+001	11	...........	6.64613E-002	-5.33750E-003	6.09992E-001	5.34246E-001	-2.61775E-002	-3.71687E-002	7.07017E-001	-4.36906E-002	-4.76012E-004	3.82285E-005	-4.36891E-003	-3.82640E-003	1.87490E-004	2.66212E-004	-5.06383E-003	3.12922E-004
	197	197	4.99884E-002	-7.05924E-003	0.00000E+000	-3.52880E-004	-6.90580E-002	3.98147E-002	3.58588E+001	11	...........	6.64344E-002	-5.25167E-003	6.09876E-001	5.34306E-001	-2.61682E-002	-3.71676E-002	7.06985E-001	-4.38208E-002	-4.68977E-004	3.70728E-005	-4.30526E-003	-3.77179E-003	1.84728E-004	2.62375E-004	-4.99078E-003	3.09342E-004
	198	198	4.99865E-002	-6.95788E-003	0.00000E+000	-3.47800E-004	-6.80367E-002	3.98018E-002	3.51870E+001	11	...........	6.63983E-002	-5.26778E-003	6.09896E-001	5.34351E-001	-2.61408E-002	-3.71831E-002	7.06921E-001	-4.37949E-002	-4.61991E-004	3.66526E-005	-4.24358E-003	-3.71795E-003	1.81885E-004	2.58715E-004	-4.91867E-003	3.04719E-004
	199	199	4.99863E-002	-6.80133E-003	0.00000E+000	-3.39973E-004	-6.65013E-002	3.95410E-002	3.46795E+001	11	...........	6.60490E-002	-5.41333E-003	6.10023E-001	5.34327E-001	-2.61742E-002	-3.71731E-002	7.06747E-001	-4.36586E-002	-4.49221E-004	3.68179E-005	-4.14897E-003	-3.63413E-003	1.78019E-004	2.52826E-004	-4.80682E-003	2.96937E-004
	200	200	4.99871E-002	-6.84831E-003	0.00000E+000	-3.42327E-004	-6.70060E-002	3.99920E-002	3.60640E+001	11	...........	6.67279E-002	-5.37944E-003	6.09932E-001	5.34344E-001	-2.62062E-002	-3.71889E-002	7.06751E-001	-4.35972E-002	-4.56973E-004	3.68401E-005	-4.17701E-003	-3.65935E-003	1.79469E-004	2.54681E-004	-4.84005E-003	2.98567E-004
	201	201	4.99868E-002	-6.81241E-003	0.00000E+000	-3.40531E-004	-6.65827E-002	3.98736E-002	3.54627E+001	11	...........	6.65203E-002	-5.34125E-003	6.09869E-001	5.34281E-001	-2.61790E-002	-3.71818E-002	7.06840E-001	-4.35954E-002	-4.53164E-004	3.63868E-005	-4.15468E-003	-3.63974E-003	1.78342E-004	2.53298E-004	-4.81528E-003	2.96990E-004
	202	202	4.99864E-002	-6.66114E-003	0.00000E+000	-3.32966E-004	-6.51063E-002	3.98025E-002	3.59173E+001	11	...........	6.63987E-002	-5.19278E-003	6.09861E-001	5.34367E-001	-2.61942E-002	-3.71758E-002	7.06806E-001	-4.36019E-002	-4.42291E-004	3.45898E-005	-4.06237E-003	-3.55949E-003	1.74483E-004	2.47633E-004	-4.70813E-003	2.90439E-004
	203	203	4.99838E-002	-6.57872E-003	0.00000E+000	-3.28829E-004	-6.42797E-002	3.98456E-002	3.44317E+001	11	...........	6.64737E-002	-5.20458E-003	6.09801E-001	5.34356E-001	-2.62094E-002	-3.71960E-002	7.06757E-001	-4.33703E-002	-4.37312E-004	3.42395E-005	-4.01171E-003	-3.51538E-003	1.72425E-004	2.44702E-004	-4.64956E-003	2.85321E-004
	204	204	4.99902E-002	-6.49240E-003	0.00000E+000	-3.24557E-004	-6.34357E-002	3.97749E-002	3.54608E+001	11	...........	6.63485E-002	-5.19792E-003	6.09839E-001	5.34487E-001	-2.62010E-002	-3.72019E-002	7.06893E-001	-4.35612E-002	-4.30761E-004	3.37470E-005	-3.95932E-003	-3.47010E-003	1.70107E-004	2.41530E-004	-4.58944E-003	2.82817E-004
	205	205	4.99865E-002	-6.53058E-003	0.00000E+000	-3.26441E-004	-6.38487E-002	3.99102E-002	3.55923E+001	11	...........	6.65892E-002	-5.35792E-003	6.09874E-001	5.34557E-001	-2.62011E-002	-3.72169E-002	7.06771E-001	-4.37201E-002	-4.34866E-004	3.49903E-005	-3.98283E-003	-3.49097E-003	1.71108E-004	2.43048E-004	-4.61562E-003	2.85518E-004
	206	206	4.99865E-002	-6.41601E-003	0.00000E+000	-3.20714E-004	-6.26517E-002	3.97771E-002	3.54384E+001	11	...........	6.63562E-002	-5.23903E-003	6.09742E-001	5.34570E-001	-2.61774E-002	-3.72100E-002	7.06893E-001	-4.35339E-002	-4.25743E-004	3.36137E-005	-3.91211E-003	-3.42981E-003	1.67954E-004	2.38740E-004	-4.53544E-003	2.79314E-004
	207	207	4.99865E-002	-6.39986E-003	0.00000E+000	-3.19906E-004	-6.24967E-002	3.99604E-002	3.61042E+001	11	...........	6.66824E-002	-5.31806E-003	6.09693E-001	5.34491E-001	-2.61785E-002	-3.71954E-002	7.06914E-001	-4.36528E-002	-4.26757E-004	3.40348E-005	-3.90195E-003	-3.42067E-003	1.67538E-004	2.38045E-004	-4.52415E-003	2.79372E-004
	208	208	4.99858E-002	-6.32339E-003	0.00000E+000	-3.16080E-004	-6.17377E-002	3.98787E-002	3.50472E+001	11	...........	6.65275E-002	-5.37986E-003	6.09553E-001	5.34457E-001	-2.61439E-002	-3.72082E-002	7.06787E-001	-4.36472E-002	-4.20680E-004	3.40190E-005	-3.85444E-003	-3.37958E-003	1.65318E-004	2.35282E-004	-4.46929E-003	2.75999E-004
	209	209	4.99870E-002	-6.18374E-003	0.00000E+000	-3.09106E-004	-6.03423E-002	3.98042E-002	3.51684E+001	11	...........	6.63918E-002	-5.33653E-003	6.09575E-001	5.34564E-001	-2.61112E-002	-3.72236E-002	7.06802E-001	-4.37164E-002	-4.10550E-004	3.29997E-005	-3.76946E-003	-3.30561E-003	1.61465E-004	2.30181E-004	-4.37068E-003	2.70331E-004
	210	210	4.99881E-002	-6.19999E-003	0.00000E+000	-3.09926E-004	-6.05083E-002	3.98575E-002	3.55746E+001	11	...........	6.64925E-002	-5.29931E-003	6.09595E-001	5.34700E-001	-2.61012E-002	-3.72275E-002	7.06852E-001	-4.37176E-002	-4.12252E-004	3.28556E-005	-3.77948E-003	-3.31513E-003	1.61827E-004	2.30810E-004	-4.38247E-003	2.71049E-004
	211	211	4.99863E-002	-6.13472E-003	0.00000E+000	-3.06652E-004	-5.98483E-002	3.98026E-002	3.59878E+001	11	...........	6.64199E-002	-5.28708E-003	6.09701E-001	5.34776E-001	-2.61129E-002	-3.72093E-002	7.06956E-001	-4.36897E-002	-4.07467E-004	3.24348E-005	-3.74035E-003	-3.28070E-003	1.60196E-004	2.28269E-004	-4.33698E-003	2.68024E-004
	212	212	4.99872E-002	-6.11230E-003	0.00000E+000	-3.05537E-004	-5.96247E-002	3.99266E-002	3.55246E+001	11	...........	6.66103E-002	-5.22875E-003	6.09706E-001	5.34840E-001	-2.61074E-002	-3.72211E-002	7.06913E-001	-4.36061E-002	-4.07142E-004	3.19597E-005	-3.72671E-003	-3.26910E-003	1.59576E-004	2.27507E-004	-4.32087E-003	2.66534E-004
	213	213	4.99857E-002	-5.98312E-003	0.00000E+000	-2.99070E-004	-5.83430E-002	3.98649E-002	3.57323E+001	11	...........	6.65099E-002	-5.29403E-003	6.09493E-001	5.34943E-001	-2.61204E-002	-3.72181E-002	7.06838E-001	-4.35053E-002	-3.97936E-004	3.16748E-005	-3.64667E-003	-3.20063E-003	1.56282E-004	2.22680E-004	-4.22909E-003	2.60297E-004
	214	214	4.99860E-002	-5.88980E-003	0.00000E+000	-2.94408E-004	-5.74130E-002	3.97736E-002	3.43746E+001	11	...........	6.63378E-002	-5.30458E-003	6.09403E-001	5.35102E-001	-2.60885E-002	-3.72265E-002	7.06754E-001	-4.36160E-002	-3.90717E-004	3.12430E-005	-3.58926E-003	-3.15165E-003	1.53656E-004	2.19257E-004	-4.16264E-003	2.56890E-004
	215	215	4.99881E-002	-5.85478E-003	0.00000E+000	-2.92670E-004	-5.70673E-002	3.99298E-002	3.55882E+001	11	...........	6.66085E-002	-5.27681E-003	6.09384E-001	5.35107E-001	-2.60949E-002	-3.72461E-002	7.06820E-001	-4.34996E-002	-3.89978E-004	3.08946E-005	-3.56781E-003	-3.13294E-003	1.52780E-004	2.18068E-004	-4.13828E-003	2.54681E-004
	216	216	4.99867E-002	-5.87317E-003	0.00000E+000	-2.93580E-004	-5.72610E-002	3.99625E-002	3.62013E+001	11	...........	6.66636E-002	-5.37625E-003	6.09433E-001	5.35116E-001	-2.61196E-002	-3.72521E-002	7.06872E-001	-4.34846E-002	-3.91527E-004	3.15756E-005	-3.57931E-003	-3.14283E-003	1.53405E-004	2.18788E-004	-4.15158E-003	2.55392E-004
	217	217	4.99867E-002	-5.80213E-003	0.00000E+000	-2.90029E-004	-5.65377E-002	3.99132E-002	3.61545E+001	11	...........	6.65949E-002	-5.34931E-003	6.09452E-001	5.35184E-001	-2.61153E-002	-3.72772E-002	7.06874E-001	-4.34543E-002	-3.86392E-004	3.10373E-005	-3.53612E-003	-3.10520E-003	1.51524E-004	2.16287E-004	-4.10137E-003	2.52127E-004
	218	218	4.99852E-002	-5.71042E-003	0.00000E+000	-2.85437E-004	-5.56383E-002	3.98784E-002	3.46168E+001	11	...........	6.65258E-002	-5.38958E-003	6.09629E-001	5.35146E-001	-2.60865E-002	-3.72597E-002	7.06788E-001	-4.35106E-002	-3.79890E-004	3.07768E-005	-3.48124E-003	-3.05591E-003	1.48965E-004	2.12769E-004	-4.03606E-003	2.48464E-004
	219	219	4.99884E-002	-5.63774E-003	0.00000E+000	-2.81822E-004	-5.49013E-002	3.99981E-002	3.56156E+001	11	...........	6.67379E-002	-5.36167E-003	6.09589E-001	5.35195E-001	-2.61121E-002	-3.72424E-002	7.06688E-001	-4.36981E-002	-3.76251E-004	3.02277E-005	-3.43670E-003	-3.01729E-003	1.47213E-004	2.09963E-004	-3.98412E-003	2.46358E-004
	220	220	4.99864E-002	-5.56897E-003	0.00000E+000	-2.78373E-004	-5.42247E-002	3.97166E-002	3.48492E+001	11	...........	6.62675E-002	-5.32083E-003	6.09599E-001	5.35254E-001	-2.61281E-002	-3.72487E-002	7.06689E-001	-4.36989E-002	-3.69042E-004	2.96315E-005	-3.39484E-003	-2.98081E-003	1.45506E-004	2.07437E-004	-3.93553E-003	2.43358E-004
	221	221	4.99871E-002	-5.55112E-003	0.00000E+000	-2.77484E-004	-5.40647E-002	3.99799E-002	3.58136E+001	11	...........	6.67043E-002	-5.26750E-003	6.09450E-001	5.35157E-001	-2.60939E-002	-3.72482E-002	7.06668E-001	-4.36965E-002	-3.70283E-004	2.92405E-005	-3.38313E-003	-2.97072E-003	1.44850E-004	2.06769E-004	-3.92280E-003	2.42565E-004
	222	222	4.99869E-002	-5.52124E-003	0.00000E+000	-2.75989E-004	-5.37507E-002	3.99738E-002	3.60922E+001	11	...........	6.66839E-002	-5.15819E-003	6.09368E-001	5.34934E-001	-2.60668E-002	-3.72476E-002	7.06709E-001	-4.36246E-002	-3.68178E-004	2.84796E-005	-3.36447E-003	-2.95350E-003	1.43921E-004	2.05653E-004	-3.90191E-003	2.40862E-004
	223	223	4.99862E-002	-5.44485E-003	0.00000E+000	-2.72167E-004	-5.29857E-002	3.98733E-002	3.51428E+001	11	...........	6.65276E-002	-5.12125E-003	6.09372E-001	5.34924E-001	-2.60867E-002	-3.72507E-002	7.06747E-001	-4.35503E-002	-3.62233E-004	2.78844E-005	-3.31794E-003	-2.91258E-003	1.42038E-004	2.02824E-004	-3.84813E-003	2.37125E-004
	224	224	4.99879E-002	-5.41525E-003	0.00000E+000	-2.70697E-004	-5.27277E-002	3.99740E-002	3.57171E+001	11	...........	6.66922E-002	-5.31958E-003	6.09334E-001	5.34998E-001	-2.60762E-002	-3.72526E-002	7.06776E-001	-4.36176E-002	-3.61155E-004	2.88069E-005	-3.29970E-003	-2.89715E-003	1.41210E-004	2.01732E-004	-3.82737E-003	2.36201E-004
	225	225	4.99866E-002	-5.31915E-003	0.00000E+000	-2.65886E-004	-5.17450E-002	3.97709E-002	3.45146E+001	11	...........	6.63732E-002	-5.39819E-003	6.09406E-001	5.35041E-001	-2.60774E-002	-3.72593E-002	7.06814E-001	-4.36810E-002	-3.53049E-004	2.87138E-005	-3.24152E-003	-2.84596E-003	1.38709E-004	1.98188E-004	-3.75965E-003	2.32346E-004
	226	226	4.99870E-002	-5.28584E-003	0.00000E+000	-2.64223E-004	-5.14163E-002	3.99977E-002	3.56585E+001	11	...........	6.67299E-002	-5.33833E-003	6.09457E-001	5.35097E-001	-2.60639E-002	-3.72549E-002	7.06766E-001	-4.34958E-002	-3.52723E-004	2.82176E-005	-3.22149E-003	-2.82844E-003	1.37770E-004	1.96923E-004	-3.73585E-003	2.29912E-004
	227	227	4.99873E-002	-5.27347E-003	0.00000E+000	-2.63606E-004	-5.13093E-002	3.99187E-002	3.60667E+001	11	...........	6.66044E-002	-5.32097E-003	6.09406E-001	5.35263E-001	-2.60921E-002	-3.72344E-002	7.06853E-001	-4.33733E-002	-3.51237E-004	2.80600E-005	-3.21369E-003	-2.82269E-003	1.37596E-004	1.96355E-004	-3.72757E-003	2.28728E-004
	228	228	4.99866E-002	-5.22988E-003	0.00000E+000	-2.61424E-004	-5.08830E-002	3.99738E-002	3.57946E+001	11	...........	6.66932E-002	-5.31986E-003	6.09451E-001	5.35345E-001	-2.61342E-002	-3.72325E-002	7.06881E-001	-4.34232E-002	-3.48798E-004	2.78223E-005	-3.18736E-003	-2.79979E-003	1.36679E-004	1.94722E-004	-3.69690E-003	2.27098E-004
	229	229	4.99867E-002	-5.15241E-003	0.00000E+000	-2.57552E-004	-5.00907E-002	3.98823E-002	3.57412E+001	11	...........	6.65285E-002	-5.30458E-003	6.09359E-001	5.35388E-001	-2.61368E-002	-3.72085E-002	7.06851E-001	-4.34832E-002	-3.42782E-004	2.73314E-005	-3.13967E-003	-2.75854E-003	1.34668E-004	1.91713E-004	-3.64199E-003	2.24043E-004
	230	230	4.99865E-002	-5.10308E-003	0.00000E+000	-2.55085E-004	-4.96253E-002	4.00028E-002	3.54660E+001	11	...........	6.67389E-002	-5.32139E-003	6.09425E-001	5.35334E-001	-2.61726E-002	-3.72056E-002	7.06812E-001	-4.37835E-002	-3.40574E-004	2.71555E-005	-3.10994E-003	-2.73185E-003	1.33561E-004	1.89863E-004	-3.60692E-003	2.23431E-004
	231	230.332	4.99859E-002	-5.05182E-003	0.00000E+000	-2.52520E-004	-4.91116E-002	3.98304E-002	3.53305E+001	11	...........	6.64338E-002	-5.29816E-003	6.09306E-001	5.35334E-001	-2.61612E-002	-3.72056E-002	7.06786E-001	-4.38120E-002	-3.35612E-004	2.67653E-005	-3.07811E-003	-2.70441E-003	1.32162E-004	1.87956E-004	-3.57055E-003	2.21330E-004
STARTTIMEOFFSET	QUANT	701474.8	Start Time Offset (s)
