EXPLAIN
TAG	PWR800_DISCHARGE
TITLE	LABEL	PWR Discharge	Test Identifier
DATE	LABEL	10/13/2022	Date
TIME	LABEL	2:10:42	Time
NOTES	NOTES	1	Notes...
	
PSTAT	PSTAT	REF3000-21114	Potentiostat
CAPACITY	QUANT	5.30000E-002	Capacity (A-hr)
CELLTYPE	SELECTOR	1	Cell Type
WORKINGCONNECTION	SELECTOR	0	Working Connection
MAXDISCHARGETIME	VARIABLEANDUNITS	7.20000E+003	s	2.00000E+000	hour(s)	Max Discharge Time
DISCHARGEMODE	MULTIPARAM	0	1.00000E-001	Discharge Mode	Constant Current	Amp(s)
VOLTAGEFINISH	TWOPARAM	T	5.00000E-003	7.20000E+003	Voltage Finish	I (A) <	Max Time(s)
SAMPLETIME	QUANT	1.00000E+000	Sample Period (s)
DISCHARGESTOPAT1	MULTIPARAM	1	5.00000E-002	Stop At 1	|Voltage| < Limit	V
DISCHARGESTOPAT2	MULTIPARAM	0	0.00000E+000	Stop At 2	None	N/A
AESELECTOR	AESELECTOR	0x1	T	Set Limits	AE Channels
AESBHCSELECTOR	TOGGLE	F	Save Both Half Cells
IRCOMP	TOGGLE	F	IR Measure
EOC	QUANT	0.5603377	Open Circuit (V)
SEQUENCER	TOGGLE	TRUE	Run as Sequence
PSTATMODEL	IQUANT	5	Pstat Model
PSTATSECTION	LABEL	REF3000-21114	Pstat Section
PSTATSERIALNO	LABEL	21114	Pstat Serial Number
CTRLMODE	IQUANT	0	Control Mode
ELECTROMETER	IQUANT	0	RE=0 or CS=1
IESTAB	IQUANT	0	I/E Stability
CASPEED	IQUANT	4	Control Amp Speed
CONVENTION	IQUANT	1	Current Convention
ICHRANGE	IQUANT	2	Ich Range
ICHRANGEMODE	TOGGLE	T	Ich Auto Range
ICHOFFSETENABLE	TOGGLE	F	Ich Offset Enable
ICHOFFSET	QUANT	0	Ich Offset (V)
ICHFILTER	IQUANT	1	Ich Filter
VCHRANGE	IQUANT	3	Vch Range
VCHRANGEMODE	TOGGLE	T	Vch Auto Range
VCHOFFSETENABLE	TOGGLE	F	Vch Offset Enable
VCHOFFSET	QUANT	0	Vch Offset (V)
VCHFILTER	IQUANT	1	Vch Filter
ACHRANGE	IQUANT	2	Ach Range
ACHOFFSETENABLE	TOGGLE	F	Ach Offset Enable
ACHOFFSET	QUANT	0	Ach Offset (V)
ACHFILTER	IQUANT	1	Ach Filter
IERANGELOWERLIMIT	IQUANT	9	I/E Range Lower Limit
IERANGEMODE	TOGGLE	F	I/E AutoRange
IERANGE	IQUANT	9	I/E Range
POSFEEDENABLE	TOGGLE	F	Positive Feedback IR Comp
POSFEEDRESISTANCE	QUANT	0	Positive Feedback Resistance (ohm)
ACHSELECT	IQUANT	1	Ach Select
SENSECABLEID	IQUANT	13	Sense Cable ID
PWRCABLEID	IQUANT	13	Power Cable ID
DCCALDATE	LABEL		DC Calibration Date
ACCALDATE	LABEL		AC Calibration Date
THERMOSELECT	IQUANT	1	Thermo Select
FRAMEWORKVERSION	LABEL	7.8.6	Framework Version
INSTRUMENTVERSION	LABEL	4.50	Instrument Version
COMPLIANCEVOLTAGE	IQUANT	0	Compliance Voltage
CURVE	TABLE	172
	Pt	T	Vf	Im	Vu	Pwr	Sig	Ach	Temp	IERange	Over	Vf1	Vf2	Vf3	Vf4	Vf5	Vf6	Vf7	Vf8	Pwr1	Pwr2	Pwr3	Pwr4	Pwr5	Pwr6	Pwr7	Pwr8
	#	s	V	A	V	W	V	V	deg C	#	bits	V	V	V	V	V	V	V	V	W	W	W	W	W	W	W	W
	0	1	3.33100E-001	-1.00104E-001	0.00000E+000	-3.33445E-002	-9.94000E-001	3.84570E-002	2.98362E+001	11	...........	6.36844E-002	-4.69292E-003	5.82416E-001	5.78907E-001	-2.86972E-002	-3.91993E-002	6.78294E-001	-4.36304E-002	-6.37504E-003	4.69778E-004	-5.83020E-002	-5.79507E-002	2.87270E-003	3.92399E-003	-6.78997E-002	4.36756E-003
	1	2	2.43402E-001	-1.00104E-001	0.00000E+000	-2.43655E-002	-9.94000E-001	3.84409E-002	2.94619E+001	11	...........	6.37036E-002	-4.64472E-003	5.82343E-001	5.78949E-001	-2.87096E-002	-3.91894E-002	6.78326E-001	-4.38474E-002	-6.37699E-003	4.64956E-004	-5.82950E-002	-5.79551E-002	2.87395E-003	3.92302E-003	-6.79033E-002	4.38930E-003
	2	3	1.71504E-001	-1.00104E-001	0.00000E+000	-1.71682E-002	-9.94000E-001	3.84233E-002	2.88591E+001	11	...........	6.36360E-002	-4.54764E-003	5.82279E-001	5.78807E-001	-2.86982E-002	-3.92319E-002	6.78298E-001	-4.39153E-002	-6.37023E-003	4.55238E-004	-5.82885E-002	-5.79410E-002	2.87281E-003	3.92728E-003	-6.79005E-002	4.39610E-003
	3	4	1.08660E-001	-1.00105E-001	0.00000E+000	-1.08774E-002	-9.94000E-001	3.83423E-002	2.82742E+001	11	...........	6.35249E-002	-4.42889E-003	5.82173E-001	5.78713E-001	-2.87247E-002	-3.92093E-002	6.78388E-001	-4.38144E-002	-6.35914E-003	4.43353E-004	-5.82783E-002	-5.79319E-002	2.87548E-003	3.92504E-003	-6.79099E-002	4.38604E-003
	4	4.61333	6.49898E-002	-1.00105E-001	0.00000E+000	-6.50580E-003	-9.94000E-001	3.83318E-002	2.79409E+001	11	...........	6.35383E-002	-4.60303E-003	5.82159E-001	5.78703E-001	-2.86809E-002	-3.92579E-002	6.78467E-001	-4.37781E-002	-6.36049E-003	4.60786E-004	-5.82770E-002	-5.79310E-002	2.87110E-003	3.92991E-003	-6.79179E-002	4.38240E-003
	5	5	4.95124E-002	-9.24747E-002	0.00000E+000	-4.57864E-003	-9.18134E-001	3.84013E-002	2.81805E+001	11	...........	6.37554E-002	-4.73384E-003	5.82147E-001	5.78814E-001	-2.86695E-002	-3.92328E-002	6.78555E-001	-4.37744E-002	-5.89576E-003	4.37760E-004	-5.38338E-002	-5.35257E-002	2.65121E-003	3.62804E-003	-6.27492E-002	4.04803E-003
	6	6	4.97160E-002	-7.52938E-002	0.00000E+000	-3.74331E-003	-7.47317E-001	3.85182E-002	2.87321E+001	11	...........	6.38353E-002	-4.78194E-003	5.82184E-001	5.78657E-001	-2.86683E-002	-3.92310E-002	6.78419E-001	-4.39385E-002	-4.80640E-003	3.60051E-004	-4.38349E-002	-4.35693E-002	2.15855E-003	2.95385E-003	-5.10808E-002	3.30830E-003
	7	7	4.98275E-002	-6.13975E-002	0.00000E+000	-3.05929E-003	-6.09164E-001	3.86074E-002	2.95554E+001	11	...........	6.39331E-002	-4.75528E-003	5.82209E-001	5.78592E-001	-2.86942E-002	-3.92483E-002	6.78377E-001	-4.39522E-002	-3.92533E-003	2.91962E-004	-3.57461E-002	-3.55241E-002	1.76175E-003	2.40975E-003	-4.16506E-002	2.69856E-003
	8	8	4.98796E-002	-5.37673E-002	0.00000E+000	-2.68189E-003	-5.33297E-001	3.86969E-002	3.00833E+001	11	...........	6.41010E-002	-4.64042E-003	5.82265E-001	5.78561E-001	-2.86518E-002	-3.92422E-002	6.78339E-001	-4.38328E-002	-3.44654E-003	2.49503E-004	-3.13068E-002	-3.11077E-002	1.54053E-003	2.10995E-003	-3.64724E-002	2.35677E-003
	9	9	4.99019E-002	-4.89758E-002	0.00000E+000	-2.44399E-003	-4.85682E-001	3.87773E-002	3.04470E+001	11	...........	6.42279E-002	-4.68944E-003	5.82086E-001	5.78549E-001	-2.86690E-002	-3.92561E-002	6.78379E-001	-4.36619E-002	-3.14562E-003	2.29670E-004	-2.85082E-002	-2.83349E-002	1.40409E-003	1.92260E-003	-3.32242E-002	2.13838E-003
	10	10	4.99167E-002	-4.55669E-002	0.00000E+000	-2.27455E-003	-4.51780E-001	3.88583E-002	3.07005E+001	11	...........	6.43508E-002	-4.70278E-003	5.81991E-001	5.78534E-001	-2.86764E-002	-3.92776E-002	6.78498E-001	-4.36917E-002	-2.93227E-003	2.14291E-004	-2.65195E-002	-2.63620E-002	1.30670E-003	1.78976E-003	-3.09171E-002	1.99090E-003
	11	11	4.99259E-002	-4.31560E-002	0.00000E+000	-2.15460E-003	-4.27807E-001	3.89412E-002	3.08273E+001	11	...........	6.45008E-002	-4.74972E-003	5.81887E-001	5.78532E-001	-2.87115E-002	-3.92722E-002	6.78487E-001	-4.39001E-002	-2.78360E-003	2.04979E-004	-2.51119E-002	-2.49672E-002	1.23907E-003	1.69483E-003	-2.92808E-002	1.89455E-003
	12	12	4.99353E-002	-4.14396E-002	0.00000E+000	-2.06930E-003	-4.10753E-001	3.89753E-002	3.09986E+001	11	...........	6.45226E-002	-4.84986E-003	5.81892E-001	5.78487E-001	-2.87000E-002	-3.92958E-002	6.78467E-001	-4.40017E-002	-2.67379E-003	2.00976E-004	-2.41133E-002	-2.39723E-002	1.18932E-003	1.62840E-003	-2.81154E-002	1.82341E-003
	13	13	4.99374E-002	-4.01346E-002	0.00000E+000	-2.00422E-003	-3.97787E-001	3.91882E-002	3.09151E+001	11	...........	6.49179E-002	-4.99000E-003	5.82002E-001	5.78516E-001	-2.86862E-002	-3.93129E-002	6.78407E-001	-4.38014E-002	-2.60545E-003	2.00271E-004	-2.33584E-002	-2.32185E-002	1.15131E-003	1.57781E-003	-2.72276E-002	1.75795E-003
	14	14	4.99369E-002	-3.88443E-002	0.00000E+000	-1.93976E-003	-3.84964E-001	3.90472E-002	3.10315E+001	11	...........	6.46964E-002	-4.94806E-003	5.81942E-001	5.78562E-001	-2.86801E-002	-3.93299E-002	6.78317E-001	-4.37519E-002	-2.51308E-003	1.92204E-004	-2.26051E-002	-2.24738E-002	1.11406E-003	1.52774E-003	-2.63487E-002	1.69951E-003
	15	15	4.99412E-002	-3.75515E-002	0.00000E+000	-1.87537E-003	-3.72097E-001	3.91867E-002	3.07753E+001	11	...........	6.49301E-002	-4.78944E-003	5.81955E-001	5.78590E-001	-2.86833E-002	-3.93443E-002	6.78371E-001	-4.37578E-002	-2.43822E-003	1.79851E-004	-2.18532E-002	-2.17269E-002	1.07710E-003	1.47744E-003	-2.54738E-002	1.64317E-003
	16	16	4.99455E-002	-3.72431E-002	0.00000E+000	-1.86013E-003	-3.69033E-001	3.91658E-002	3.12742E+001	11	...........	6.48878E-002	-4.71611E-003	5.82095E-001	5.78655E-001	-2.86456E-002	-3.93585E-002	6.78425E-001	-4.37706E-002	-2.41662E-003	1.75643E-004	-2.16790E-002	-2.15509E-002	1.06685E-003	1.46583E-003	-2.52667E-002	1.63015E-003
	17	17	4.99430E-002	-3.65962E-002	0.00000E+000	-1.82773E-003	-3.62595E-001	3.91948E-002	3.13654E+001	11	...........	6.49136E-002	-4.88056E-003	5.82121E-001	5.78573E-001	-2.86417E-002	-3.93521E-002	6.78359E-001	-4.38632E-002	-2.37559E-003	1.78610E-004	-2.13034E-002	-2.11736E-002	1.04818E-003	1.44014E-003	-2.48254E-002	1.60523E-003
	18	18	4.99449E-002	-3.59946E-002	0.00000E+000	-1.79775E-003	-3.56615E-001	3.92844E-002	3.15428E+001	11	...........	6.50304E-002	-4.92931E-003	5.82071E-001	5.78556E-001	-2.86376E-002	-3.93796E-002	6.78170E-001	-4.38590E-002	-2.34074E-003	1.77428E-004	-2.09514E-002	-2.08249E-002	1.03080E-003	1.41745E-003	-2.44105E-002	1.57869E-003
	19	19	4.99450E-002	-3.55119E-002	0.00000E+000	-1.77364E-003	-3.51812E-001	3.93150E-002	3.12397E+001	11	...........	6.51232E-002	-4.80069E-003	5.82178E-001	5.78499E-001	-2.86026E-002	-3.93937E-002	6.78315E-001	-4.39137E-002	-2.31265E-003	1.70482E-004	-2.06742E-002	-2.05436E-002	1.01573E-003	1.39895E-003	-2.40882E-002	1.55946E-003
	20	20	4.99440E-002	-3.44367E-002	0.00000E+000	-1.71991E-003	-3.41113E-001	3.91393E-002	3.12937E+001	11	...........	6.50436E-002	-4.82472E-003	5.82209E-001	5.78445E-001	-2.86285E-002	-3.93594E-002	6.78436E-001	-4.40461E-002	-2.23989E-003	1.66148E-004	-2.00494E-002	-1.99198E-002	9.85871E-004	1.35541E-003	-2.33631E-002	1.51680E-003
	21	21	4.99441E-002	-3.41645E-002	0.00000E+000	-1.70632E-003	-3.38407E-001	3.92034E-002	3.16810E+001	11	...........	6.52722E-002	-4.77639E-003	5.82158E-001	5.78358E-001	-2.86003E-002	-3.93204E-002	6.78498E-001	-4.40204E-002	-2.22999E-003	1.63183E-004	-1.98891E-002	-1.97593E-002	9.77114E-004	1.34336E-003	-2.31805E-002	1.50394E-003
	22	22	4.99440E-002	-3.35701E-002	0.00000E+000	-1.67662E-003	-3.32501E-001	3.91690E-002	3.17804E+001	11	...........	6.52340E-002	-4.80986E-003	5.82232E-001	5.78403E-001	-2.85507E-002	-3.93483E-002	6.78460E-001	-4.40369E-002	-2.18991E-003	1.61468E-004	-1.95456E-002	-1.94170E-002	9.58450E-004	1.32093E-003	-2.27760E-002	1.47832E-003
	23	23	4.99409E-002	-3.27684E-002	0.00000E+000	-1.63648E-003	-3.24522E-001	3.91906E-002	3.18228E+001	11	...........	6.53246E-002	-4.83250E-003	5.82285E-001	5.78233E-001	-2.85672E-002	-3.93601E-002	6.78361E-001	-4.40928E-002	-2.14058E-003	1.58353E-004	-1.90805E-002	-1.89478E-002	9.36101E-004	1.28977E-003	-2.22288E-002	1.44485E-003
	24	24	4.99417E-002	-3.22210E-002	0.00000E+000	-1.60917E-003	-3.19079E-001	3.92370E-002	3.13738E+001	11	...........	6.53693E-002	-4.87403E-003	5.82271E-001	5.78217E-001	-2.85889E-002	-3.93343E-002	6.78365E-001	-4.41281E-002	-2.10627E-003	1.57046E-004	-1.87614E-002	-1.86308E-002	9.21164E-004	1.26739E-003	-2.18576E-002	1.42185E-003
	25	25	4.99531E-002	-3.17771E-002	0.00000E+000	-1.58736E-003	-3.14671E-001	3.92481E-002	3.17044E+001	11	...........	6.54410E-002	-4.82806E-003	5.82433E-001	5.78316E-001	-2.86257E-002	-3.93569E-002	6.78378E-001	-4.40874E-002	-2.07952E-003	1.53422E-004	-1.85080E-002	-1.83772E-002	9.09642E-004	1.25065E-003	-2.15569E-002	1.40097E-003
	26	26	4.99486E-002	-3.15593E-002	0.00000E+000	-1.57634E-003	-3.12500E-001	3.93542E-002	3.19141E+001	11	...........	6.55640E-002	-4.82764E-003	5.82528E-001	5.78452E-001	-2.86271E-002	-3.93717E-002	6.78375E-001	-4.39468E-002	-2.06915E-003	1.52357E-004	-1.83842E-002	-1.82555E-002	9.03449E-004	1.24254E-003	-2.14090E-002	1.38693E-003
	27	27	4.99459E-002	-3.11285E-002	0.00000E+000	-1.55474E-003	-3.08231E-001	3.94130E-002	3.19690E+001	11	...........	6.56438E-002	-4.85111E-003	5.82399E-001	5.78486E-001	-2.86276E-002	-3.93506E-002	6.78422E-001	-4.38654E-002	-2.04339E-003	1.51008E-004	-1.81292E-002	-1.80074E-002	8.91135E-004	1.22492E-003	-2.11183E-002	1.36546E-003
	28	28	4.99454E-002	-3.06224E-002	0.00000E+000	-1.52945E-003	-3.03221E-001	3.94157E-002	3.20223E+001	11	...........	6.56992E-002	-4.81333E-003	5.82414E-001	5.78370E-001	-2.85751E-002	-3.93547E-002	6.78515E-001	-4.39665E-002	-2.01186E-003	1.47396E-004	-1.78349E-002	-1.77111E-002	8.75039E-004	1.20514E-003	-2.07777E-002	1.34636E-003
	29	29	4.99473E-002	-3.01623E-002	0.00000E+000	-1.50653E-003	-2.98642E-001	3.94776E-002	3.20713E+001	11	...........	6.57346E-002	-4.80819E-003	5.82376E-001	5.78267E-001	-2.85940E-002	-3.93336E-002	6.78564E-001	-4.38969E-002	-1.98271E-003	1.45026E-004	-1.75658E-002	-1.74419E-002	8.62462E-004	1.18639E-003	-2.04671E-002	1.32403E-003
	30	30	4.99454E-002	-2.97123E-002	0.00000E+000	-1.48399E-003	-2.94161E-001	3.95152E-002	3.21090E+001	11	...........	6.58369E-002	-4.86111E-003	5.82193E-001	5.78223E-001	-2.86326E-002	-3.93724E-002	6.78504E-001	-4.39349E-002	-1.95617E-003	1.44435E-004	-1.72983E-002	-1.71803E-002	8.50741E-004	1.16984E-003	-2.01599E-002	1.30540E-003
	31	31	4.99458E-002	-2.92293E-002	0.00000E+000	-1.45988E-003	-2.89367E-001	3.95417E-002	3.21119E+001	11	...........	6.58660E-002	-4.92847E-003	5.82268E-001	5.78254E-001	-2.86286E-002	-3.94007E-002	6.78605E-001	-4.39237E-002	-1.92522E-003	1.44056E-004	-1.70193E-002	-1.69020E-002	8.36794E-004	1.15165E-003	-1.98352E-002	1.28386E-003
	32	32	4.99461E-002	-2.87544E-002	0.00000E+000	-1.43617E-003	-2.84640E-001	3.95851E-002	3.21744E+001	11	...........	6.59458E-002	-4.85986E-003	5.82132E-001	5.78233E-001	-2.86233E-002	-3.93574E-002	6.78783E-001	-4.40067E-002	-1.89623E-003	1.39742E-004	-1.67388E-002	-1.66267E-002	8.23046E-004	1.13170E-003	-1.95180E-002	1.26538E-003
	33	33	4.99473E-002	-2.83415E-002	0.00000E+000	-1.41558E-003	-2.80544E-001	3.95958E-002	3.22357E+001	11	...........	6.59981E-002	-4.66875E-003	5.82203E-001	5.78166E-001	-2.86100E-002	-3.93524E-002	6.78683E-001	-4.38757E-002	-1.87048E-003	1.32319E-004	-1.65005E-002	-1.63861E-002	8.10849E-004	1.11530E-003	-1.92349E-002	1.24350E-003
	34	34	4.99469E-002	-2.79329E-002	0.00000E+000	-1.39516E-003	-2.76473E-001	3.96401E-002	3.23123E+001	11	...........	6.60678E-002	-4.70000E-003	5.82173E-001	5.78373E-001	-2.85601E-002	-3.93662E-002	6.78628E-001	-4.40058E-002	-1.84546E-003	1.31285E-004	-1.62618E-002	-1.61556E-002	7.97767E-004	1.09961E-003	-1.89560E-002	1.22921E-003
	35	35	4.99470E-002	-2.74996E-002	0.00000E+000	-1.37352E-003	-2.72161E-001	3.96827E-002	3.23666E+001	11	...........	6.60964E-002	-4.65264E-003	5.82107E-001	5.78506E-001	-2.85686E-002	-3.93690E-002	6.78599E-001	-4.39607E-002	-1.81762E-003	1.27946E-004	-1.60077E-002	-1.59087E-002	7.85625E-004	1.08263E-003	-1.86612E-002	1.20890E-003
	36	36	4.99456E-002	-2.70606E-002	0.00000E+000	-1.35156E-003	-2.67795E-001	3.96987E-002	3.24302E+001	11	...........	6.61390E-002	-4.71944E-003	5.81905E-001	5.78386E-001	-2.85812E-002	-3.93678E-002	6.78641E-001	-4.39825E-002	-1.78976E-003	1.27711E-004	-1.57467E-002	-1.56515E-002	7.73425E-004	1.06531E-003	-1.83644E-002	1.19019E-003
	37	37	4.99471E-002	-2.66367E-002	0.00000E+000	-1.33043E-003	-2.63585E-001	3.97251E-002	3.24911E+001	11	...........	6.61939E-002	-4.79639E-003	5.81890E-001	5.78290E-001	-2.85568E-002	-3.93128E-002	6.78653E-001	-4.40217E-002	-1.76319E-003	1.27760E-004	-1.54997E-002	-1.54038E-002	7.60660E-004	1.04716E-003	-1.80771E-002	1.17259E-003
	38	38	4.99482E-002	-2.62993E-002	0.00000E+000	-1.31360E-003	-2.60220E-001	3.97580E-002	3.25462E+001	11	...........	6.62554E-002	-4.72597E-003	5.81976E-001	5.78170E-001	-2.85644E-002	-3.93196E-002	6.78598E-001	-4.40481E-002	-1.74247E-003	1.24290E-004	-1.53055E-002	-1.52054E-002	7.51224E-004	1.03408E-003	-1.78466E-002	1.15843E-003
	39	39	4.99465E-002	-2.59380E-002	0.00000E+000	-1.29551E-003	-2.56632E-001	3.97758E-002	3.25659E+001	11	...........	6.62885E-002	-4.71458E-003	5.82024E-001	5.78104E-001	-2.85892E-002	-3.92949E-002	6.78557E-001	-4.40196E-002	-1.71939E-003	1.22287E-004	-1.50965E-002	-1.49949E-002	7.41547E-004	1.01923E-003	-1.76004E-002	1.14178E-003
	40	40	4.99469E-002	-2.55059E-002	0.00000E+000	-1.27394E-003	-2.52334E-001	3.98281E-002	3.26234E+001	11	...........	6.63165E-002	-4.69319E-003	5.82243E-001	5.78022E-001	-2.85732E-002	-3.92976E-002	6.78426E-001	-4.40640E-002	-1.69146E-003	1.19704E-004	-1.48506E-002	-1.47430E-002	7.28784E-004	1.00232E-003	-1.73039E-002	1.12389E-003
	41	41	4.99485E-002	-2.51733E-002	0.00000E+000	-1.25737E-003	-2.49019E-001	3.98377E-002	3.26829E+001	11	...........	6.63849E-002	-4.74681E-003	5.82255E-001	5.78092E-001	-2.85819E-002	-3.93315E-002	6.78506E-001	-4.38762E-002	-1.67113E-003	1.19493E-004	-1.46573E-002	-1.45525E-002	7.19502E-004	9.90104E-004	-1.70802E-002	1.10451E-003
	42	42	4.99474E-002	-2.48241E-002	0.00000E+000	-1.23990E-003	-2.45541E-001	3.98687E-002	3.27210E+001	11	...........	6.64083E-002	-4.66083E-003	5.82221E-001	5.78160E-001	-2.85875E-002	-3.93231E-002	6.78591E-001	-4.38511E-002	-1.64853E-003	1.15701E-004	-1.44531E-002	-1.43523E-002	7.09659E-004	9.76160E-004	-1.68454E-002	1.08856E-003
	43	43	4.99475E-002	-2.44745E-002	0.00000E+000	-1.22244E-003	-2.42072E-001	3.99093E-002	3.27572E+001	11	...........	6.64732E-002	-4.71431E-003	5.82120E-001	5.78152E-001	-2.85819E-002	-3.93282E-002	6.78591E-001	-4.38633E-002	-1.62690E-003	1.15380E-004	-1.42471E-002	-1.41500E-002	6.99528E-004	9.62537E-004	-1.66082E-002	1.07353E-003
	44	44	4.99484E-002	-2.41628E-002	0.00000E+000	-1.20689E-003	-2.38979E-001	3.99572E-002	3.27375E+001	11	...........	6.65544E-002	-4.72083E-003	5.82205E-001	5.78151E-001	-2.85482E-002	-3.93385E-002	6.78616E-001	-4.38664E-002	-1.60814E-003	1.14069E-004	-1.40677E-002	-1.39697E-002	6.89804E-004	9.50527E-004	-1.63972E-002	1.05993E-003
	45	45	4.99474E-002	-2.38334E-002	0.00000E+000	-1.19042E-003	-2.35699E-001	3.99362E-002	3.28197E+001	11	...........	6.65761E-002	-4.69361E-003	5.82264E-001	5.78245E-001	-2.85631E-002	-3.93208E-002	6.78505E-001	-4.40094E-002	-1.58673E-003	1.11865E-004	-1.38773E-002	-1.37815E-002	6.80754E-004	9.37148E-004	-1.61711E-002	1.04889E-003
	46	46	4.99476E-002	-2.34993E-002	0.00000E+000	-1.17373E-003	-2.32375E-001	3.99639E-002	3.28647E+001	11	...........	6.66294E-002	-4.77028E-003	5.82296E-001	5.78296E-001	-2.85501E-002	-3.92878E-002	6.78521E-001	-4.38306E-002	-1.56575E-003	1.12098E-004	-1.36836E-002	-1.35896E-002	6.70909E-004	9.23236E-004	-1.59448E-002	1.02999E-003
	47	47	4.99492E-002	-2.32294E-002	0.00000E+000	-1.16029E-003	-2.29705E-001	4.00115E-002	3.28740E+001	11	...........	6.66343E-002	-4.88306E-003	5.82237E-001	5.78167E-001	-2.86279E-002	-3.92818E-002	6.78574E-001	-4.38935E-002	-1.54787E-003	1.13430E-004	-1.35250E-002	-1.34305E-002	6.65009E-004	9.12492E-004	-1.57629E-002	1.01962E-003
	48	48	4.99472E-002	-2.29118E-002	0.00000E+000	-1.14438E-003	-2.26537E-001	4.00100E-002	3.28823E+001	11	...........	6.66793E-002	-4.99583E-003	5.82221E-001	5.78090E-001	-2.85651E-002	-3.92804E-002	6.78454E-001	-4.38054E-002	-1.52774E-003	1.14464E-004	-1.33397E-002	-1.32451E-002	6.54479E-004	8.99985E-004	-1.55446E-002	1.00366E-003
	49	49	4.99481E-002	-2.25726E-002	0.00000E+000	-1.12746E-003	-2.23157E-001	4.00373E-002	3.29216E+001	11	...........	6.67285E-002	-5.02708E-003	5.82161E-001	5.78171E-001	-2.86187E-002	-3.93019E-002	6.78367E-001	-4.37957E-002	-1.50623E-003	1.13474E-004	-1.31409E-002	-1.30508E-002	6.45998E-004	8.87145E-004	-1.53125E-002	9.88581E-004
	50	50	4.99483E-002	-2.22527E-002	0.00000E+000	-1.11148E-003	-2.19970E-001	4.01464E-002	3.28961E+001	11	...........	6.68908E-002	-4.95486E-003	5.82147E-001	5.78225E-001	-2.86165E-002	-3.92800E-002	6.78245E-001	-4.38056E-002	-1.48850E-003	1.10259E-004	-1.29543E-002	-1.28670E-002	6.36794E-004	8.74085E-004	-1.50928E-002	9.74790E-004
	51	51	4.99477E-002	-2.19601E-002	0.00000E+000	-1.09686E-003	-2.17068E-001	4.00606E-002	3.29722E+001	11	...........	6.67044E-002	-5.02431E-003	5.82020E-001	5.78216E-001	-2.85711E-002	-3.92782E-002	6.78259E-001	-4.37815E-002	-1.46484E-003	1.10334E-004	-1.27812E-002	-1.26977E-002	6.27425E-004	8.62553E-004	-1.48946E-002	9.61447E-004
	52	52	4.99468E-002	-2.16433E-002	0.00000E+000	-1.08101E-003	-2.13926E-001	4.01096E-002	3.29657E+001	11	...........	6.68450E-002	-4.95222E-003	5.82116E-001	5.78267E-001	-2.85617E-002	-3.93111E-002	6.78314E-001	-4.37415E-002	-1.44675E-003	1.07182E-004	-1.25989E-002	-1.25156E-002	6.18169E-004	8.50822E-004	-1.46810E-002	9.46711E-004
	53	53	4.99505E-002	-2.13972E-002	0.00000E+000	-1.06880E-003	-2.11475E-001	4.01656E-002	3.29925E+001	11	...........	6.68883E-002	-4.96750E-003	5.82076E-001	5.78214E-001	-2.86050E-002	-3.92969E-002	6.78285E-001	-4.37940E-002	-1.43122E-003	1.06290E-004	-1.24548E-002	-1.23721E-002	6.12066E-004	8.40843E-004	-1.45134E-002	9.37068E-004
	54	54	4.99479E-002	-2.10986E-002	0.00000E+000	-1.05383E-003	-2.08503E-001	4.01631E-002	3.30324E+001	11	...........	6.69251E-002	-4.81653E-003	5.82024E-001	5.78256E-001	-2.85874E-002	-3.92717E-002	6.78248E-001	-4.38824E-002	-1.41203E-003	1.01622E-004	-1.22799E-002	-1.22004E-002	6.03154E-004	8.28578E-004	-1.43101E-002	9.25857E-004
	55	55	4.99391E-002	-2.04750E-002	0.00000E+000	-1.02250E-003	-2.02304E-001	4.01217E-002	3.17970E+001	11	...........	6.68661E-002	-4.76069E-003	5.82086E-001	5.78237E-001	-2.86106E-002	-3.92776E-002	6.78243E-001	-4.38007E-002	-1.36908E-003	9.74752E-005	-1.19182E-002	-1.18394E-002	5.85801E-004	8.04210E-004	-1.38870E-002	8.96819E-004
	56	56	4.99557E-002	-2.01449E-002	0.00000E+000	-1.00635E-003	-1.99033E-001	4.01860E-002	3.28899E+001	11	...........	6.69687E-002	-4.78972E-003	5.82180E-001	5.78321E-001	-2.85979E-002	-3.92844E-002	6.78246E-001	-4.38796E-002	-1.34908E-003	9.64882E-005	-1.17279E-002	-1.16502E-002	5.76101E-004	7.91379E-004	-1.36632E-002	8.83948E-004
	57	57	4.99481E-002	-2.00849E-002	0.00000E+000	-1.00321E-003	-1.98433E-001	4.01810E-002	3.31591E+001	11	...........	6.69329E-002	-4.80292E-003	5.82013E-001	5.78248E-001	-2.86125E-002	-3.92737E-002	6.78325E-001	-4.39961E-002	-1.34434E-003	9.64663E-005	-1.16897E-002	-1.16141E-002	5.74680E-004	7.88811E-004	-1.36241E-002	8.83659E-004
	58	58	4.99522E-002	-1.99121E-002	0.00000E+000	-9.94654E-004	-1.96718E-001	4.01252E-002	3.32134E+001	11	...........	6.68465E-002	-4.84875E-003	5.82009E-001	5.78294E-001	-2.86289E-002	-3.92439E-002	6.78286E-001	-4.38975E-002	-1.33106E-003	9.65490E-005	-1.15890E-002	-1.15151E-002	5.70062E-004	7.81430E-004	-1.35061E-002	8.74093E-004
	59	59	4.99501E-002	-1.98518E-002	0.00000E+000	-9.91597E-004	-1.96116E-001	4.01409E-002	3.32481E+001	11	...........	6.69211E-002	-4.84222E-003	5.82069E-001	5.78280E-001	-2.86096E-002	-3.92676E-002	6.78326E-001	-4.37553E-002	-1.32850E-003	9.61266E-005	-1.15551E-002	-1.14799E-002	5.67950E-004	7.79532E-004	-1.34660E-002	8.68619E-004
	60	60	4.99486E-002	-1.96597E-002	0.00000E+000	-9.81977E-004	-1.94195E-001	4.01951E-002	3.33022E+001	11	...........	6.69403E-002	-4.87292E-003	5.82022E-001	5.78309E-001	-2.85833E-002	-3.92549E-002	6.78399E-001	-4.37642E-002	-1.31603E-003	9.58003E-005	-1.14424E-002	-1.13694E-002	5.61941E-004	7.71741E-004	-1.33372E-002	8.60393E-004
	61	61	4.99478E-002	-1.93449E-002	0.00000E+000	-9.66235E-004	-1.91072E-001	4.02192E-002	3.33270E+001	11	...........	6.70318E-002	-4.85472E-003	5.82096E-001	5.78407E-001	-2.85775E-002	-3.92721E-002	6.78339E-001	-4.37593E-002	-1.29672E-003	9.39141E-005	-1.12606E-002	-1.11892E-002	5.52829E-004	7.59714E-004	-1.31224E-002	8.46519E-004
	62	62	4.99490E-002	-1.90923E-002	0.00000E+000	-9.53641E-004	-1.88570E-001	4.02551E-002	3.33686E+001	11	...........	6.70999E-002	-4.75236E-003	5.82136E-001	5.78477E-001	-2.85467E-002	-3.92576E-002	6.78352E-001	-4.38319E-002	-1.28109E-003	9.07334E-005	-1.11143E-002	-1.10445E-002	5.45021E-004	7.49518E-004	-1.29513E-002	8.36852E-004
	63	63	4.99485E-002	-1.88291E-002	0.00000E+000	-9.40485E-004	-1.85946E-001	4.02949E-002	3.33997E+001	11	...........	6.71028E-002	-4.76917E-003	5.82206E-001	5.78465E-001	-2.85965E-002	-3.92771E-002	6.78368E-001	-4.38735E-002	-1.26349E-003	8.97992E-005	-1.09624E-002	-1.08920E-002	5.38447E-004	7.39552E-004	-1.27731E-002	8.26098E-004
	64	64	4.99487E-002	-1.85729E-002	0.00000E+000	-9.27694E-004	-1.83397E-001	4.02960E-002	3.34242E+001	11	...........	6.71335E-002	-4.78597E-003	5.82140E-001	5.78368E-001	-2.85639E-002	-3.92633E-002	6.78353E-001	-4.37750E-002	-1.24687E-003	8.88896E-005	-1.08121E-002	-1.07420E-002	5.30516E-004	7.29236E-004	-1.25990E-002	8.13031E-004
	65	65	4.99491E-002	-1.83104E-002	0.00000E+000	-9.14588E-004	-1.80785E-001	4.03352E-002	3.34498E+001	11	...........	6.72015E-002	-4.80722E-003	5.82235E-001	5.78314E-001	-2.85285E-002	-3.92354E-002	6.78199E-001	-4.38769E-002	-1.23049E-003	8.80222E-005	-1.06610E-002	-1.05892E-002	5.22368E-004	7.18416E-004	-1.24181E-002	8.03404E-004
	66	66	4.99489E-002	-1.80622E-002	0.00000E+000	-9.02189E-004	-1.78333E-001	4.03411E-002	3.34766E+001	11	...........	6.72301E-002	-4.74194E-003	5.82355E-001	5.78279E-001	-2.85589E-002	-3.92711E-002	6.78298E-001	-4.39965E-002	-1.21433E-003	8.56501E-005	-1.05186E-002	-1.04450E-002	5.15837E-004	7.09324E-004	-1.22516E-002	7.94675E-004
	67	67	4.99479E-002	-1.77969E-002	0.00000E+000	-8.88917E-004	-1.75691E-001	4.03508E-002	3.34939E+001	11	...........	6.72249E-002	-4.73319E-003	5.82355E-001	5.78317E-001	-2.85754E-002	-3.92471E-002	6.78428E-001	-4.39731E-002	-1.19639E-003	8.42361E-005	-1.03641E-002	-1.02922E-002	5.08553E-004	6.98475E-004	-1.20739E-002	7.82583E-004
	68	68	4.99494E-002	-1.75392E-002	0.00000E+000	-8.76074E-004	-1.73119E-001	4.03832E-002	3.35059E+001	11	...........	6.72900E-002	-4.84764E-003	5.82360E-001	5.78255E-001	-2.86157E-002	-3.92975E-002	6.78560E-001	-4.39428E-002	-1.18021E-003	8.50238E-005	-1.02141E-002	-1.01421E-002	5.01897E-004	6.89247E-004	-1.19014E-002	7.70722E-004
	69	69	4.99484E-002	-1.73184E-002	0.00000E+000	-8.65025E-004	-1.70923E-001	4.03903E-002	3.35483E+001	11	...........	6.73260E-002	-4.83792E-003	5.82545E-001	5.78231E-001	-2.86128E-002	-3.92207E-002	6.78502E-001	-4.39299E-002	-1.16598E-003	8.37849E-005	-1.00887E-002	-1.00140E-002	4.95527E-004	6.79239E-004	-1.17506E-002	7.60794E-004
	70	70	4.99490E-002	-1.70799E-002	0.00000E+000	-8.53124E-004	-1.68543E-001	4.04908E-002	3.34603E+001	11	...........	6.74833E-002	-4.73431E-003	5.82566E-001	5.78191E-001	-2.86236E-002	-3.92512E-002	6.78543E-001	-4.39504E-002	-1.15261E-003	8.08616E-005	-9.95018E-003	-9.87545E-003	4.88889E-004	6.70408E-004	-1.15895E-002	7.50670E-004
	71	71	4.99490E-002	-1.68105E-002	0.00000E+000	-8.39665E-004	-1.65867E-001	4.04714E-002	3.35361E+001	11	...........	6.74289E-002	-4.68833E-003	5.82456E-001	5.78090E-001	-2.85978E-002	-3.92224E-002	6.78558E-001	-4.39300E-002	-1.13351E-003	7.88130E-005	-9.79135E-003	-9.71796E-003	4.80742E-004	6.59346E-004	-1.14069E-002	7.38483E-004
	72	72	4.99501E-002	-1.65983E-002	0.00000E+000	-8.29089E-004	-1.63771E-001	4.05962E-002	3.35201E+001	11	...........	6.76126E-002	-4.77042E-003	5.82455E-001	5.78193E-001	-2.85862E-002	-3.92443E-002	6.78442E-001	-4.39242E-002	-1.12226E-003	7.91809E-005	-9.66778E-003	-9.59704E-003	4.74484E-004	6.51390E-004	-1.12610E-002	7.29068E-004
	73	73	4.99487E-002	-1.64332E-002	0.00000E+000	-8.20815E-004	-1.62123E-001	4.04099E-002	3.35938E+001	11	...........	6.73215E-002	-4.92903E-003	5.82442E-001	5.78299E-001	-2.86199E-002	-3.92339E-002	6.78398E-001	-4.38493E-002	-1.10631E-003	8.09995E-005	-9.57137E-003	-9.50328E-003	4.70315E-004	6.44737E-004	-1.11482E-002	7.20582E-004
	74	74	4.99503E-002	-1.62133E-002	0.00000E+000	-8.09859E-004	-1.59930E-001	4.04793E-002	3.36505E+001	11	...........	6.74735E-002	-4.80889E-003	5.82386E-001	5.78184E-001	-2.86129E-002	-3.92383E-002	6.78407E-001	-4.38082E-002	-1.09397E-003	7.79679E-005	-9.44239E-003	-9.37427E-003	4.63909E-004	6.36182E-004	-1.09992E-002	7.10275E-004
	75	75	4.99477E-002	-1.59959E-002	0.00000E+000	-7.98957E-004	-1.57763E-001	4.05484E-002	3.36815E+001	11	...........	6.75236E-002	-4.84403E-003	5.82226E-001	5.78014E-001	-2.86129E-002	-3.92182E-002	6.78269E-001	-4.38690E-002	-1.08010E-003	7.74844E-005	-9.31322E-003	-9.24584E-003	4.57688E-004	6.27329E-004	-1.08495E-002	7.01723E-004
	76	76	4.99488E-002	-1.57271E-002	0.00000E+000	-7.85548E-004	-1.55094E-001	4.07002E-002	3.34477E+001	11	...........	6.78417E-002	-4.97764E-003	5.82350E-001	5.78039E-001	-2.86125E-002	-3.92269E-002	6.78273E-001	-4.38736E-002	-1.06695E-003	7.82838E-005	-9.15867E-003	-9.09088E-003	4.49991E-004	6.16925E-004	-1.06673E-002	6.90004E-004
	77	77	4.99501E-002	-1.55107E-002	0.00000E+000	-7.74759E-004	-1.52949E-001	4.05002E-002	3.34231E+001	11	...........	6.74721E-002	-4.89389E-003	5.82459E-001	5.77932E-001	-2.85899E-002	-3.92139E-002	6.78330E-001	-4.39558E-002	-1.04654E-003	7.59074E-005	-9.03432E-003	-8.96410E-003	4.43447E-004	6.08233E-004	-1.05213E-002	6.81784E-004
	78	78	4.99497E-002	-1.53382E-002	0.00000E+000	-7.66139E-004	-1.51225E-001	4.05427E-002	3.29694E+001	11	...........	6.75007E-002	-4.79056E-003	5.82477E-001	5.77781E-001	-2.85824E-002	-3.92386E-002	6.78353E-001	-4.38556E-002	-1.03534E-003	7.34786E-005	-8.93416E-003	-8.86213E-003	4.38403E-004	6.01850E-004	-1.04047E-002	6.72666E-004
	79	79	4.99463E-002	-1.49066E-002	0.00000E+000	-7.44530E-004	-1.46932E-001	4.05273E-002	3.35307E+001	11	...........	6.75143E-002	-4.72764E-003	5.82545E-001	5.77720E-001	-2.85796E-002	-3.92339E-002	6.78241E-001	-4.38632E-002	-1.00641E-003	7.04731E-005	-8.68378E-003	-8.61184E-003	4.26025E-004	5.84844E-004	-1.01103E-002	6.53852E-004
	80	80	4.99457E-002	-1.47160E-002	0.00000E+000	-7.35003E-004	-1.45033E-001	4.05887E-002	3.28400E+001	11	...........	6.76286E-002	-4.64431E-003	5.82546E-001	5.77981E-001	-2.85753E-002	-3.91860E-002	6.78252E-001	-4.39500E-002	-9.95226E-004	6.83458E-005	-8.57278E-003	-8.50559E-003	4.20515E-004	5.76662E-004	-9.98119E-003	6.46770E-004
	81	81	4.99580E-002	-1.45767E-002	0.00000E+000	-7.28225E-004	-1.43644E-001	4.04862E-002	3.34513E+001	11	...........	6.74646E-002	-4.74014E-003	5.82513E-001	5.78043E-001	-2.85853E-002	-3.91969E-002	6.78325E-001	-4.39881E-002	-9.83414E-004	6.90958E-005	-8.49115E-003	-8.42599E-003	4.16680E-004	5.71364E-004	-9.88776E-003	6.41203E-004
	82	82	4.99487E-002	-1.46531E-002	0.00000E+000	-7.31902E-004	-1.44405E-001	4.06249E-002	3.37915E+001	11	...........	6.76525E-002	-4.84431E-003	5.82555E-001	5.77961E-001	-2.85965E-002	-3.92179E-002	6.78341E-001	-4.40314E-002	-9.91318E-004	7.09840E-005	-8.53622E-003	-8.46891E-003	4.19027E-004	5.74663E-004	-9.93979E-003	6.45196E-004
	83	83	4.99501E-002	-1.44568E-002	0.00000E+000	-7.22118E-004	-1.42451E-001	4.06097E-002	3.38316E+001	11	...........	6.76587E-002	-4.79111E-003	5.82627E-001	5.77902E-001	-2.85869E-002	-3.92381E-002	6.78331E-001	-4.39071E-002	-9.78128E-004	6.92641E-005	-8.42291E-003	-8.35460E-003	4.13275E-004	5.67256E-004	-9.80648E-003	6.34755E-004
	84	84	4.99490E-002	-1.42751E-002	0.00000E+000	-7.13025E-004	-1.40643E-001	4.06390E-002	3.38542E+001	11	...........	6.77004E-002	-4.79056E-003	5.82630E-001	5.77866E-001	-2.85982E-002	-3.92093E-002	6.78257E-001	-4.37960E-002	-9.66428E-004	6.83855E-005	-8.31708E-003	-8.24908E-003	4.08241E-004	5.59715E-004	-9.68216E-003	6.25190E-004
	85	85	4.99498E-002	-1.40727E-002	0.00000E+000	-7.02927E-004	-1.38649E-001	4.06299E-002	3.36882E+001	11	...........	6.77011E-002	-4.72708E-003	5.82661E-001	5.77726E-001	-2.86168E-002	-3.92669E-002	6.78262E-001	-4.37407E-002	-9.52735E-004	6.65226E-005	-8.19959E-003	-8.13014E-003	4.02715E-004	5.52590E-004	-9.54496E-003	6.15548E-004
	86	86	4.99447E-002	-1.36879E-002	0.00000E+000	-6.83640E-004	-1.34818E-001	4.05698E-002	3.29801E+001	11	...........	6.75750E-002	-4.71542E-003	5.82519E-001	5.77643E-001	-2.86554E-002	-3.92750E-002	6.78304E-001	-4.38876E-002	-9.24963E-004	6.45444E-005	-7.97349E-003	-7.90674E-003	3.92234E-004	5.37594E-004	-9.28458E-003	6.00731E-004
	87	87	4.99528E-002	-1.34964E-002	0.00000E+000	-6.74183E-004	-1.32912E-001	4.06810E-002	3.37511E+001	11	...........	6.77735E-002	-4.76486E-003	5.82419E-001	5.77605E-001	-2.86337E-002	-3.92601E-002	6.78319E-001	-4.38889E-002	-9.14699E-004	6.43086E-005	-7.86057E-003	-7.79560E-003	3.86453E-004	5.29871E-004	-9.15487E-003	5.92343E-004
	88	88	4.99497E-002	-1.33922E-002	0.00000E+000	-6.68936E-004	-1.31871E-001	4.06506E-002	3.38774E+001	11	...........	6.77261E-002	-4.76986E-003	5.82529E-001	5.77540E-001	-2.86572E-002	-3.92622E-002	6.78441E-001	-4.38758E-002	-9.07001E-004	6.38789E-005	-7.80134E-003	-7.73454E-003	3.83783E-004	5.25807E-004	-9.08581E-003	5.87594E-004
	89	89	4.99499E-002	-1.32042E-002	0.00000E+000	-6.59547E-004	-1.29999E-001	4.06474E-002	3.38709E+001	11	...........	6.77207E-002	-4.76375E-003	5.82533E-001	5.77560E-001	-2.86512E-002	-3.92632E-002	6.78334E-001	-4.38960E-002	-8.94196E-004	6.29014E-005	-7.69186E-003	-7.62620E-003	3.78316E-004	5.18438E-004	-8.95683E-003	5.79610E-004
	90	90	4.99507E-002	-1.30816E-002	0.00000E+000	-6.53435E-004	-1.28778E-001	4.06814E-002	3.38619E+001	11	...........	6.77683E-002	-4.81597E-003	5.82669E-001	5.77503E-001	-2.86182E-002	-3.92615E-002	6.78239E-001	-4.37733E-002	-8.86518E-004	6.30006E-005	-7.62225E-003	-7.55466E-003	3.74372E-004	5.13604E-004	-8.87245E-003	5.72625E-004
	91	91	4.99500E-002	-1.29666E-002	0.00000E+000	-6.47680E-004	-1.27652E-001	4.06917E-002	3.38742E+001	11	...........	6.78215E-002	-4.94014E-003	5.82621E-001	5.77372E-001	-2.86214E-002	-3.92653E-002	6.78226E-001	-4.38617E-002	-8.79413E-004	6.40567E-005	-7.55460E-003	-7.48654E-003	3.71122E-004	5.09136E-004	-8.79428E-003	5.68736E-004
	92	92	4.99501E-002	-1.28187E-002	0.00000E+000	-6.40297E-004	-1.26182E-001	4.07262E-002	3.38858E+001	11	...........	6.78356E-002	-4.96444E-003	5.82733E-001	5.77219E-001	-2.86528E-002	-3.92804E-002	6.78231E-001	-4.38503E-002	-8.69567E-004	6.36380E-005	-7.46990E-003	-7.39923E-003	3.67293E-004	5.03526E-004	-8.69408E-003	5.62106E-004
	93	93	4.99497E-002	-1.26486E-002	0.00000E+000	-6.31793E-004	-1.24482E-001	4.07267E-002	3.39275E+001	11	...........	6.78758E-002	-4.99486E-003	5.82876E-001	5.77226E-001	-2.86075E-002	-3.92829E-002	6.78197E-001	-4.39197E-002	-8.58532E-004	6.31779E-005	-7.37254E-003	-7.30108E-003	3.61844E-004	4.96873E-004	-8.57822E-003	5.55522E-004
	94	94	4.99495E-002	-1.24714E-002	0.00000E+000	-6.22942E-004	-1.22722E-001	4.07545E-002	3.39435E+001	11	...........	6.79021E-002	-4.95181E-003	5.82780E-001	5.77099E-001	-2.85818E-002	-3.92711E-002	6.78215E-001	-4.39118E-002	-8.46836E-004	6.17561E-005	-7.26811E-003	-7.19725E-003	3.56456E-004	4.89767E-004	-8.45832E-003	5.47643E-004
	95	95	4.99502E-002	-1.23094E-002	0.00000E+000	-6.14859E-004	-1.21099E-001	4.07475E-002	3.39625E+001	11	...........	6.78961E-002	-4.93361E-003	5.82849E-001	5.77128E-001	-2.85597E-002	-3.93178E-002	6.78154E-001	-4.39129E-002	-8.35763E-004	6.07300E-005	-7.17454E-003	-7.10413E-003	3.51554E-004	4.83980E-004	-8.34769E-003	5.40543E-004
	96	96	4.99499E-002	-1.21404E-002	0.00000E+000	-6.06412E-004	-1.19425E-001	4.07682E-002	3.39890E+001	11	...........	6.79429E-002	-5.03347E-003	5.82802E-001	5.77147E-001	-2.85632E-002	-3.92781E-002	6.78285E-001	-4.39031E-002	-8.24855E-004	6.11084E-005	-7.07546E-003	-7.00680E-003	3.46769E-004	4.76852E-004	-8.23465E-003	5.33001E-004
	97	97	4.99498E-002	-1.19962E-002	0.00000E+000	-5.99208E-004	-1.17981E-001	4.07927E-002	3.40050E+001	11	...........	6.79696E-002	-4.88347E-003	5.82805E-001	5.77026E-001	-2.85857E-002	-3.92515E-002	6.78178E-001	-4.39351E-002	-8.15377E-004	5.85831E-005	-6.99145E-003	-6.92212E-003	3.42920E-004	4.70869E-004	-8.13556E-003	5.27055E-004
	98	98	4.99501E-002	-1.18199E-002	0.00000E+000	-5.90407E-004	-1.16226E-001	4.07968E-002	3.40416E+001	11	...........	6.79735E-002	-4.86056E-003	5.82717E-001	5.77003E-001	-2.85972E-002	-3.92368E-002	6.78258E-001	-4.38549E-002	-8.03442E-004	5.74515E-005	-6.88768E-003	-6.82014E-003	3.38017E-004	4.63777E-004	-8.01697E-003	5.18362E-004
	99	99	4.99498E-002	-1.16748E-002	0.00000E+000	-5.83156E-004	-1.14790E-001	4.08216E-002	3.40502E+001	11	...........	6.80064E-002	-4.79222E-003	5.82657E-001	5.76963E-001	-2.86082E-002	-3.92383E-002	6.78338E-001	-4.38757E-002	-7.93964E-004	5.59485E-005	-6.80243E-003	-6.73596E-003	3.33996E-004	4.58102E-004	-7.91949E-003	5.12242E-004
	100	100	4.99498E-002	-1.15095E-002	0.00000E+000	-5.74896E-004	-1.13160E-001	4.08197E-002	3.40764E+001	11	...........	6.80100E-002	-4.86431E-003	5.82576E-001	5.77018E-001	-2.85814E-002	-3.92542E-002	6.78309E-001	-4.37987E-002	-7.82759E-004	5.59856E-005	-6.70515E-003	-6.64117E-003	3.28957E-004	4.51795E-004	-7.80699E-003	5.04101E-004
	101	101	4.99501E-002	-1.13695E-002	0.00000E+000	-5.67905E-004	-1.11756E-001	4.08308E-002	3.40858E+001	11	...........	6.80207E-002	-4.80375E-003	5.82785E-001	5.77133E-001	-2.86004E-002	-3.92189E-002	6.78375E-001	-4.37896E-002	-7.73359E-004	5.46160E-005	-6.62595E-003	-6.56170E-003	3.25171E-004	4.45898E-004	-7.71276E-003	4.97864E-004
	102	102	4.99504E-002	-1.12120E-002	0.00000E+000	-5.60042E-004	-1.10192E-001	4.08570E-002	3.40985E+001	11	...........	6.80485E-002	-4.81361E-003	5.82814E-001	5.77281E-001	-2.85828E-002	-3.92204E-002	6.78244E-001	-4.37506E-002	-7.62956E-004	5.39700E-005	-6.53448E-003	-6.47245E-003	3.20469E-004	4.39738E-004	-7.60444E-003	4.90529E-004
	103	103	4.99499E-002	-1.10979E-002	0.00000E+000	-5.54339E-004	-1.09056E-001	4.08263E-002	3.41090E+001	11	...........	6.80643E-002	-4.73792E-003	5.82751E-001	5.77322E-001	-2.85472E-002	-3.92583E-002	6.78264E-001	-4.37431E-002	-7.55371E-004	5.25809E-005	-6.46731E-003	-6.40706E-003	3.16814E-004	4.35685E-004	-7.52730E-003	4.85456E-004
	104	104	4.99503E-002	-1.09359E-002	0.00000E+000	-5.46251E-004	-1.07443E-001	4.08764E-002	3.41269E+001	11	...........	6.80710E-002	-4.80486E-003	5.82601E-001	5.77334E-001	-2.85410E-002	-3.92510E-002	6.78341E-001	-4.38690E-002	-7.44416E-004	5.25454E-005	-6.37125E-003	-6.31366E-003	3.12121E-004	4.29244E-004	-7.41825E-003	4.79746E-004
	105	105	4.99501E-002	-1.07776E-002	0.00000E+000	-5.38343E-004	-1.05869E-001	4.08849E-002	3.41284E+001	11	...........	6.80979E-002	-4.72556E-003	5.82705E-001	5.77287E-001	-2.85469E-002	-3.92435E-002	6.78357E-001	-4.40062E-002	-7.33933E-004	5.09302E-005	-6.28017E-003	-6.22177E-003	3.07668E-004	4.22951E-004	-7.31107E-003	4.74282E-004
	106	106	4.99500E-002	-1.06608E-002	0.00000E+000	-5.32507E-004	-1.04701E-001	4.09067E-002	3.41453E+001	11	...........	6.81076E-002	-4.60556E-003	5.82728E-001	5.77219E-001	-2.85935E-002	-3.92429E-002	6.78400E-001	-4.39792E-002	-7.26081E-004	4.90989E-005	-6.21235E-003	-6.15361E-003	3.04829E-004	4.18361E-004	-7.23229E-003	4.68853E-004
	107	107	4.99502E-002	-1.05187E-002	0.00000E+000	-5.25411E-004	-1.03287E-001	4.08982E-002	3.41675E+001	11	...........	6.81267E-002	-4.76792E-003	5.82631E-001	5.77222E-001	-2.85778E-002	-3.92711E-002	6.78340E-001	-4.39846E-002	-7.16604E-004	5.01523E-005	-6.12851E-003	-6.07163E-003	3.00601E-004	4.13081E-004	-7.13525E-003	4.62660E-004
	108	108	4.99502E-002	-1.03762E-002	0.00000E+000	-5.18291E-004	-1.01918E-001	4.08912E-002	3.41941E+001	11	...........	6.81579E-002	-4.77653E-003	5.82628E-001	5.77277E-001	-2.86043E-002	-3.92301E-002	6.78384E-001	-4.39560E-002	-7.07217E-004	4.95620E-005	-6.04544E-003	-5.98992E-003	2.96803E-004	4.07058E-004	-7.03902E-003	4.56094E-004
	109	109	4.99502E-002	-1.02548E-002	0.00000E+000	-5.12230E-004	-1.00713E-001	4.09272E-002	3.42105E+001	11	...........	6.81590E-002	-4.82486E-003	5.82595E-001	5.77288E-001	-2.86162E-002	-3.92621E-002	6.78467E-001	-4.40469E-002	-6.98959E-004	4.94781E-005	-5.97441E-003	-5.91999E-003	2.93455E-004	4.02626E-004	-6.95756E-003	4.51694E-004
	110	110	4.99506E-002	-1.01297E-002	0.00000E+000	-5.05987E-004	-9.94613E-002	4.09289E-002	3.42308E+001	11	...........	6.81997E-002	-4.76875E-003	5.82554E-001	5.77276E-001	-2.86203E-002	-3.92936E-002	6.78479E-001	-4.40682E-002	-6.90846E-004	4.83062E-005	-5.90113E-003	-5.84766E-003	2.89916E-004	3.98034E-004	-6.87282E-003	4.46400E-004
	111	111	4.99502E-002	-9.99152E-003	0.00000E+000	-4.99079E-004	-9.80833E-002	4.09443E-002	3.42506E+001	11	...........	6.81753E-002	-4.87000E-003	5.82420E-001	5.77337E-001	-2.86297E-002	-3.93064E-002	6.78484E-001	-4.40650E-002	-6.81175E-004	4.86587E-005	-5.81927E-003	-5.76847E-003	2.86054E-004	3.92731E-004	-6.77908E-003	4.40276E-004
	112	112	4.99502E-002	-9.85537E-003	0.00000E+000	-4.92278E-004	-9.67307E-002	4.09237E-002	3.42704E+001	11	...........	6.81926E-002	-4.79625E-003	5.82214E-001	5.77293E-001	-2.86532E-002	-3.92987E-002	6.78484E-001	-4.40028E-002	-6.72064E-004	4.72688E-005	-5.73793E-003	-5.68944E-003	2.82388E-004	3.87304E-004	-6.68671E-003	4.33664E-004
	113	113	4.99503E-002	-9.73728E-003	0.00000E+000	-4.86380E-004	-9.55527E-002	4.09497E-002	3.42789E+001	11	...........	6.82267E-002	-4.77917E-003	5.82297E-001	5.77386E-001	-2.86460E-002	-3.93211E-002	6.78507E-001	-4.40814E-002	-6.64342E-004	4.65361E-005	-5.66999E-003	-5.62216E-003	2.78934E-004	3.82881E-004	-6.60681E-003	4.29233E-004
	114	114	4.99506E-002	-9.61359E-003	0.00000E+000	-4.80204E-004	-9.43240E-002	4.09532E-002	3.43001E+001	11	...........	6.82461E-002	-4.76306E-003	5.82303E-001	5.77402E-001	-2.86543E-002	-3.93358E-002	6.78514E-001	-4.40539E-002	-6.56090E-004	4.57901E-005	-5.59802E-003	-5.55091E-003	2.75471E-004	3.78159E-004	-6.52296E-003	4.23516E-004
	115	115	4.99502E-002	-9.50494E-003	0.00000E+000	-4.74774E-004	-9.32420E-002	4.09692E-002	3.43207E+001	11	...........	6.82569E-002	-4.82222E-003	5.82356E-001	5.77589E-001	-2.86333E-002	-3.93357E-002	6.78407E-001	-4.40369E-002	-6.48778E-004	4.58349E-005	-5.53526E-003	-5.48995E-003	2.72158E-004	3.73883E-004	-6.44822E-003	4.18569E-004
	116	116	4.99504E-002	-9.37969E-003	0.00000E+000	-4.68519E-004	-9.19940E-002	4.09687E-002	3.43350E+001	11	...........	6.83006E-002	-4.84958E-003	5.82219E-001	5.77533E-001	-2.86683E-002	-3.92710E-002	6.78410E-001	-4.39935E-002	-6.40638E-004	4.54876E-005	-5.46103E-003	-5.41708E-003	2.68900E-004	3.68350E-004	-6.36328E-003	4.12645E-004
	117	117	4.99506E-002	-9.25756E-003	0.00000E+000	-4.62421E-004	-9.07787E-002	4.10012E-002	3.43518E+001	11	...........	6.82725E-002	-4.79958E-003	5.82130E-001	5.77642E-001	-2.86836E-002	-3.92992E-002	6.78494E-001	-4.39018E-002	-6.32037E-004	4.44324E-005	-5.38910E-003	-5.34756E-003	2.65540E-004	3.63814E-004	-6.28120E-003	4.06424E-004
	118	118	4.99505E-002	-9.15254E-003	0.00000E+000	-4.57174E-004	-8.97267E-002	4.09985E-002	3.43579E+001	11	...........	6.83007E-002	-4.74042E-003	5.82159E-001	5.77707E-001	-2.86506E-002	-3.92649E-002	6.78492E-001	-4.39729E-002	-6.25125E-004	4.33869E-005	-5.32824E-003	-5.28749E-003	2.62225E-004	3.59373E-004	-6.20992E-003	4.02464E-004
	119	119	4.99504E-002	-9.04808E-003	0.00000E+000	-4.51956E-004	-8.87033E-002	4.09947E-002	3.43647E+001	11	...........	6.83336E-002	-4.72778E-003	5.82138E-001	5.77792E-001	-2.86443E-002	-3.92715E-002	6.78507E-001	-4.38208E-002	-6.18288E-004	4.27773E-005	-5.26723E-003	-5.22791E-003	2.59176E-004	3.55332E-004	-6.13919E-003	3.96494E-004
	120	120	4.99505E-002	-8.92635E-003	0.00000E+000	-4.45875E-004	-8.75007E-002	4.10170E-002	3.43614E+001	11	...........	6.83003E-002	-4.80875E-003	5.82100E-001	5.77822E-001	-2.86532E-002	-3.92737E-002	6.78432E-001	-4.37906E-002	-6.09672E-004	4.29246E-005	-5.19603E-003	-5.15784E-003	2.55768E-004	3.50571E-004	-6.05593E-003	3.90890E-004
	121	121	4.99506E-002	-8.80704E-003	0.00000E+000	-4.39917E-004	-8.63073E-002	4.10087E-002	3.43628E+001	11	...........	6.83396E-002	-4.75847E-003	5.82070E-001	5.77732E-001	-2.86882E-002	-3.92869E-002	6.78469E-001	-4.38661E-002	-6.01870E-004	4.19081E-005	-5.12632E-003	-5.08811E-003	2.52658E-004	3.46002E-004	-5.97531E-003	3.86331E-004
	122	122	4.99506E-002	-8.70439E-003	0.00000E+000	-4.34789E-004	-8.52880E-002	4.10260E-002	3.43885E+001	11	...........	6.83551E-002	-4.77806E-003	5.82114E-001	5.77687E-001	-2.86803E-002	-3.93131E-002	6.78472E-001	-4.39531E-002	-5.94990E-004	4.15901E-005	-5.06695E-003	-5.02841E-003	2.49644E-004	3.42196E-004	-5.90568E-003	3.82585E-004
	123	123	4.99506E-002	-8.60578E-003	0.00000E+000	-4.29864E-004	-8.43073E-002	4.10220E-002	3.44027E+001	11	...........	6.83310E-002	-4.90014E-003	5.81988E-001	5.77659E-001	-2.86526E-002	-3.92921E-002	6.78369E-001	-4.37582E-002	-5.88041E-004	4.21695E-005	-5.00846E-003	-4.97121E-003	2.46578E-004	3.38139E-004	-5.83790E-003	3.76573E-004
	124	124	4.99502E-002	-8.49811E-003	0.00000E+000	-4.24483E-004	-8.32267E-002	4.10435E-002	3.44178E+001	11	...........	6.83657E-002	-4.80417E-003	5.81886E-001	5.77664E-001	-2.86575E-002	-3.93217E-002	6.78337E-001	-4.37393E-002	-5.80979E-004	4.08263E-005	-4.94494E-003	-4.90905E-003	2.43535E-004	3.34160E-004	-5.76458E-003	3.71702E-004
	125	125	4.99507E-002	-8.39937E-003	0.00000E+000	-4.19554E-004	-8.22440E-002	4.10508E-002	3.44294E+001	11	...........	6.83978E-002	-4.71722E-003	5.81832E-001	5.77736E-001	-2.86671E-002	-3.92935E-002	6.78490E-001	-4.38047E-002	-5.74498E-004	3.96217E-005	-4.88702E-003	-4.85262E-003	2.40785E-004	3.30040E-004	-5.69889E-003	3.67932E-004
	126	126	4.99512E-002	-8.30256E-003	0.00000E+000	-4.14723E-004	-8.12880E-002	4.10290E-002	3.44494E+001	11	...........	6.83993E-002	-4.70889E-003	5.81887E-001	5.77891E-001	-2.85939E-002	-3.92950E-002	6.78565E-001	-4.38933E-002	-5.67889E-004	3.90958E-005	-4.83115E-003	-4.79798E-003	2.37403E-004	3.26249E-004	-5.63383E-003	3.64427E-004
	127	127	4.99506E-002	-8.21176E-003	0.00000E+000	-4.10183E-004	-8.03787E-002	4.10688E-002	3.44609E+001	11	...........	6.84046E-002	-4.76986E-003	5.81769E-001	5.77858E-001	-2.86379E-002	-3.93156E-002	6.78564E-001	-4.39103E-002	-5.61722E-004	3.91689E-005	-4.77734E-003	-4.74523E-003	2.35168E-004	3.22850E-004	-5.57220E-003	3.60581E-004
	128	128	4.99503E-002	-8.10137E-003	0.00000E+000	-4.04666E-004	-7.92793E-002	4.10672E-002	3.44655E+001	11	...........	6.84182E-002	-4.77653E-003	5.81783E-001	5.77952E-001	-2.86382E-002	-3.93458E-002	6.78646E-001	-4.39171E-002	-5.54281E-004	3.86964E-005	-4.71324E-003	-4.68221E-003	2.32009E-004	3.18755E-004	-5.49796E-003	3.55789E-004
	129	129	4.99506E-002	-7.98290E-003	0.00000E+000	-3.98750E-004	-7.81040E-002	4.10707E-002	3.44702E+001	11	...........	6.84579E-002	-4.70083E-003	5.81744E-001	5.78030E-001	-2.86162E-002	-3.93246E-002	6.78651E-001	-4.40744E-002	-5.46493E-004	3.75263E-005	-4.64400E-003	-4.61436E-003	2.28441E-004	3.13924E-004	-5.41760E-003	3.51842E-004
	130	130	4.99507E-002	-7.90245E-003	0.00000E+000	-3.94733E-004	-7.73033E-002	4.11188E-002	3.44189E+001	11	...........	6.84903E-002	-4.78264E-003	5.81698E-001	5.78142E-001	-2.86424E-002	-3.92993E-002	6.78524E-001	-4.39779E-002	-5.41241E-004	3.77946E-005	-4.59684E-003	-4.56874E-003	2.26345E-004	3.10561E-004	-5.36200E-003	3.47533E-004
	131	131	4.99506E-002	-7.80037E-003	0.00000E+000	-3.89633E-004	-7.63140E-002	4.10748E-002	3.44780E+001	11	...........	6.84481E-002	-4.70653E-003	5.81764E-001	5.78283E-001	-2.86629E-002	-3.93171E-002	6.78564E-001	-4.38761E-002	-5.33920E-004	3.67126E-005	-4.53797E-003	-4.51082E-003	2.23581E-004	3.06688E-004	-5.29305E-003	3.42250E-004
	132	132	4.99510E-002	-7.70984E-003	0.00000E+000	-3.85114E-004	-7.54040E-002	4.11047E-002	3.44462E+001	11	...........	6.84711E-002	-4.84597E-003	5.81639E-001	5.78317E-001	-2.86932E-002	-3.93407E-002	6.78621E-001	-4.38814E-002	-5.27901E-004	3.73617E-005	-4.48434E-003	-4.45873E-003	2.21220E-004	3.03310E-004	-5.23206E-003	3.38319E-004
	133	133	4.99510E-002	-7.64183E-003	0.00000E+000	-3.81717E-004	-7.47280E-002	4.11332E-002	3.44542E+001	11	...........	6.85640E-002	-4.84000E-003	5.81590E-001	5.78386E-001	-2.87150E-002	-3.93143E-002	6.78632E-001	-4.38312E-002	-5.23955E-004	3.69865E-005	-4.44441E-003	-4.41993E-003	2.19435E-004	3.00433E-004	-5.18599E-003	3.34951E-004
	134	134	4.99509E-002	-7.55967E-003	0.00000E+000	-3.77613E-004	-7.39087E-002	4.11021E-002	3.44261E+001	11	...........	6.85037E-002	-4.79917E-003	5.81718E-001	5.78462E-001	-2.86864E-002	-3.92994E-002	6.78657E-001	-4.38858E-002	-5.17866E-004	3.62801E-005	-4.39760E-003	-4.37299E-003	2.16860E-004	2.97091E-004	-5.13043E-003	3.31763E-004
	135	135	4.99507E-002	-7.45508E-003	0.00000E+000	-3.72386E-004	-7.28640E-002	4.11227E-002	3.44998E+001	11	...........	6.85146E-002	-4.73611E-003	5.81777E-001	5.78249E-001	-2.86726E-002	-3.92946E-002	6.78531E-001	-4.38662E-002	-5.10782E-004	3.53081E-005	-4.33720E-003	-4.31089E-003	2.13757E-004	2.92944E-004	-5.05850E-003	3.27026E-004
	136	136	4.99506E-002	-7.37107E-003	0.00000E+000	-3.68189E-004	-7.20293E-002	4.11166E-002	3.44997E+001	11	...........	6.85372E-002	-4.71875E-003	5.81826E-001	5.78169E-001	-2.86493E-002	-3.93135E-002	6.78494E-001	-4.39321E-002	-5.05192E-004	3.47822E-005	-4.28868E-003	-4.26172E-003	2.11176E-004	2.89782E-004	-5.00123E-003	3.23826E-004
	137	137	4.99512E-002	-7.29577E-003	0.00000E+000	-3.64432E-004	-7.12767E-002	4.11233E-002	3.45244E+001	11	...........	6.85206E-002	-4.70792E-003	5.81772E-001	5.78111E-001	-2.86485E-002	-3.93165E-002	6.78590E-001	-4.40079E-002	-4.99910E-004	3.43479E-005	-4.24448E-003	-4.21777E-003	2.09013E-004	2.86844E-004	-4.95084E-003	3.21072E-004
	138	138	4.99505E-002	-7.21217E-003	0.00000E+000	-3.60251E-004	-7.04393E-002	4.11445E-002	3.45377E+001	11	...........	6.85301E-002	-4.78403E-003	5.81782E-001	5.78054E-001	-2.86483E-002	-3.92918E-002	6.78633E-001	-4.39224E-002	-4.94251E-004	3.45032E-005	-4.19590E-003	-4.16902E-003	2.06617E-004	2.83379E-004	-4.89442E-003	3.16775E-004
	139	139	4.99507E-002	-7.11472E-003	0.00000E+000	-3.55385E-004	-6.94720E-002	4.11334E-002	3.45468E+001	11	...........	6.85390E-002	-4.75431E-003	5.81791E-001	5.78037E-001	-2.86851E-002	-3.93224E-002	6.78713E-001	-4.38804E-002	-4.87636E-004	3.38255E-005	-4.13928E-003	-4.11257E-003	2.04087E-004	2.79768E-004	-4.82885E-003	3.12197E-004
	140	140	4.99509E-002	-7.03355E-003	0.00000E+000	-3.51332E-004	-6.86653E-002	4.11355E-002	3.45457E+001	11	...........	6.85271E-002	-4.81861E-003	5.81835E-001	5.77960E-001	-2.87236E-002	-3.93108E-002	6.78635E-001	-4.38469E-002	-4.81989E-004	3.38920E-005	-4.09236E-003	-4.06511E-003	2.02029E-004	2.76495E-004	-4.77322E-003	3.08400E-004
	141	141	4.99511E-002	-6.95059E-003	0.00000E+000	-3.47190E-004	-6.78400E-002	4.11349E-002	3.45373E+001	11	...........	6.85437E-002	-4.87597E-003	5.82010E-001	5.78035E-001	-2.87200E-002	-3.93086E-002	6.78668E-001	-4.38085E-002	-4.76419E-004	3.38909E-005	-4.04531E-003	-4.01768E-003	1.99621E-004	2.73218E-004	-4.71714E-003	3.04495E-004
	142	142	4.99508E-002	-6.86556E-003	0.00000E+000	-3.42940E-004	-6.69913E-002	4.11618E-002	3.45435E+001	11	...........	6.85500E-002	-4.87750E-003	5.81906E-001	5.78208E-001	-2.87057E-002	-3.93187E-002	6.78559E-001	-4.38390E-002	-4.70634E-004	3.34868E-005	-3.99511E-003	-3.96972E-003	1.97081E-004	2.69945E-004	-4.65869E-003	3.00979E-004
	143	143	4.99507E-002	-6.79177E-003	0.00000E+000	-3.39254E-004	-6.62540E-002	4.12062E-002	3.44979E+001	11	...........	6.86326E-002	-4.79931E-003	5.82003E-001	5.78135E-001	-2.87551E-002	-3.93346E-002	6.78444E-001	-4.38569E-002	-4.66137E-004	3.25958E-005	-3.95283E-003	-3.92656E-003	1.95298E-004	2.67151E-004	-4.60783E-003	2.97866E-004
	144	144	4.99511E-002	-6.70814E-003	0.00000E+000	-3.35079E-004	-6.54220E-002	4.13732E-002	3.43994E+001	11	...........	6.89457E-002	-4.75194E-003	5.82071E-001	5.78171E-001	-2.87701E-002	-3.93361E-002	6.78539E-001	-4.38240E-002	-4.62497E-004	3.18767E-005	-3.90461E-003	-3.87845E-003	1.92994E-004	2.63872E-004	-4.55173E-003	2.93978E-004
	145	145	4.99508E-002	-6.63714E-003	0.00000E+000	-3.31530E-004	-6.47140E-002	4.10658E-002	3.44733E+001	11	...........	6.84286E-002	-4.90431E-003	5.82275E-001	5.78168E-001	-2.87497E-002	-3.93458E-002	6.78626E-001	-4.38867E-002	-4.54171E-004	3.25506E-005	-3.86464E-003	-3.83739E-003	1.90816E-004	2.61144E-004	-4.50414E-003	2.91282E-004
	146	146	4.99510E-002	-6.56443E-003	0.00000E+000	-3.27900E-004	-6.39827E-002	4.12243E-002	3.44636E+001	11	...........	6.86753E-002	-4.94417E-003	5.82376E-001	5.78219E-001	-2.87515E-002	-3.93078E-002	6.78705E-001	-4.40242E-002	-4.50814E-004	3.24556E-005	-3.82297E-003	-3.79568E-003	1.88737E-004	2.58033E-004	-4.45531E-003	2.88994E-004
	147	147	4.99512E-002	-6.48300E-003	0.00000E+000	-3.23834E-004	-6.31867E-002	4.11847E-002	3.45447E+001	11	...........	6.86394E-002	-4.90806E-003	5.82261E-001	5.78169E-001	-2.87272E-002	-3.93436E-002	6.78542E-001	-4.40154E-002	-4.44990E-004	3.18189E-005	-3.77480E-003	-3.74827E-003	1.86239E-004	2.55065E-004	-4.39899E-003	2.85352E-004
	148	148	4.99503E-002	-6.40609E-003	0.00000E+000	-3.19986E-004	-6.24307E-002	4.11811E-002	3.45441E+001	11	...........	6.86203E-002	-4.83306E-003	5.82163E-001	5.78307E-001	-2.86857E-002	-3.93308E-002	6.78600E-001	-4.39333E-002	-4.39588E-004	3.09610E-005	-3.72939E-003	-3.70469E-003	1.83763E-004	2.51957E-004	-4.34717E-003	2.81441E-004
	149	149	4.99514E-002	-6.30910E-003	0.00000E+000	-3.15148E-004	-6.14707E-002	4.12932E-002	3.45197E+001	11	...........	6.88293E-002	-4.86222E-003	5.81995E-001	5.78395E-001	-2.87056E-002	-3.93000E-002	6.78652E-001	-4.39222E-002	-4.34251E-004	3.06762E-005	-3.67186E-003	-3.64915E-003	1.81106E-004	2.47948E-004	-4.28168E-003	2.77110E-004
	150	150	4.99507E-002	-6.23175E-003	0.00000E+000	-3.11280E-004	-6.06993E-002	4.12324E-002	3.45293E+001	11	...........	6.86933E-002	-4.93347E-003	5.82149E-001	5.78448E-001	-2.86633E-002	-3.93307E-002	6.78655E-001	-4.39889E-002	-4.28079E-004	3.07441E-005	-3.62780E-003	-3.60474E-003	1.78623E-004	2.45099E-004	-4.22921E-003	2.74128E-004
	151	151	4.99506E-002	-6.15122E-003	0.00000E+000	-3.07257E-004	-5.98920E-002	4.13042E-002	3.43281E+001	11	...........	6.88268E-002	-4.87958E-003	5.82198E-001	5.78382E-001	-2.86428E-002	-3.93403E-002	6.78590E-001	-4.39574E-002	-4.23369E-004	3.00154E-005	-3.58123E-003	-3.55776E-003	1.76188E-004	2.41991E-004	-4.17416E-003	2.70391E-004
	152	152	4.99512E-002	-6.06260E-003	0.00000E+000	-3.02834E-004	-5.90113E-002	4.11879E-002	3.34440E+001	11	...........	6.86297E-002	-4.81222E-003	5.82287E-001	5.78516E-001	-2.86551E-002	-3.93076E-002	6.78662E-001	-4.40811E-002	-4.16074E-004	2.91746E-005	-3.53017E-003	-3.50731E-003	1.73725E-004	2.38306E-004	-4.11445E-003	2.67246E-004
	153	153	4.99517E-002	-5.99258E-003	0.00000E+000	-2.99340E-004	-5.83113E-002	4.11577E-002	3.42175E+001	11	...........	6.85653E-002	-4.90667E-003	5.82466E-001	5.78538E-001	-2.86542E-002	-3.93297E-002	6.78725E-001	-4.40617E-002	-4.10883E-004	2.94036E-005	-3.49047E-003	-3.46693E-003	1.71712E-004	2.35686E-004	-4.06731E-003	2.64043E-004
	154	154	4.99507E-002	-5.99820E-003	0.00000E+000	-2.99614E-004	-5.83700E-002	4.12190E-002	3.37482E+001	11	...........	6.86875E-002	-4.83667E-003	5.82386E-001	5.78570E-001	-2.86631E-002	-3.93367E-002	6.78854E-001	-4.39237E-002	-4.12001E-004	2.90113E-005	-3.49327E-003	-3.47038E-003	1.71927E-004	2.35949E-004	-4.07190E-003	2.63463E-004
	155	155	4.99525E-002	-5.93293E-003	0.00000E+000	-2.96364E-004	-5.77140E-002	4.11183E-002	3.41552E+001	11	...........	6.85115E-002	-4.68514E-003	5.82372E-001	5.78454E-001	-2.87012E-002	-3.93267E-002	6.78700E-001	-4.39272E-002	-4.06474E-004	2.77966E-005	-3.45517E-003	-3.43192E-003	1.70282E-004	2.33322E-004	-4.02668E-003	2.60617E-004
	156	156	4.99511E-002	-5.94725E-003	0.00000E+000	-2.97072E-004	-5.78553E-002	4.12643E-002	3.45868E+001	11	...........	6.87272E-002	-4.88361E-003	5.82391E-001	5.78353E-001	-2.86946E-002	-3.93275E-002	6.78638E-001	-4.38817E-002	-4.08738E-004	2.90441E-005	-3.46363E-003	-3.43961E-003	1.70654E-004	2.33891E-004	-4.03603E-003	2.60975E-004
	157	157	4.99512E-002	-5.87335E-003	0.00000E+000	-2.93381E-004	-5.71207E-002	4.12553E-002	3.46325E+001	11	...........	6.87133E-002	-4.79375E-003	5.82460E-001	5.78441E-001	-2.86851E-002	-3.93168E-002	6.78671E-001	-4.37560E-002	-4.03577E-004	2.81554E-005	-3.42099E-003	-3.39739E-003	1.68478E-004	2.30921E-004	-3.98607E-003	2.56994E-004
	158	158	4.99513E-002	-5.82546E-003	0.00000E+000	-2.90990E-004	-5.66453E-002	4.12623E-002	3.46643E+001	11	...........	6.87306E-002	-4.82375E-003	5.82508E-001	5.78617E-001	-2.86385E-002	-3.92787E-002	6.78785E-001	-4.38328E-002	-4.00387E-004	2.81006E-005	-3.39338E-003	-3.37071E-003	1.66832E-004	2.28817E-004	-3.95424E-003	2.55346E-004
	159	159	4.99508E-002	-5.75963E-003	0.00000E+000	-2.87698E-004	-5.59927E-002	4.12528E-002	3.46818E+001	11	...........	6.87115E-002	-4.93639E-003	5.82588E-001	5.78664E-001	-2.86631E-002	-3.92890E-002	6.78718E-001	-4.40096E-002	-3.95753E-004	2.84318E-005	-3.35549E-003	-3.33289E-003	1.65089E-004	2.26290E-004	-3.90916E-003	2.53479E-004
	160	160	4.99509E-002	-5.68867E-003	0.00000E+000	-2.84155E-004	-5.52920E-002	4.12414E-002	3.46703E+001	11	...........	6.87219E-002	-4.92486E-003	5.82333E-001	5.78631E-001	-2.86394E-002	-3.92699E-002	6.78668E-001	-4.40014E-002	-3.90937E-004	2.80159E-005	-3.31270E-003	-3.29164E-003	1.62920E-004	2.23393E-004	-3.86072E-003	2.50310E-004
	161	161	4.99511E-002	-5.61929E-003	0.00000E+000	-2.80690E-004	-5.45913E-002	4.12683E-002	3.46705E+001	11	...........	6.87272E-002	-5.00694E-003	5.82307E-001	5.78575E-001	-2.86437E-002	-3.92632E-002	6.78633E-001	-4.39746E-002	-3.86198E-004	2.81355E-005	-3.27215E-003	-3.25118E-003	1.60958E-004	2.20631E-004	-3.81344E-003	2.47106E-004
	162	162	4.99511E-002	-5.55774E-003	0.00000E+000	-2.77615E-004	-5.39800E-002	4.13091E-002	3.46588E+001	11	...........	6.88250E-002	-4.99847E-003	5.82304E-001	5.78599E-001	-2.86112E-002	-3.92492E-002	6.78697E-001	-4.38787E-002	-3.82511E-004	2.77802E-005	-3.23629E-003	-3.21570E-003	1.59014E-004	2.18137E-004	-3.77202E-003	2.43867E-004
	163	163	4.99509E-002	-5.49515E-003	0.00000E+000	-2.74488E-004	-5.33587E-002	4.12406E-002	3.46540E+001	11	...........	6.87369E-002	-4.94847E-003	5.82232E-001	5.78620E-001	-2.86007E-002	-3.93015E-002	6.78722E-001	-4.38874E-002	-3.77720E-004	2.71926E-005	-3.19946E-003	-3.17960E-003	1.57165E-004	2.15968E-004	-3.72968E-003	2.41168E-004
	164	164	4.99514E-002	-5.43534E-003	0.00000E+000	-2.71502E-004	-5.27627E-002	4.12456E-002	3.46785E+001	11	...........	6.87551E-002	-4.97250E-003	5.82345E-001	5.78722E-001	-2.86346E-002	-3.92539E-002	6.78677E-001	-4.37774E-002	-3.73707E-004	2.70272E-005	-3.16524E-003	-3.14555E-003	1.55639E-004	2.13358E-004	-3.68884E-003	2.37945E-004
	165	165	4.99512E-002	-5.37988E-003	0.00000E+000	-2.68731E-004	-5.22113E-002	4.12962E-002	3.46931E+001	11	...........	6.88043E-002	-4.87542E-003	5.82255E-001	5.78611E-001	-2.86478E-002	-3.92339E-002	6.78694E-001	-4.38025E-002	-3.70159E-004	2.62291E-005	-3.13246E-003	-3.11285E-003	1.54122E-004	2.11073E-004	-3.65129E-003	2.35652E-004
	166	166	4.99511E-002	-5.32086E-003	0.00000E+000	-2.65783E-004	-5.16227E-002	4.13132E-002	3.46953E+001	11	...........	6.88267E-002	-4.93986E-003	5.82312E-001	5.78606E-001	-2.86856E-002	-3.92172E-002	6.78662E-001	-4.37919E-002	-3.66217E-004	2.62843E-005	-3.09840E-003	-3.07868E-003	1.52632E-004	2.08669E-004	-3.61107E-003	2.33011E-004
	167	167	4.99512E-002	-5.26095E-003	0.00000E+000	-2.62791E-004	-5.10393E-002	4.13038E-002	3.46673E+001	11	...........	6.87974E-002	-5.08264E-003	5.82457E-001	5.78674E-001	-2.86792E-002	-3.92235E-002	6.78855E-001	-4.38849E-002	-3.61939E-004	2.67395E-005	-3.06428E-003	-3.04438E-003	1.50880E-004	2.06353E-004	-3.57142E-003	2.30876E-004
	168	168	4.99511E-002	-5.19568E-003	0.00000E+000	-2.59530E-004	-5.04027E-002	4.13239E-002	3.46820E+001	11	...........	6.88404E-002	-5.02181E-003	5.82445E-001	5.78630E-001	-2.86812E-002	-3.92364E-002	6.78982E-001	-4.38824E-002	-3.57673E-004	2.60917E-005	-3.02619E-003	-3.00637E-003	1.49018E-004	2.03860E-004	-3.52777E-003	2.27999E-004
	169	169	4.99512E-002	-5.14088E-003	0.00000E+000	-2.56793E-004	-4.98500E-002	4.13079E-002	3.46837E+001	11	...........	6.88304E-002	-4.91528E-003	5.82487E-001	5.78580E-001	-2.86629E-002	-3.91912E-002	6.78884E-001	-4.38428E-002	-3.53849E-004	2.52689E-005	-2.99449E-003	-2.97441E-003	1.47353E-004	2.01478E-004	-3.49006E-003	2.25390E-004
	170	170	4.99512E-002	-5.08975E-003	0.00000E+000	-2.54239E-004	-4.93427E-002	4.13030E-002	3.47054E+001	11	...........	6.88167E-002	-4.92944E-003	5.82488E-001	5.78574E-001	-2.86286E-002	-3.92197E-002	6.78965E-001	-4.38985E-002	-3.50260E-004	2.50897E-005	-2.96472E-003	-2.94480E-003	1.45713E-004	1.99619E-004	-3.45577E-003	2.23432E-004
	171	170.575	4.99511E-002	-5.04131E-003	0.00000E+000	-2.51819E-004	-4.88580E-002	4.13090E-002	3.47156E+001	11	...........	6.88432E-002	-4.93961E-003	5.82468E-001	5.78703E-001	-2.85872E-002	-3.92645E-002	6.78896E-001	-4.39758E-002	-3.47060E-004	2.49021E-005	-2.93640E-003	-2.91743E-003	1.44117E-004	1.97945E-004	-3.42253E-003	2.21696E-004
STARTTIMEOFFSET	QUANT	540046.2	Start Time Offset (s)
