EXPLAIN
TAG	PWR800_DISCHARGE
TITLE	LABEL	PWR Discharge	Test Identifier
DATE	LABEL	10/14/2022	Date
TIME	LABEL	17:25:49	Time
NOTES	NOTES	1	Notes...
	
PSTAT	PSTAT	REF3000-21114	Potentiostat
CAPACITY	QUANT	5.30000E-002	Capacity (A-hr)
CELLTYPE	SELECTOR	1	Cell Type
WORKINGCONNECTION	SELECTOR	0	Working Connection
MAXDISCHARGETIME	VARIABLEANDUNITS	7.20000E+003	s	2.00000E+000	hour(s)	Max Discharge Time
DISCHARGEMODE	MULTIPARAM	0	1.00000E-001	Discharge Mode	Constant Current	Amp(s)
VOLTAGEFINISH	TWOPARAM	T	5.00000E-003	7.20000E+003	Voltage Finish	I (A) <	Max Time(s)
SAMPLETIME	QUANT	1.00000E+000	Sample Period (s)
DISCHARGESTOPAT1	MULTIPARAM	1	5.00000E-002	Stop At 1	|Voltage| < Limit	V
DISCHARGESTOPAT2	MULTIPARAM	0	0.00000E+000	Stop At 2	None	N/A
AESELECTOR	AESELECTOR	0x1	T	Set Limits	AE Channels
AESBHCSELECTOR	TOGGLE	F	Save Both Half Cells
IRCOMP	TOGGLE	F	IR Measure
EOC	QUANT	0.5735425	Open Circuit (V)
SEQUENCER	TOGGLE	TRUE	Run as Sequence
PSTATMODEL	IQUANT	5	Pstat Model
PSTATSECTION	LABEL	REF3000-21114	Pstat Section
PSTATSERIALNO	LABEL	21114	Pstat Serial Number
CTRLMODE	IQUANT	0	Control Mode
ELECTROMETER	IQUANT	0	RE=0 or CS=1
IESTAB	IQUANT	0	I/E Stability
CASPEED	IQUANT	4	Control Amp Speed
CONVENTION	IQUANT	1	Current Convention
ICHRANGE	IQUANT	2	Ich Range
ICHRANGEMODE	TOGGLE	T	Ich Auto Range
ICHOFFSETENABLE	TOGGLE	F	Ich Offset Enable
ICHOFFSET	QUANT	0	Ich Offset (V)
ICHFILTER	IQUANT	1	Ich Filter
VCHRANGE	IQUANT	3	Vch Range
VCHRANGEMODE	TOGGLE	T	Vch Auto Range
VCHOFFSETENABLE	TOGGLE	F	Vch Offset Enable
VCHOFFSET	QUANT	0	Vch Offset (V)
VCHFILTER	IQUANT	1	Vch Filter
ACHRANGE	IQUANT	2	Ach Range
ACHOFFSETENABLE	TOGGLE	F	Ach Offset Enable
ACHOFFSET	QUANT	0	Ach Offset (V)
ACHFILTER	IQUANT	1	Ach Filter
IERANGELOWERLIMIT	IQUANT	9	I/E Range Lower Limit
IERANGEMODE	TOGGLE	F	I/E AutoRange
IERANGE	IQUANT	9	I/E Range
POSFEEDENABLE	TOGGLE	F	Positive Feedback IR Comp
POSFEEDRESISTANCE	QUANT	0	Positive Feedback Resistance (ohm)
ACHSELECT	IQUANT	1	Ach Select
SENSECABLEID	IQUANT	13	Sense Cable ID
PWRCABLEID	IQUANT	13	Power Cable ID
DCCALDATE	LABEL		DC Calibration Date
ACCALDATE	LABEL		AC Calibration Date
THERMOSELECT	IQUANT	1	Thermo Select
FRAMEWORKVERSION	LABEL	7.8.6	Framework Version
INSTRUMENTVERSION	LABEL	4.50	Instrument Version
COMPLIANCEVOLTAGE	IQUANT	0	Compliance Voltage
CURVE	TABLE	241
	Pt	T	Vf	Im	Vu	Pwr	Sig	Ach	Temp	IERange	Over	Vf1	Vf2	Vf3	Vf4	Vf5	Vf6	Vf7	Vf8	Pwr1	Pwr2	Pwr3	Pwr4	Pwr5	Pwr6	Pwr7	Pwr8
	#	s	V	A	V	W	V	V	deg C	#	bits	V	V	V	V	V	V	V	V	W	W	W	W	W	W	W	W
	0	1	3.49429E-001	-1.00101E-001	0.00000E+000	-3.49780E-002	-9.94000E-001	3.67237E-002	3.22995E+001	11	...........	6.07400E-002	-5.24236E-003	6.10683E-001	5.29011E-001	-2.61032E-002	-3.58610E-002	7.07247E-001	-4.38040E-002	-6.08011E-003	5.24763E-004	-6.11297E-002	-5.29543E-002	2.61294E-003	3.58970E-003	-7.07958E-002	4.38481E-003
	1	2	2.62685E-001	-1.00101E-001	0.00000E+000	-2.62949E-002	-9.94000E-001	3.66692E-002	3.13847E+001	11	...........	6.06701E-002	-5.27903E-003	6.10676E-001	5.29083E-001	-2.60925E-002	-3.58925E-002	7.07243E-001	-4.36785E-002	-6.07311E-003	5.28433E-004	-6.11290E-002	-5.29615E-002	2.61187E-003	3.59286E-003	-7.07954E-002	4.37224E-003
	2	3	1.98325E-001	-1.00101E-001	0.00000E+000	-1.98525E-002	-9.94000E-001	3.66148E-002	2.99060E+001	11	...........	6.05732E-002	-5.20694E-003	6.10714E-001	5.29084E-001	-2.60892E-002	-3.59225E-002	7.07181E-001	-4.36354E-002	-6.06344E-003	5.21221E-004	-6.11331E-002	-5.29618E-002	2.61155E-003	3.59588E-003	-7.07896E-002	4.36795E-003
	3	4	1.46116E-001	-1.00101E-001	0.00000E+000	-1.46263E-002	-9.94000E-001	3.64928E-002	2.98397E+001	11	...........	6.03769E-002	-5.22847E-003	6.10719E-001	5.28953E-001	-2.60719E-002	-3.59657E-002	7.07153E-001	-4.38172E-002	-6.04379E-003	5.23375E-004	-6.11336E-002	-5.29488E-002	2.60983E-003	3.60020E-003	-7.07867E-002	4.38615E-003
	4	5	1.05805E-001	-1.00101E-001	0.00000E+000	-1.05912E-002	-9.94000E-001	3.65597E-002	2.94680E+001	11	...........	6.05001E-002	-5.27431E-003	6.10798E-001	5.29031E-001	-2.60619E-002	-3.60154E-002	7.07115E-001	-4.38889E-002	-6.05615E-003	5.27965E-004	-6.11417E-002	-5.29568E-002	2.60884E-003	3.60519E-003	-7.07832E-002	4.39334E-003
	5	6	7.23011E-002	-1.00101E-001	0.00000E+000	-7.23742E-003	-9.94000E-001	3.65002E-002	2.87668E+001	11	...........	6.04072E-002	-5.32472E-003	6.10860E-001	5.29129E-001	-2.60510E-002	-3.60842E-002	7.07080E-001	-4.38614E-002	-6.04684E-003	5.33011E-004	-6.11478E-002	-5.29664E-002	2.60773E-003	3.61207E-003	-7.07796E-002	4.39058E-003
	6	6.375	5.41629E-002	-1.00101E-001	0.00000E+000	-5.42179E-003	-9.94000E-001	3.66602E-002	2.90057E+001	11	...........	6.06711E-002	-5.31444E-003	6.10858E-001	5.29085E-001	-2.60267E-002	-3.61589E-002	7.06951E-001	-4.37863E-002	-6.07327E-003	5.31984E-004	-6.11477E-002	-5.29622E-002	2.60531E-003	3.61956E-003	-7.07668E-002	4.38307E-003
	7	7	4.97970E-002	-9.44084E-002	0.00000E+000	-4.70125E-003	-9.37385E-001	3.66831E-002	2.93024E+001	11	...........	6.07547E-002	-5.27689E-003	6.10993E-001	5.29071E-001	-2.60622E-002	-3.61580E-002	7.06940E-001	-4.37236E-002	-5.73575E-003	4.98183E-004	-5.76829E-002	-4.99488E-002	2.46049E-003	3.41362E-003	-6.67411E-002	4.12787E-003
	8	8	4.98792E-002	-8.48363E-002	0.00000E+000	-4.23157E-003	-8.42213E-001	3.67097E-002	2.92606E+001	11	...........	6.07910E-002	-5.33125E-003	6.10829E-001	5.29030E-001	-2.60624E-002	-3.62068E-002	7.07063E-001	-4.37931E-002	-5.15728E-003	4.52284E-004	-5.18205E-002	-4.48810E-002	2.21103E-003	3.07165E-003	-5.99847E-002	3.71524E-003
	9	9	4.99432E-002	-7.80053E-002	0.00000E+000	-3.89583E-003	-7.74304E-001	3.68085E-002	2.98004E+001	11	...........	6.09457E-002	-5.35986E-003	6.10782E-001	5.28979E-001	-2.60818E-002	-3.62406E-002	7.07166E-001	-4.37931E-002	-4.75408E-003	4.18097E-004	-4.76442E-002	-4.12631E-002	2.03452E-003	2.82695E-003	-5.51626E-002	3.41609E-003
	10	10	4.99635E-002	-7.43884E-002	0.00000E+000	-3.71671E-003	-7.38333E-001	3.69126E-002	3.03939E+001	11	...........	6.11079E-002	-5.33014E-003	6.10762E-001	5.28911E-001	-2.60912E-002	-3.62885E-002	7.07043E-001	-4.38539E-002	-4.54572E-003	3.96501E-004	-4.54336E-002	-3.93448E-002	1.94089E-003	2.69944E-003	-5.25958E-002	3.26222E-003
	11	11	4.99716E-002	-7.15237E-002	0.00000E+000	-3.57415E-003	-7.09867E-001	3.69989E-002	3.07049E+001	11	...........	6.12719E-002	-5.26681E-003	6.10651E-001	5.28930E-001	-2.60600E-002	-3.63262E-002	7.07010E-001	-4.38739E-002	-4.38240E-003	3.76701E-004	-4.36760E-002	-3.78311E-002	1.86391E-003	2.59819E-003	-5.05680E-002	3.13802E-003
	12	12	4.99701E-002	-6.91943E-002	0.00000E+000	-3.45765E-003	-6.86709E-001	3.71095E-002	2.99890E+001	11	...........	6.14569E-002	-5.28542E-003	6.10600E-001	5.28960E-001	-2.60500E-002	-3.63489E-002	7.07075E-001	-4.38815E-002	-4.25247E-003	3.65721E-004	-4.22500E-002	-3.66010E-002	1.80251E-003	2.51514E-003	-4.89256E-002	3.03635E-003
	13	13	4.99691E-002	-6.61685E-002	0.00000E+000	-3.30638E-003	-6.56603E-001	3.70714E-002	3.02915E+001	11	...........	6.13812E-002	-5.27986E-003	6.10474E-001	5.28833E-001	-2.60464E-002	-3.63954E-002	7.07081E-001	-4.39029E-002	-4.06150E-003	3.49360E-004	-4.03941E-002	-3.49921E-002	1.72345E-003	2.40823E-003	-4.67865E-002	2.90499E-003
	14	14	4.99970E-002	-6.58377E-002	0.00000E+000	-3.29169E-003	-6.53315E-001	3.72727E-002	3.11080E+001	11	...........	6.17085E-002	-5.29944E-003	6.10617E-001	5.28743E-001	-2.60526E-002	-3.64169E-002	7.07053E-001	-4.38306E-002	-4.06274E-003	3.48903E-004	-4.02016E-002	-3.48112E-002	1.71524E-003	2.39761E-003	-4.65507E-002	2.88570E-003
	15	15	4.99857E-002	-6.48956E-002	0.00000E+000	-3.24385E-003	-6.43962E-001	3.73318E-002	3.12892E+001	11	...........	6.18118E-002	-5.29917E-003	6.10683E-001	5.28581E-001	-2.60406E-002	-3.64444E-002	7.07096E-001	-4.37978E-002	-4.01132E-003	3.43893E-004	-3.96306E-002	-3.43026E-002	1.68992E-003	2.36509E-003	-4.58874E-002	2.84228E-003
	16	16	4.99819E-002	-6.35966E-002	0.00000E+000	-3.17868E-003	-6.31040E-001	3.74043E-002	3.10699E+001	11	...........	6.19621E-002	-5.32556E-003	6.10652E-001	5.28687E-001	-2.60625E-002	-3.64832E-002	7.07162E-001	-4.37567E-002	-3.94058E-003	3.38687E-004	-3.88354E-002	-3.36226E-002	1.65749E-003	2.32021E-003	-4.49731E-002	2.78277E-003
	17	17	4.99912E-002	-6.25010E-002	0.00000E+000	-3.12450E-003	-6.20148E-001	3.74702E-002	3.10679E+001	11	...........	6.20717E-002	-5.21472E-003	6.10563E-001	5.28752E-001	-2.60575E-002	-3.64965E-002	7.07253E-001	-4.37593E-002	-3.87954E-003	3.25925E-004	-3.81607E-002	-3.30475E-002	1.62862E-003	2.28107E-003	-4.42040E-002	2.73500E-003
	18	18	4.99894E-002	-6.13155E-002	0.00000E+000	-3.06512E-003	-6.08371E-001	3.74290E-002	3.08274E+001	11	...........	6.20162E-002	-5.21681E-003	6.10496E-001	5.28769E-001	-2.60244E-002	-3.65226E-002	7.07182E-001	-4.38153E-002	-3.80256E-003	3.19871E-004	-3.74329E-002	-3.24217E-002	1.59570E-003	2.23940E-003	-4.33612E-002	2.68656E-003
	19	19	4.99937E-002	-6.12215E-002	0.00000E+000	-3.06068E-003	-6.07429E-001	3.76208E-002	3.15328E+001	11	...........	6.23082E-002	-5.21069E-003	6.10644E-001	5.28619E-001	-2.60036E-002	-3.65410E-002	7.07193E-001	-4.37893E-002	-3.81460E-003	3.19006E-004	-3.73845E-002	-3.23628E-002	1.59198E-003	2.23709E-003	-4.32954E-002	2.68084E-003
	20	20	4.99856E-002	-6.03975E-002	0.00000E+000	-3.01901E-003	-5.99229E-001	3.74954E-002	3.14179E+001	11	...........	6.23228E-002	-5.23306E-003	6.10728E-001	5.28508E-001	-2.60126E-002	-3.65804E-002	7.07183E-001	-4.38783E-002	-3.76414E-003	3.16063E-004	-3.68865E-002	-3.19206E-002	1.57110E-003	2.20937E-003	-4.27121E-002	2.65014E-003
	21	21	4.99887E-002	-5.96585E-002	0.00000E+000	-2.98225E-003	-5.91891E-001	3.74923E-002	3.16903E+001	11	...........	6.24644E-002	-5.38833E-003	6.10764E-001	5.28343E-001	-2.59907E-002	-3.66037E-002	7.07231E-001	-4.39108E-002	-3.72654E-003	3.21460E-004	-3.64373E-002	-3.15202E-002	1.55057E-003	2.18373E-003	-4.21924E-002	2.61966E-003
	22	22	4.99631E-002	-5.82663E-002	0.00000E+000	-2.91117E-003	-5.78044E-001	3.75402E-002	3.10691E+001	11	...........	6.25185E-002	-5.31806E-003	6.10872E-001	5.28260E-001	-2.59596E-002	-3.66301E-002	7.07242E-001	-4.39517E-002	-3.64272E-003	3.09864E-004	-3.55933E-002	-3.07798E-002	1.51257E-003	2.13430E-003	-4.12084E-002	2.56090E-003
	23	23	4.99949E-002	-5.69602E-002	0.00000E+000	-2.84772E-003	-5.65052E-001	3.74977E-002	3.06941E+001	11	...........	6.24897E-002	-5.27694E-003	6.10844E-001	5.28309E-001	-2.59529E-002	-3.66219E-002	7.07234E-001	-4.38718E-002	-3.55943E-003	3.00576E-004	-3.47938E-002	-3.00926E-002	1.47828E-003	2.08599E-003	-4.02842E-002	2.49895E-003
	24	24	5.00181E-002	-5.72140E-002	0.00000E+000	-2.86173E-003	-5.67578E-001	3.76367E-002	3.17388E+001	11	...........	6.27099E-002	-5.32208E-003	6.10930E-001	5.28389E-001	-2.59492E-002	-3.66425E-002	7.07149E-001	-4.38914E-002	-3.58788E-003	3.04497E-004	-3.49537E-002	-3.02312E-002	1.48465E-003	2.09646E-003	-4.04588E-002	2.51120E-003
	25	25	4.99875E-002	-5.70540E-002	0.00000E+000	-2.85199E-003	-5.65986E-001	3.76973E-002	3.20257E+001	11	...........	6.28033E-002	-5.35292E-003	6.11120E-001	5.28246E-001	-2.59292E-002	-3.66592E-002	7.07165E-001	-4.38565E-002	-3.58318E-003	3.05406E-004	-3.48668E-002	-3.01386E-002	1.47936E-003	2.09155E-003	-4.03466E-002	2.50219E-003
	26	26	4.99891E-002	-5.62020E-002	0.00000E+000	-2.80949E-003	-5.57507E-001	3.77060E-002	3.16613E+001	11	...........	6.28318E-002	-5.29389E-003	6.11239E-001	5.28335E-001	-2.59410E-002	-3.66553E-002	7.07236E-001	-4.37874E-002	-3.53127E-003	2.97527E-004	-3.43528E-002	-2.96935E-002	1.45793E-003	2.06010E-003	-3.97480E-002	2.46094E-003
	27	27	4.99791E-002	-5.52894E-002	0.00000E+000	-2.76332E-003	-5.48434E-001	3.77878E-002	3.14896E+001	11	...........	6.29693E-002	-5.28403E-003	6.11308E-001	5.28291E-001	-2.59357E-002	-3.66553E-002	7.07229E-001	-4.38618E-002	-3.48154E-003	2.92151E-004	-3.37989E-002	-2.92089E-002	1.43397E-003	2.02665E-003	-3.91023E-002	2.42509E-003
	28	28	5.00034E-002	-5.44693E-002	0.00000E+000	-2.72365E-003	-5.40287E-001	3.77756E-002	3.14986E+001	11	...........	6.29350E-002	-5.31375E-003	6.11535E-001	5.28153E-001	-2.59492E-002	-3.66876E-002	7.07251E-001	-4.38442E-002	-3.42802E-003	2.89436E-004	-3.33099E-002	-2.87681E-002	1.41343E-003	1.99835E-003	-3.85235E-002	2.38816E-003
	29	29	5.00015E-002	-5.43435E-002	0.00000E+000	-2.71725E-003	-5.39033E-001	3.78882E-002	3.21978E+001	11	...........	6.31421E-002	-5.33667E-003	6.11302E-001	5.28259E-001	-2.59308E-002	-3.67171E-002	7.07245E-001	-4.36406E-002	-3.43136E-003	2.90013E-004	-3.32203E-002	-2.87074E-002	1.40917E-003	1.99533E-003	-3.84341E-002	2.37158E-003
	30	30	4.99896E-002	-5.39678E-002	0.00000E+000	-2.69783E-003	-5.35304E-001	3.79583E-002	3.23282E+001	11	...........	6.32310E-002	-5.37000E-003	6.11210E-001	5.28325E-001	-2.59244E-002	-3.67364E-002	7.07263E-001	-4.36929E-002	-3.41244E-003	2.89807E-004	-3.29857E-002	-2.85125E-002	1.39909E-003	1.98258E-003	-3.81694E-002	2.35801E-003
	31	31	4.99871E-002	-5.30260E-002	0.00000E+000	-2.65061E-003	-5.25930E-001	3.78982E-002	3.14808E+001	11	...........	6.31574E-002	-5.38292E-003	6.11325E-001	5.28297E-001	-2.59024E-002	-3.67256E-002	7.07228E-001	-4.38750E-002	-3.34898E-003	2.85434E-004	-3.24161E-002	-2.80135E-002	1.37350E-003	1.94741E-003	-3.75015E-002	2.32652E-003
	32	32	4.99790E-002	-5.20777E-002	0.00000E+000	-2.60279E-003	-5.16510E-001	3.80710E-002	3.19412E+001	11	...........	6.34275E-002	-5.42972E-003	6.11399E-001	5.28238E-001	-2.59022E-002	-3.67483E-002	7.07162E-001	-4.38161E-002	-3.30316E-003	2.82767E-004	-3.18402E-002	-2.75094E-002	1.34893E-003	1.91377E-003	-3.68273E-002	2.28184E-003
	33	33	4.99918E-002	-5.11141E-002	0.00000E+000	-2.55529E-003	-5.06935E-001	3.79093E-002	3.13394E+001	11	...........	6.31774E-002	-5.44028E-003	6.11160E-001	5.28283E-001	-2.59118E-002	-3.67611E-002	7.07238E-001	-4.37854E-002	-3.22926E-003	2.78075E-004	-3.12389E-002	-2.70027E-002	1.32446E-003	1.87901E-003	-3.61499E-002	2.23805E-003
	34	34	5.00140E-002	-5.12685E-002	0.00000E+000	-2.56414E-003	-5.08487E-001	3.81213E-002	3.20741E+001	11	...........	6.35049E-002	-5.35056E-003	6.11015E-001	5.28347E-001	-2.59231E-002	-3.67715E-002	7.07223E-001	-4.37610E-002	-3.25580E-003	2.74315E-004	-3.13258E-002	-2.70876E-002	1.32903E-003	1.88522E-003	-3.62582E-002	2.24356E-003
	35	35	4.99880E-002	-5.10882E-002	0.00000E+000	-2.55380E-003	-5.06694E-001	3.81478E-002	3.19667E+001	11	...........	6.35540E-002	-5.34069E-003	6.10960E-001	5.28413E-001	-2.58985E-002	-3.67889E-002	7.07174E-001	-4.38003E-002	-3.24686E-003	2.72846E-004	-3.12128E-002	-2.69956E-002	1.32311E-003	1.87948E-003	-3.61282E-002	2.23768E-003
	36	36	4.99900E-002	-4.98727E-002	0.00000E+000	-2.49314E-003	-4.94610E-001	3.81455E-002	3.21281E+001	11	...........	6.35693E-002	-5.31583E-003	6.10899E-001	5.28501E-001	-2.58840E-002	-3.68097E-002	7.07139E-001	-4.37372E-002	-3.17038E-003	2.65115E-004	-3.04672E-002	-2.63578E-002	1.29091E-003	1.83580E-003	-3.52670E-002	2.18130E-003
	37	37	4.99858E-002	-4.95442E-002	0.00000E+000	-2.47651E-003	-4.91340E-001	3.82478E-002	3.11991E+001	11	...........	6.37218E-002	-5.21458E-003	6.10776E-001	5.28459E-001	-2.58671E-002	-3.68433E-002	7.07232E-001	-4.37951E-002	-3.15704E-003	2.58352E-004	-3.02604E-002	-2.61821E-002	1.28156E-003	1.82537E-003	-3.50392E-002	2.16979E-003
	38	38	5.00050E-002	-4.85740E-002	0.00000E+000	-2.42894E-003	-4.81692E-001	3.81909E-002	3.19092E+001	11	...........	6.36197E-002	-5.25806E-003	6.10723E-001	5.28454E-001	-2.58532E-002	-3.68617E-002	7.07352E-001	-4.37796E-002	-3.09027E-003	2.55405E-004	-2.96653E-002	-2.56692E-002	1.25579E-003	1.79052E-003	-3.43589E-002	2.12655E-003
	39	39	4.99944E-002	-4.90112E-002	0.00000E+000	-2.45028E-003	-4.86042E-001	3.83203E-002	3.24983E+001	11	...........	6.38414E-002	-5.28847E-003	6.10876E-001	5.28400E-001	-2.58514E-002	-3.68732E-002	7.07331E-001	-4.37935E-002	-3.12894E-003	2.59194E-004	-2.99397E-002	-2.58975E-002	1.26701E-003	1.80720E-003	-3.46671E-002	2.14637E-003
	40	40	4.99871E-002	-4.85422E-002	0.00000E+000	-2.42649E-003	-4.81377E-001	3.83493E-002	3.22319E+001	11	...........	6.38881E-002	-5.39083E-003	6.10970E-001	5.28452E-001	-2.58461E-002	-3.68865E-002	7.07309E-001	-4.38053E-002	-3.10127E-003	2.61683E-004	-2.96579E-002	-2.56522E-002	1.25463E-003	1.79055E-003	-3.43343E-002	2.12641E-003
	41	41	4.99887E-002	-4.80089E-002	0.00000E+000	-2.39991E-003	-4.76062E-001	3.84144E-002	3.22544E+001	11	...........	6.40011E-002	-5.34472E-003	6.11018E-001	5.28355E-001	-2.58324E-002	-3.69168E-002	7.07268E-001	-4.38893E-002	-3.07263E-003	2.56594E-004	-2.93343E-002	-2.53658E-002	1.24018E-003	1.77234E-003	-3.39552E-002	2.10708E-003
	42	42	4.99969E-002	-4.69812E-002	0.00000E+000	-2.34891E-003	-4.65850E-001	3.84352E-002	3.23783E+001	11	...........	6.40385E-002	-5.23139E-003	6.11040E-001	5.28266E-001	-2.58353E-002	-3.69217E-002	7.07160E-001	-4.39556E-002	-3.00861E-003	2.45777E-004	-2.87074E-002	-2.48186E-002	1.21377E-003	1.73462E-003	-3.32232E-002	2.06509E-003
	43	43	4.99911E-002	-4.62458E-002	0.00000E+000	-2.31187E-003	-4.58533E-001	3.82909E-002	3.14968E+001	11	...........	6.38040E-002	-5.33375E-003	6.10854E-001	5.28384E-001	-2.58308E-002	-3.69065E-002	7.07030E-001	-4.39488E-002	-2.95067E-003	2.46663E-004	-2.82494E-002	-2.44355E-002	1.19457E-003	1.70677E-003	-3.26972E-002	2.03244E-003
	44	44	5.00041E-002	-4.65817E-002	0.00000E+000	-2.32927E-003	-4.61874E-001	3.85975E-002	3.26600E+001	11	...........	6.43094E-002	-5.32903E-003	6.10850E-001	5.28318E-001	-2.58456E-002	-3.69079E-002	7.07112E-001	-4.38536E-002	-2.99564E-003	2.48235E-004	-2.84544E-002	-2.46099E-002	1.20393E-003	1.71923E-003	-3.29384E-002	2.04277E-003
	45	45	4.99931E-002	-4.61632E-002	0.00000E+000	-2.30784E-003	-4.57718E-001	3.85602E-002	3.26049E+001	11	...........	6.42549E-002	-5.30500E-003	6.10923E-001	5.28336E-001	-2.58735E-002	-3.69292E-002	7.07260E-001	-4.38144E-002	-2.96621E-003	2.44896E-004	-2.82022E-002	-2.43897E-002	1.19440E-003	1.70477E-003	-3.26494E-002	2.02261E-003
	46	46	4.99881E-002	-4.52461E-002	0.00000E+000	-2.26176E-003	-4.48590E-001	3.85171E-002	3.18457E+001	11	...........	6.41671E-002	-5.35236E-003	6.10903E-001	5.28313E-001	-2.58746E-002	-3.69283E-002	7.07253E-001	-4.38269E-002	-2.90331E-003	2.42173E-004	-2.76410E-002	-2.39041E-002	1.17072E-003	1.67086E-003	-3.20004E-002	1.98300E-003
	47	47	4.99921E-002	-4.47598E-002	0.00000E+000	-2.23763E-003	-4.43759E-001	3.86485E-002	3.26342E+001	11	...........	6.43869E-002	-5.39917E-003	6.11014E-001	5.28289E-001	-2.58568E-002	-3.69121E-002	7.07269E-001	-4.37721E-002	-2.88194E-003	2.41665E-004	-2.73488E-002	-2.36461E-002	1.15734E-003	1.65218E-003	-3.16572E-002	1.95923E-003
	48	48	4.99992E-002	-4.45568E-002	0.00000E+000	-2.22781E-003	-4.41745E-001	3.86428E-002	3.29855E+001	11	...........	6.43826E-002	-5.39944E-003	6.11046E-001	5.28328E-001	-2.58232E-002	-3.68711E-002	7.07251E-001	-4.38004E-002	-2.86869E-003	2.40582E-004	-2.72263E-002	-2.35406E-002	1.15060E-003	1.64286E-003	-3.15128E-002	1.95161E-003
	49	49	4.99840E-002	-4.39141E-002	0.00000E+000	-2.19500E-003	-4.35353E-001	3.86675E-002	3.22499E+001	11	...........	6.44269E-002	-5.39375E-003	6.11145E-001	5.28197E-001	-2.58181E-002	-3.68615E-002	7.07179E-001	-4.37813E-002	-2.82925E-003	2.36861E-004	-2.68379E-002	-2.31953E-002	1.13378E-003	1.61874E-003	-3.10551E-002	1.92261E-003
	50	50	4.99932E-002	-4.28878E-002	0.00000E+000	-2.14410E-003	-4.25139E-001	3.86105E-002	3.18421E+001	11	...........	6.43214E-002	-5.39750E-003	6.11095E-001	5.27990E-001	-2.58058E-002	-3.68757E-002	7.07322E-001	-4.37668E-002	-2.75860E-003	2.31487E-004	-2.62085E-002	-2.26443E-002	1.10676E-003	1.58152E-003	-3.03355E-002	1.87706E-003
	51	51	5.00022E-002	-4.26239E-002	0.00000E+000	-2.13128E-003	-4.22518E-001	3.86776E-002	3.24033E+001	11	...........	6.44399E-002	-5.36111E-003	6.11104E-001	5.27931E-001	-2.58210E-002	-3.68807E-002	7.07332E-001	-4.37803E-002	-2.74667E-003	2.28511E-004	-2.60476E-002	-2.25024E-002	1.10059E-003	1.57200E-003	-3.01492E-002	1.86608E-003
	52	52	4.99938E-002	-4.27958E-002	0.00000E+000	-2.13953E-003	-4.24228E-001	3.88609E-002	3.31119E+001	11	...........	6.47575E-002	-5.34917E-003	6.11122E-001	5.28120E-001	-2.57946E-002	-3.69083E-002	7.07258E-001	-4.38089E-002	-2.77135E-003	2.28922E-004	-2.61535E-002	-2.26013E-002	1.10390E-003	1.57952E-003	-3.02677E-002	1.87484E-003
	53	53	4.99863E-002	-4.22123E-002	0.00000E+000	-2.11004E-003	-4.18432E-001	3.88070E-002	3.29345E+001	11	...........	6.46732E-002	-5.37764E-003	6.11124E-001	5.28096E-001	-2.57987E-002	-3.68982E-002	7.07218E-001	-4.39351E-002	-2.73000E-003	2.27003E-004	-2.57970E-002	-2.22922E-002	1.08902E-003	1.55756E-003	-2.98533E-002	1.85460E-003
	54	54	4.99812E-002	-4.14987E-002	0.00000E+000	-2.07415E-003	-4.11336E-001	3.88437E-002	3.23595E+001	11	...........	6.47199E-002	-5.36792E-003	6.11056E-001	5.28072E-001	-2.58093E-002	-3.68949E-002	7.07231E-001	-4.39010E-002	-2.68579E-003	2.22761E-004	-2.53580E-002	-2.19143E-002	1.07105E-003	1.53109E-003	-2.93491E-002	1.82183E-003
	55	55	5.00143E-002	-4.12523E-002	0.00000E+000	-2.06321E-003	-4.08893E-001	3.88531E-002	3.27500E+001	11	...........	6.47493E-002	-5.37597E-003	6.10928E-001	5.28119E-001	-2.57960E-002	-3.68993E-002	7.07265E-001	-4.39575E-002	-2.67106E-003	2.21771E-004	-2.52022E-002	-2.17861E-002	1.06414E-003	1.52218E-003	-2.91763E-002	1.81335E-003
	56	56	4.99802E-002	-4.08541E-002	0.00000E+000	-2.04189E-003	-4.04949E-001	3.88868E-002	3.24753E+001	11	...........	6.47854E-002	-5.35153E-003	6.10960E-001	5.28057E-001	-2.58047E-002	-3.68994E-002	7.07276E-001	-4.39076E-002	-2.64675E-003	2.18632E-004	-2.49602E-002	-2.15733E-002	1.05423E-003	1.50749E-003	-2.88951E-002	1.79381E-003
	57	57	5.00043E-002	-4.00358E-002	0.00000E+000	-2.00196E-003	-3.96799E-001	3.89146E-002	3.29030E+001	11	...........	6.48244E-002	-5.42069E-003	6.10849E-001	5.28026E-001	-2.57878E-002	-3.68910E-002	7.07361E-001	-4.39475E-002	-2.59530E-003	2.17022E-004	-2.44558E-002	-2.11400E-002	1.03244E-003	1.47696E-003	-2.83198E-002	1.75948E-003
	58	58	4.99979E-002	-4.01170E-002	0.00000E+000	-2.00577E-003	-3.97599E-001	3.89442E-002	3.33187E+001	11	...........	6.48992E-002	-5.51375E-003	6.10845E-001	5.28027E-001	-2.57843E-002	-3.69090E-002	7.07383E-001	-4.39893E-002	-2.60356E-003	2.21195E-004	-2.45053E-002	-2.11829E-002	1.03439E-003	1.48068E-003	-2.83781E-002	1.76472E-003
	59	59	4.99883E-002	-3.96631E-002	0.00000E+000	-1.98269E-003	-3.93112E-001	3.90024E-002	3.30571E+001	11	...........	6.49968E-002	-5.35306E-003	6.10952E-001	5.27987E-001	-2.57978E-002	-3.68886E-002	7.07219E-001	-4.39029E-002	-2.57798E-003	2.12319E-004	-2.42323E-002	-2.09416E-002	1.02322E-003	1.46312E-003	-2.80505E-002	1.74133E-003
	60	60	4.99816E-002	-3.86568E-002	0.00000E+000	-1.93213E-003	-3.83098E-001	3.89478E-002	3.19888E+001	11	...........	6.48932E-002	-5.38361E-003	6.11026E-001	5.27922E-001	-2.57974E-002	-3.68986E-002	7.07289E-001	-4.38138E-002	-2.50856E-003	2.08113E-004	-2.36203E-002	-2.04078E-002	9.97243E-004	1.42638E-003	-2.73415E-002	1.69370E-003
	61	61	5.00121E-002	-3.83304E-002	0.00000E+000	-1.91699E-003	-3.79855E-001	3.90233E-002	3.29622E+001	11	...........	6.50074E-002	-5.35306E-003	6.11118E-001	5.28027E-001	-2.57996E-002	-3.69271E-002	7.07306E-001	-4.38651E-002	-2.49176E-003	2.05185E-004	-2.34244E-002	-2.02395E-002	9.88908E-004	1.41543E-003	-2.71113E-002	1.68137E-003
	62	62	4.99872E-002	-3.82587E-002	0.00000E+000	-1.91244E-003	-3.79139E-001	3.90249E-002	3.31337E+001	11	...........	6.50293E-002	-5.48500E-003	6.11148E-001	5.27996E-001	-2.58369E-002	-3.69125E-002	7.07269E-001	-4.39044E-002	-2.48793E-003	2.09849E-004	-2.33817E-002	-2.02004E-002	9.88487E-004	1.41222E-003	-2.70592E-002	1.67973E-003
	63	63	4.99987E-002	-3.79088E-002	0.00000E+000	-1.89539E-003	-3.75653E-001	3.91492E-002	3.31680E+001	11	...........	6.52299E-002	-5.42222E-003	6.11008E-001	5.27999E-001	-2.58201E-002	-3.69306E-002	7.07197E-001	-4.38494E-002	-2.47278E-003	2.05550E-004	-2.31626E-002	-2.00158E-002	9.78810E-004	1.39999E-003	-2.68090E-002	1.66228E-003
	64	64	4.99959E-002	-3.74581E-002	0.00000E+000	-1.87275E-003	-3.71168E-001	3.90675E-002	3.33094E+001	11	...........	6.51126E-002	-5.40361E-003	6.10901E-001	5.27926E-001	-2.58250E-002	-3.69362E-002	7.07267E-001	-4.38578E-002	-2.43899E-003	2.02409E-004	-2.28832E-002	-1.97751E-002	9.67355E-004	1.38356E-003	-2.64929E-002	1.64283E-003
	65	65	4.99918E-002	-3.72116E-002	0.00000E+000	-1.86027E-003	-3.68725E-001	3.91678E-002	3.34122E+001	11	...........	6.52490E-002	-5.28694E-003	6.10868E-001	5.28101E-001	-2.58144E-002	-3.69461E-002	7.07242E-001	-4.36535E-002	-2.42802E-003	1.96736E-004	-2.27314E-002	-1.96515E-002	9.60597E-004	1.37482E-003	-2.63176E-002	1.62442E-003
	66	66	4.99905E-002	-3.64831E-002	0.00000E+000	-1.82381E-003	-3.61475E-001	3.91303E-002	3.26377E+001	11	...........	6.51925E-002	-5.32694E-003	6.10995E-001	5.28030E-001	-2.58172E-002	-3.69540E-002	7.07174E-001	-4.37844E-002	-2.37842E-003	1.94343E-004	-2.22910E-002	-1.92642E-002	9.41892E-004	1.34820E-003	-2.57999E-002	1.59739E-003
	67	67	5.00015E-002	-3.58924E-002	0.00000E+000	-1.79468E-003	-3.55596E-001	3.91056E-002	3.31606E+001	11	...........	6.51671E-002	-5.28625E-003	6.11117E-001	5.28070E-001	-2.58372E-002	-3.69469E-002	7.07242E-001	-4.37600E-002	-2.33901E-003	1.89736E-004	-2.19345E-002	-1.89537E-002	9.27361E-004	1.32612E-003	-2.53846E-002	1.57065E-003
	68	68	4.99908E-002	-3.60469E-002	0.00000E+000	-1.80202E-003	-3.57139E-001	3.92834E-002	3.35036E+001	11	...........	6.54657E-002	-5.32847E-003	6.11204E-001	5.27962E-001	-2.58299E-002	-3.69351E-002	7.07241E-001	-4.37435E-002	-2.35984E-003	1.92075E-004	-2.20320E-002	-1.90314E-002	9.31087E-004	1.33140E-003	-2.54939E-002	1.57682E-003
	69	69	4.99965E-002	-3.55443E-002	0.00000E+000	-1.77709E-003	-3.52133E-001	3.92099E-002	3.31837E+001	11	...........	6.53414E-002	-5.29236E-003	6.11277E-001	5.27841E-001	-2.58472E-002	-3.69171E-002	7.07265E-001	-4.37244E-002	-2.32251E-003	1.88113E-004	-2.17274E-002	-1.87617E-002	9.18721E-004	1.31219E-003	-2.51393E-002	1.55415E-003
	70	70	4.99904E-002	-3.45961E-002	0.00000E+000	-1.72947E-003	-3.42710E-001	3.92212E-002	3.32199E+001	11	...........	6.53562E-002	-5.27514E-003	6.11224E-001	5.27836E-001	-2.58511E-002	-3.69285E-002	7.07216E-001	-4.36957E-002	-2.26107E-003	1.82499E-004	-2.11460E-002	-1.82611E-002	8.94348E-004	1.27758E-003	-2.44669E-002	1.51170E-003
	71	71	4.99942E-002	-3.41184E-002	0.00000E+000	-1.70572E-003	-3.37963E-001	3.90943E-002	3.27622E+001	11	...........	6.51549E-002	-5.34361E-003	6.11080E-001	5.27909E-001	-2.58611E-002	-3.69190E-002	7.07126E-001	-4.35887E-002	-2.22298E-003	1.82315E-004	-2.08490E-002	-1.80114E-002	8.82339E-004	1.25962E-003	-2.41260E-002	1.48718E-003
	72	72	5.00014E-002	-3.44031E-002	0.00000E+000	-1.72020E-003	-3.40795E-001	3.93930E-002	3.36401E+001	11	...........	6.56512E-002	-5.43514E-003	6.11042E-001	5.28059E-001	-2.58853E-002	-3.69047E-002	7.07179E-001	-4.37149E-002	-2.25861E-003	1.86986E-004	-2.10217E-002	-1.81669E-002	8.90535E-004	1.26964E-003	-2.43292E-002	1.50393E-003
	73	73	4.99916E-002	-3.39679E-002	0.00000E+000	-1.69811E-003	-3.36459E-001	3.93158E-002	3.37491E+001	11	...........	6.55186E-002	-5.47264E-003	6.11264E-001	5.28053E-001	-2.58969E-002	-3.69144E-002	7.07229E-001	-4.37939E-002	-2.22553E-003	1.85894E-004	-2.07634E-002	-1.79369E-002	8.79666E-004	1.25391E-003	-2.40231E-002	1.48759E-003
	74	74	4.99952E-002	-3.34675E-002	0.00000E+000	-1.67322E-003	-3.31493E-001	3.93243E-002	3.36772E+001	11	...........	6.55093E-002	-5.42611E-003	6.11498E-001	5.28085E-001	-2.58871E-002	-3.69436E-002	7.07245E-001	-4.38193E-002	-2.19243E-003	1.81598E-004	-2.04653E-002	-1.76737E-002	8.66377E-004	1.23641E-003	-2.36697E-002	1.46652E-003
	75	75	4.99941E-002	-3.31600E-002	0.00000E+000	-1.65780E-003	-3.28430E-001	3.93372E-002	3.39886E+001	11	...........	6.55492E-002	-5.39972E-003	6.11516E-001	5.28064E-001	-2.58629E-002	-3.69568E-002	7.07217E-001	-4.37869E-002	-2.17361E-003	1.79055E-004	-2.02779E-002	-1.75106E-002	8.57615E-004	1.22549E-003	-2.34513E-002	1.45198E-003
	76	76	4.99917E-002	-3.25351E-002	0.00000E+000	-1.62648E-003	-3.22211E-001	3.93549E-002	3.23065E+001	11	...........	6.55396E-002	-5.31431E-003	6.11442E-001	5.28006E-001	-2.58319E-002	-3.69668E-002	7.07237E-001	-4.38710E-002	-2.13234E-003	1.72901E-004	-1.98933E-002	-1.71787E-002	8.40445E-004	1.20272E-003	-2.30100E-002	1.42735E-003
	77	77	4.99951E-002	-3.18164E-002	0.00000E+000	-1.59066E-003	-3.15067E-001	3.92860E-002	3.34082E+001	11	...........	6.54537E-002	-5.42736E-003	6.11434E-001	5.28069E-001	-2.58243E-002	-3.69628E-002	7.07278E-001	-4.37710E-002	-2.08250E-003	1.72679E-004	-1.94536E-002	-1.68012E-002	8.21637E-004	1.17602E-003	-2.25031E-002	1.39263E-003
	78	78	4.99969E-002	-3.19836E-002	0.00000E+000	-1.59908E-003	-3.16737E-001	3.94003E-002	3.41055E+001	11	...........	6.56489E-002	-5.44583E-003	6.11473E-001	5.28002E-001	-2.58054E-002	-3.69671E-002	7.07361E-001	-4.37086E-002	-2.09969E-003	1.74177E-004	-1.95571E-002	-1.68874E-002	8.25350E-004	1.18234E-003	-2.26239E-002	1.39796E-003
	79	79	4.99955E-002	-3.17477E-002	0.00000E+000	-1.58724E-003	-3.14386E-001	3.94296E-002	3.41532E+001	11	...........	6.57003E-002	-5.33153E-003	6.11460E-001	5.27817E-001	-2.57982E-002	-3.69615E-002	7.07373E-001	-4.37933E-002	-2.08583E-003	1.69264E-004	-1.94124E-002	-1.67570E-002	8.19033E-004	1.17344E-003	-2.24575E-002	1.39034E-003
	80	80	4.99932E-002	-3.13565E-002	0.00000E+000	-1.56761E-003	-3.10493E-001	3.94143E-002	3.31958E+001	11	...........	6.56796E-002	-5.33944E-003	6.11431E-001	5.27752E-001	-2.57954E-002	-3.69656E-002	7.07384E-001	-4.38106E-002	-2.05948E-003	1.67427E-004	-1.91724E-002	-1.65485E-002	8.08855E-004	1.15911E-003	-2.21811E-002	1.37375E-003
	81	81	4.99954E-002	-3.05638E-002	0.00000E+000	-1.52805E-003	-3.02635E-001	3.93379E-002	3.34058E+001	11	...........	6.55424E-002	-5.41236E-003	6.11226E-001	5.27667E-001	-2.58133E-002	-3.69353E-002	7.07360E-001	-4.37329E-002	-2.00322E-003	1.65422E-004	-1.86814E-002	-1.61275E-002	7.88953E-004	1.12888E-003	-2.16196E-002	1.33664E-003
	82	82	4.99966E-002	-3.04020E-002	0.00000E+000	-1.51999E-003	-3.01025E-001	3.94131E-002	3.37947E+001	11	...........	6.56768E-002	-5.32306E-003	6.10880E-001	5.27654E-001	-2.58068E-002	-3.69421E-002	7.07248E-001	-4.38658E-002	-1.99670E-003	1.61831E-004	-1.85719E-002	-1.60417E-002	7.84577E-004	1.12311E-003	-2.15017E-002	1.33361E-003
	83	83	4.99967E-002	-3.03905E-002	0.00000E+000	-1.51943E-003	-3.00910E-001	3.94883E-002	3.40636E+001	11	...........	6.57858E-002	-5.40986E-003	6.10983E-001	5.27683E-001	-2.57956E-002	-3.69624E-002	7.07206E-001	-4.38600E-002	-1.99926E-003	1.64408E-004	-1.85681E-002	-1.60365E-002	7.83940E-004	1.12330E-003	-2.14923E-002	1.33293E-003
	84	84	4.99864E-002	-2.98963E-002	0.00000E+000	-1.49441E-003	-2.95997E-001	3.94603E-002	3.34626E+001	11	...........	6.57504E-002	-5.45833E-003	6.10980E-001	5.27705E-001	-2.58176E-002	-3.69835E-002	7.07364E-001	-4.38599E-002	-1.96569E-003	1.63184E-004	-1.82660E-002	-1.57764E-002	7.71852E-004	1.10567E-003	-2.11475E-002	1.31125E-003
	85	85	5.00004E-002	-2.93409E-002	0.00000E+000	-1.46706E-003	-2.90484E-001	3.95193E-002	3.41018E+001	11	...........	6.58489E-002	-5.27264E-003	6.10961E-001	5.27767E-001	-2.58207E-002	-3.69824E-002	7.07345E-001	-4.39482E-002	-1.93207E-003	1.54704E-004	-1.79262E-002	-1.54852E-002	7.57602E-004	1.08510E-003	-2.07541E-002	1.28948E-003
	86	86	4.99952E-002	-2.91567E-002	0.00000E+000	-1.45770E-003	-2.88647E-001	3.95122E-002	3.39342E+001	11	...........	6.58283E-002	-5.27403E-003	6.10839E-001	5.27842E-001	-2.58206E-002	-3.69937E-002	7.07411E-001	-4.38193E-002	-1.91934E-003	1.53773E-004	-1.78101E-002	-1.53901E-002	7.52843E-004	1.07862E-003	-2.06258E-002	1.27763E-003
	87	87	4.99968E-002	-2.86615E-002	0.00000E+000	-1.43298E-003	-2.83720E-001	3.94173E-002	3.34076E+001	11	...........	6.56622E-002	-5.24889E-003	6.10758E-001	5.27933E-001	-2.58367E-002	-3.69744E-002	7.07558E-001	-4.36439E-002	-1.88198E-003	1.50441E-004	-1.75052E-002	-1.51314E-002	7.40518E-004	1.05974E-003	-2.02797E-002	1.25090E-003
	88	88	4.99957E-002	-2.86641E-002	0.00000E+000	-1.43308E-003	-2.83747E-001	3.96482E-002	3.43379E+001	11	...........	6.60589E-002	-5.33375E-003	6.10734E-001	5.27980E-001	-2.58496E-002	-3.69799E-002	7.07420E-001	-4.37471E-002	-1.89352E-003	1.52887E-004	-1.75061E-002	-1.51341E-002	7.40954E-004	1.05999E-003	-2.02775E-002	1.25397E-003
	89	89	4.99926E-002	-2.82024E-002	0.00000E+000	-1.40991E-003	-2.79161E-001	3.95583E-002	3.43010E+001	11	...........	6.59151E-002	-5.48681E-003	6.10589E-001	5.27909E-001	-2.58539E-002	-3.69950E-002	7.07422E-001	-4.37535E-002	-1.85897E-003	1.54741E-004	-1.72201E-002	-1.48883E-002	7.29142E-004	1.04335E-003	-1.99510E-002	1.23395E-003
	90	90	4.99811E-002	-2.75792E-002	0.00000E+000	-1.37844E-003	-2.72956E-001	3.95938E-002	3.30084E+001	11	...........	6.59794E-002	-5.49653E-003	6.10620E-001	5.27951E-001	-2.58256E-002	-3.69911E-002	7.07412E-001	-4.38294E-002	-1.81966E-003	1.51590E-004	-1.68404E-002	-1.45605E-002	7.12249E-004	1.02019E-003	-1.95099E-002	1.20878E-003
	91	91	5.00118E-002	-2.71946E-002	0.00000E+000	-1.36005E-003	-2.69119E-001	3.95667E-002	3.38622E+001	11	...........	6.59294E-002	-5.32319E-003	6.10655E-001	5.27970E-001	-2.58326E-002	-3.69971E-002	7.07359E-001	-4.38150E-002	-1.79293E-003	1.44762E-004	-1.66065E-002	-1.43579E-002	7.02508E-004	1.00612E-003	-1.92364E-002	1.19153E-003
	92	92	4.99966E-002	-2.73050E-002	0.00000E+000	-1.36516E-003	-2.70216E-001	3.95972E-002	3.42107E+001	11	...........	6.59788E-002	-5.46431E-003	6.10826E-001	5.27966E-001	-2.58404E-002	-3.69853E-002	7.07481E-001	-4.38682E-002	-1.80155E-003	1.49203E-004	-1.66786E-002	-1.44161E-002	7.05573E-004	1.00988E-003	-1.93178E-002	1.19782E-003
	93	93	4.99930E-002	-2.70530E-002	0.00000E+000	-1.35246E-003	-2.67722E-001	3.96859E-002	3.43456E+001	11	...........	6.61314E-002	-5.38194E-003	6.10811E-001	5.27925E-001	-2.58831E-002	-3.69836E-002	7.07509E-001	-4.38003E-002	-1.78905E-003	1.45598E-004	-1.65243E-002	-1.42820E-002	7.00215E-004	1.00052E-003	-1.91403E-002	1.18493E-003
	94	94	4.99943E-002	-2.65649E-002	0.00000E+000	-1.32809E-003	-2.62869E-001	3.96832E-002	3.37506E+001	11	...........	6.61124E-002	-5.36889E-003	6.10750E-001	5.27945E-001	-2.58906E-002	-3.69857E-002	7.07533E-001	-4.38258E-002	-1.75627E-003	1.42624E-004	-1.62245E-002	-1.40248E-002	6.87779E-004	9.82520E-004	-1.87955E-002	1.16423E-003
	95	95	4.99944E-002	-2.59550E-002	0.00000E+000	-1.29761E-003	-2.56805E-001	3.95911E-002	3.37729E+001	11	...........	6.59786E-002	-5.37694E-003	6.10529E-001	5.27958E-001	-2.59150E-002	-3.69786E-002	7.07491E-001	-4.37540E-002	-1.71248E-003	1.39559E-004	-1.58463E-002	-1.37032E-002	6.72624E-004	9.59780E-004	-1.83629E-002	1.13564E-003
	96	96	4.99984E-002	-2.60183E-002	0.00000E+000	-1.30088E-003	-2.57432E-001	3.97614E-002	3.43494E+001	11	...........	6.62483E-002	-5.40250E-003	6.10537E-001	5.28017E-001	-2.59133E-002	-3.69644E-002	7.07524E-001	-4.37911E-002	-1.72367E-003	1.40564E-004	-1.58852E-002	-1.37381E-002	6.74222E-004	9.61753E-004	-1.84086E-002	1.13937E-003
	97	97	4.99956E-002	-2.57075E-002	0.00000E+000	-1.28526E-003	-2.54350E-001	3.97179E-002	3.41205E+001	11	...........	6.61878E-002	-5.45236E-003	6.10651E-001	5.28038E-001	-2.58876E-002	-3.69524E-002	7.07475E-001	-4.38611E-002	-1.70152E-003	1.40167E-004	-1.56983E-002	-1.35745E-002	6.65506E-004	9.49953E-004	-1.81874E-002	1.12756E-003
	98	98	4.99856E-002	-2.52260E-002	0.00000E+000	-1.26094E-003	-2.49553E-001	3.97059E-002	3.37255E+001	11	...........	6.61542E-002	-5.43597E-003	6.10730E-001	5.27889E-001	-2.58749E-002	-3.69467E-002	7.07401E-001	-4.37664E-002	-1.66880E-003	1.37128E-004	-1.54063E-002	-1.33165E-002	6.52718E-004	9.32015E-004	-1.78449E-002	1.10405E-003
	99	99	5.00029E-002	-2.48565E-002	0.00000E+000	-1.24289E-003	-2.45870E-001	3.97598E-002	3.40604E+001	11	...........	6.62396E-002	-5.38778E-003	6.10750E-001	5.27984E-001	-2.58857E-002	-3.69497E-002	7.07412E-001	-4.37733E-002	-1.64648E-003	1.33921E-004	-1.51811E-002	-1.31238E-002	6.43426E-004	9.18439E-004	-1.75837E-002	1.08805E-003
	100	100	4.99982E-002	-2.46116E-002	0.00000E+000	-1.23054E-003	-2.43438E-001	3.96164E-002	3.40426E+001	11	...........	6.60168E-002	-5.36542E-003	6.10694E-001	5.27944E-001	-2.58690E-002	-3.69343E-002	7.07407E-001	-4.37850E-002	-1.62478E-003	1.32052E-004	-1.50302E-002	-1.29935E-002	6.36679E-004	9.09013E-004	-1.74104E-002	1.07762E-003
	101	101	4.99969E-002	-2.46232E-002	0.00000E+000	-1.23108E-003	-2.43545E-001	3.97936E-002	3.43706E+001	11	...........	6.62974E-002	-5.34542E-003	6.10680E-001	5.28014E-001	-2.58885E-002	-3.69333E-002	7.07372E-001	-4.37115E-002	-1.63245E-003	1.31621E-004	-1.50369E-002	-1.30014E-002	6.37457E-004	9.09417E-004	-1.74178E-002	1.07632E-003
	102	102	4.99950E-002	-2.40908E-002	0.00000E+000	-1.20442E-003	-2.38270E-001	3.96607E-002	3.38607E+001	11	...........	6.60892E-002	-5.36556E-003	6.10718E-001	5.27990E-001	-2.58933E-002	-3.69315E-002	7.07355E-001	-4.38239E-002	-1.59214E-003	1.29260E-004	-1.47127E-002	-1.27197E-002	6.23791E-004	8.89709E-004	-1.70407E-002	1.05575E-003
	103	103	4.99924E-002	-2.39075E-002	0.00000E+000	-1.19520E-003	-2.36445E-001	3.98826E-002	3.45893E+001	11	...........	6.64546E-002	-5.40431E-003	6.10894E-001	5.27880E-001	-2.58983E-002	-3.69371E-002	7.07404E-001	-4.37386E-002	-1.58876E-003	1.29204E-004	-1.46050E-002	-1.26203E-002	6.19165E-004	8.83074E-004	-1.69123E-002	1.04568E-003
	104	104	4.99879E-002	-2.34293E-002	0.00000E+000	-1.17118E-003	-2.31685E-001	3.97305E-002	3.35084E+001	11	...........	6.62143E-002	-5.36292E-003	6.10945E-001	5.28032E-001	-2.58993E-002	-3.69447E-002	7.07369E-001	-4.36722E-002	-1.55135E-003	1.25649E-004	-1.43140E-002	-1.23714E-002	6.06802E-004	8.65588E-004	-1.65731E-002	1.02321E-003
	105	105	5.00062E-002	-2.30670E-002	0.00000E+000	-1.15349E-003	-2.28094E-001	3.97718E-002	3.42842E+001	11	...........	6.62699E-002	-5.31333E-003	6.10923E-001	5.28165E-001	-2.59064E-002	-3.69364E-002	7.07322E-001	-4.38953E-002	-1.52865E-003	1.22563E-004	-1.40922E-002	-1.21832E-002	5.97583E-004	8.52012E-004	-1.63158E-002	1.01253E-003
	106	106	4.99980E-002	-2.31944E-002	0.00000E+000	-1.15967E-003	-2.29365E-001	3.98650E-002	3.48621E+001	11	...........	6.64246E-002	-5.32694E-003	6.10947E-001	5.28211E-001	-2.59162E-002	-3.69317E-002	7.07264E-001	-4.39144E-002	-1.54068E-003	1.23555E-004	-1.41706E-002	-1.22515E-002	6.01112E-004	8.56607E-004	-1.64046E-002	1.01857E-003
	107	107	4.99949E-002	-2.28919E-002	0.00000E+000	-1.14448E-003	-2.26347E-001	3.98612E-002	3.48183E+001	11	...........	6.64171E-002	-5.31958E-003	6.10943E-001	5.28162E-001	-2.59078E-002	-3.69089E-002	7.07279E-001	-4.38878E-002	-1.52041E-003	1.21775E-004	-1.39856E-002	-1.20906E-002	5.93078E-004	8.44914E-004	-1.61909E-002	1.00467E-003
	108	108	4.99881E-002	-2.24308E-002	0.00000E+000	-1.12127E-003	-2.21758E-001	3.98581E-002	3.31640E+001	11	...........	6.64099E-002	-5.33042E-003	6.10755E-001	5.28217E-001	-2.59036E-002	-3.68708E-002	7.07299E-001	-4.38822E-002	-1.48963E-003	1.19566E-004	-1.36997E-002	-1.18483E-002	5.81039E-004	8.27043E-004	-1.58653E-002	9.84314E-004
	109	109	5.00043E-002	-2.19035E-002	0.00000E+000	-1.09527E-003	-2.16507E-001	3.98364E-002	3.42989E+001	11	...........	6.63686E-002	-5.32028E-003	6.10646E-001	5.28073E-001	-2.59176E-002	-3.68715E-002	7.07146E-001	-4.37846E-002	-1.45370E-003	1.16533E-004	-1.33753E-002	-1.15666E-002	5.67686E-004	8.07614E-004	-1.54889E-002	9.59034E-004
	110	110	4.99981E-002	-2.21168E-002	0.00000E+000	-1.10580E-003	-2.18620E-001	3.98594E-002	3.49449E+001	11	...........	6.64115E-002	-5.29903E-003	6.10630E-001	5.28090E-001	-2.59142E-002	-3.68811E-002	7.07182E-001	-4.37986E-002	-1.46881E-003	1.17197E-004	-1.35052E-002	-1.16796E-002	5.73138E-004	8.15691E-004	-1.56406E-002	9.68684E-004
	111	111	4.99940E-002	-2.17795E-002	0.00000E+000	-1.08884E-003	-2.15280E-001	3.98912E-002	3.45876E+001	11	...........	6.64569E-002	-5.34528E-003	6.10526E-001	5.28229E-001	-2.58976E-002	-3.68856E-002	7.07223E-001	-4.38160E-002	-1.44740E-003	1.16417E-004	-1.32969E-002	-1.15046E-002	5.64037E-004	8.03348E-004	-1.54030E-002	9.54289E-004
	112	112	4.99948E-002	-2.14830E-002	0.00000E+000	-1.07404E-003	-2.12340E-001	3.99718E-002	3.46239E+001	11	...........	6.65882E-002	-5.25375E-003	6.10453E-001	5.28230E-001	-2.58964E-002	-3.68928E-002	7.07366E-001	-4.38368E-002	-1.43052E-003	1.12866E-004	-1.31144E-002	-1.13480E-002	5.56332E-004	7.92568E-004	-1.51964E-002	9.41747E-004
	113	113	4.99967E-002	-2.10121E-002	0.00000E+000	-1.05054E-003	-2.07650E-001	3.98769E-002	3.41313E+001	11	...........	6.64415E-002	-5.30000E-003	6.10464E-001	5.28146E-001	-2.58668E-002	-3.68890E-002	7.07346E-001	-4.38164E-002	-1.39608E-003	1.11364E-004	-1.28271E-002	-1.10975E-002	5.43517E-004	7.75117E-004	-1.48629E-002	9.20676E-004
	114	114	4.99921E-002	-2.05111E-002	0.00000E+000	-1.02539E-003	-2.02677E-001	3.97639E-002	3.34000E+001	11	...........	6.62368E-002	-5.39722E-003	6.10369E-001	5.28162E-001	-2.58774E-002	-3.68885E-002	7.07267E-001	-4.38422E-002	-1.35859E-003	1.10703E-004	-1.25193E-002	-1.08332E-002	5.30773E-004	7.56623E-004	-1.45068E-002	8.99252E-004
	115	115	5.00006E-002	-2.06180E-002	0.00000E+000	-1.03091E-003	-2.03737E-001	4.00677E-002	3.44891E+001	11	...........	6.67735E-002	-5.36889E-003	6.10470E-001	5.28243E-001	-2.58478E-002	-3.69039E-002	7.07394E-001	-4.38000E-002	-1.37674E-003	1.10696E-004	-1.25867E-002	-1.08913E-002	5.32930E-004	7.60885E-004	-1.45850E-002	9.03069E-004
	116	116	4.99960E-002	-2.04340E-002	0.00000E+000	-1.02162E-003	-2.01916E-001	3.99930E-002	3.49015E+001	11	...........	6.66375E-002	-5.43361E-003	6.10520E-001	5.28269E-001	-2.58508E-002	-3.69278E-002	7.07391E-001	-4.37108E-002	-1.36167E-003	1.11030E-004	-1.24754E-002	-1.07947E-002	5.28236E-004	7.54582E-004	-1.44548E-002	8.93188E-004
	117	117	4.99960E-002	-2.01174E-002	0.00000E+000	-1.00579E-003	-1.98761E-001	3.99892E-002	3.49222E+001	11	...........	6.66360E-002	-5.36653E-003	6.10361E-001	5.28292E-001	-2.58950E-002	-3.69189E-002	7.07410E-001	-4.37819E-002	-1.34054E-003	1.07961E-004	-1.22789E-002	-1.06278E-002	5.20940E-004	7.42712E-004	-1.42312E-002	8.80778E-004
	118	118	4.99945E-002	-1.98627E-002	0.00000E+000	-9.93024E-004	-1.96225E-001	4.00128E-002	3.45806E+001	11	...........	6.66771E-002	-5.32722E-003	6.10320E-001	5.28434E-001	-2.58974E-002	-3.69274E-002	7.07211E-001	-4.36907E-002	-1.32439E-003	1.05813E-004	-1.21226E-002	-1.04961E-002	5.14391E-004	7.33476E-004	-1.40471E-002	8.67814E-004
	119	119	4.99963E-002	-1.95030E-002	0.00000E+000	-9.75078E-004	-1.92646E-001	3.98922E-002	3.39905E+001	11	...........	6.64739E-002	-5.30861E-003	6.10299E-001	5.28612E-001	-2.58922E-002	-3.69037E-002	7.07287E-001	-4.37329E-002	-1.29644E-003	1.03534E-004	-1.19027E-002	-1.03095E-002	5.04976E-004	7.19734E-004	-1.37942E-002	8.52923E-004
	120	120	5.00001E-002	-1.94727E-002	0.00000E+000	-9.73640E-004	-1.92329E-001	4.00789E-002	3.49629E+001	11	...........	6.67956E-002	-5.25819E-003	6.10221E-001	5.28747E-001	-2.58699E-002	-3.68822E-002	7.07253E-001	-4.37536E-002	-1.30069E-003	1.02391E-004	-1.18827E-002	-1.02962E-002	5.03757E-004	7.18198E-004	-1.37722E-002	8.52003E-004
	121	121	4.99950E-002	-1.92975E-002	0.00000E+000	-9.64781E-004	-1.90604E-001	4.00033E-002	3.47023E+001	11	...........	6.66458E-002	-5.28764E-003	6.10110E-001	5.28727E-001	-2.58717E-002	-3.68815E-002	7.07223E-001	-4.37032E-002	-1.28610E-003	1.02038E-004	-1.17736E-002	-1.02031E-002	4.99260E-004	7.11723E-004	-1.36477E-002	8.43364E-004
	122	122	4.99960E-002	-1.90436E-002	0.00000E+000	-9.52104E-004	-1.88091E-001	4.00611E-002	3.47010E+001	11	...........	6.67518E-002	-5.32875E-003	6.10146E-001	5.28776E-001	-2.58611E-002	-3.68979E-002	7.07257E-001	-4.38207E-002	-1.27119E-003	1.01478E-004	-1.16194E-002	-1.00698E-002	4.92488E-004	7.02669E-004	-1.34687E-002	8.34503E-004
	123	123	4.99950E-002	-1.85656E-002	0.00000E+000	-9.28190E-004	-1.83333E-001	4.00411E-002	3.45169E+001	11	...........	6.67046E-002	-5.36778E-003	6.10125E-001	5.28870E-001	-2.58425E-002	-3.69040E-002	7.07276E-001	-4.38935E-002	-1.23841E-003	9.96563E-005	-1.13274E-002	-9.81881E-003	4.79783E-004	6.85147E-004	-1.31310E-002	8.14911E-004
	124	124	4.99925E-002	-1.82630E-002	0.00000E+000	-9.13012E-004	-1.80323E-001	3.98596E-002	3.35088E+001	11	...........	6.64157E-002	-5.38542E-003	6.10181E-001	5.28999E-001	-2.58326E-002	-3.68996E-002	7.07381E-001	-4.38424E-002	-1.21295E-003	9.83538E-005	-1.11437E-002	-9.66111E-003	4.71781E-004	6.73897E-004	-1.29189E-002	8.00692E-004
	125	125	5.00040E-002	-1.82424E-002	0.00000E+000	-9.12194E-004	-1.80118E-001	4.01539E-002	3.50265E+001	11	...........	6.69037E-002	-5.33847E-003	6.10166E-001	5.29006E-001	-2.58350E-002	-3.69103E-002	7.07362E-001	-4.37179E-002	-1.22049E-003	9.73866E-005	-1.11309E-002	-9.65034E-003	4.71293E-004	6.73333E-004	-1.29040E-002	7.97520E-004
	126	126	4.99961E-002	-1.81968E-002	0.00000E+000	-9.09767E-004	-1.79663E-001	4.00674E-002	3.50226E+001	11	...........	6.67837E-002	-5.33403E-003	6.10161E-001	5.28943E-001	-2.58590E-002	-3.69164E-002	7.07365E-001	-4.37156E-002	-1.21525E-003	9.70620E-005	-1.11029E-002	-9.62505E-003	4.70551E-004	6.71759E-004	-1.28717E-002	7.95482E-004
	127	127	4.99945E-002	-1.78048E-002	0.00000E+000	-8.90143E-004	-1.75769E-001	4.00949E-002	3.44209E+001	11	...........	6.68043E-002	-5.42681E-003	6.09934E-001	5.28831E-001	-2.58836E-002	-3.69017E-002	7.07357E-001	-4.38594E-002	-1.18944E-003	9.66232E-005	-1.08598E-002	-9.41574E-003	4.60853E-004	6.57027E-004	-1.25944E-002	7.80909E-004
	128	128	4.99968E-002	-1.73879E-002	0.00000E+000	-8.69339E-004	-1.71613E-001	3.99792E-002	3.44469E+001	11	...........	6.66169E-002	-5.51639E-003	6.09790E-001	5.28841E-001	-2.58696E-002	-3.68801E-002	7.07368E-001	-4.38636E-002	-1.15833E-003	9.59183E-005	-1.06030E-002	-9.19542E-003	4.49817E-004	6.41267E-004	-1.22996E-002	7.62695E-004
	129	129	4.99992E-002	-1.75152E-002	0.00000E+000	-8.75746E-004	-1.72877E-001	4.02075E-002	3.44999E+001	11	...........	6.69797E-002	-5.44847E-003	6.09880E-001	5.28792E-001	-2.59092E-002	-3.68664E-002	7.07418E-001	-4.38671E-002	-1.17316E-003	9.54310E-005	-1.06822E-002	-9.26189E-003	4.53804E-004	6.45722E-004	-1.23906E-002	7.68340E-004
	130	130	4.99952E-002	-1.71465E-002	0.00000E+000	-8.57242E-004	-1.69206E-001	4.00665E-002	3.49918E+001	11	...........	6.67701E-002	-5.51375E-003	6.10034E-001	5.28776E-001	-2.59135E-002	-3.68740E-002	7.07327E-001	-4.38949E-002	-1.14487E-003	9.45414E-005	-1.04599E-002	-9.06664E-003	4.44325E-004	6.32260E-004	-1.21282E-002	7.52643E-004
	131	131	4.99962E-002	-1.69920E-002	0.00000E+000	-8.49538E-004	-1.67660E-001	4.01690E-002	3.51808E+001	11	...........	6.69458E-002	-5.43125E-003	6.10260E-001	5.28767E-001	-2.59167E-002	-3.68524E-002	7.07397E-001	-4.39221E-002	-1.13755E-003	9.22880E-005	-1.03696E-002	-8.98484E-003	4.40377E-004	6.26197E-004	-1.20201E-002	7.46326E-004
	132	132	4.99909E-002	-1.67840E-002	0.00000E+000	-8.39049E-004	-1.65596E-001	4.01146E-002	3.43197E+001	11	...........	6.68329E-002	-5.21389E-003	6.10314E-001	5.28702E-001	-2.59182E-002	-3.68618E-002	7.07474E-001	-4.39760E-002	-1.12173E-003	8.75101E-005	-1.02435E-002	-8.87376E-003	4.35012E-004	6.18690E-004	-1.18743E-002	7.38095E-004
	133	133	5.00041E-002	-1.65459E-002	0.00000E+000	-8.27361E-004	-1.63251E-001	4.01164E-002	3.51078E+001	11	...........	6.68182E-002	-5.24153E-003	6.10442E-001	5.28706E-001	-2.59318E-002	-3.68722E-002	7.07449E-001	-4.38542E-002	-1.10556E-003	8.67256E-005	-1.01003E-002	-8.74789E-003	4.29064E-004	6.10083E-004	-1.17054E-002	7.25605E-004
	134	134	4.99946E-002	-1.63423E-002	0.00000E+000	-8.17029E-004	-1.61222E-001	4.01625E-002	3.51215E+001	11	...........	6.69446E-002	-5.38861E-003	6.10589E-001	5.28642E-001	-2.59167E-002	-3.68537E-002	7.07376E-001	-4.37346E-002	-1.09403E-003	8.80625E-005	-9.97844E-003	-8.63925E-003	4.23539E-004	6.02276E-004	-1.15602E-002	7.14725E-004
	135	135	4.99960E-002	-1.60464E-002	0.00000E+000	-8.02254E-004	-1.58274E-001	4.00362E-002	3.40054E+001	11	...........	6.67140E-002	-5.41528E-003	6.10462E-001	5.28526E-001	-2.59287E-002	-3.68794E-002	7.07384E-001	-4.37440E-002	-1.07052E-003	8.68956E-005	-9.79570E-003	-8.48093E-003	4.16062E-004	5.91781E-004	-1.13509E-002	7.01933E-004
	136	136	5.00007E-002	-1.59748E-002	0.00000E+000	-7.98749E-004	-1.57561E-001	4.02330E-002	3.53464E+001	11	...........	6.70518E-002	-5.42819E-003	6.10375E-001	5.28678E-001	-2.59151E-002	-3.68996E-002	7.07447E-001	-4.38110E-002	-1.07114E-003	8.67141E-005	-9.75060E-003	-8.44551E-003	4.13988E-004	5.89462E-004	-1.13013E-002	6.99870E-004
	137	137	4.99971E-002	-1.58542E-002	0.00000E+000	-7.92663E-004	-1.56364E-001	4.01629E-002	3.48885E+001	11	...........	6.69271E-002	-5.42444E-003	6.10396E-001	5.28664E-001	-2.59299E-002	-3.69076E-002	7.07482E-001	-4.38114E-002	-1.06107E-003	8.60001E-005	-9.67732E-003	-8.38153E-003	4.11097E-004	5.85140E-004	-1.12165E-002	6.94593E-004
	138	138	4.99967E-002	-1.55762E-002	0.00000E+000	-7.78759E-004	-1.53601E-001	4.01298E-002	3.48544E+001	11	...........	6.68669E-002	-5.47500E-003	6.10233E-001	5.28750E-001	-2.59292E-002	-3.69254E-002	7.07342E-001	-4.38814E-002	-1.04153E-003	8.52797E-005	-9.50511E-003	-8.23591E-003	4.03878E-004	5.75158E-004	-1.10177E-002	6.83505E-004
	139	139	4.99971E-002	-1.54815E-002	0.00000E+000	-7.74032E-004	-1.52666E-001	4.02442E-002	3.54757E+001	11	...........	6.70622E-002	-5.53500E-003	6.10118E-001	5.28697E-001	-2.59231E-002	-3.69410E-002	7.07312E-001	-4.38997E-002	-1.03823E-003	8.56903E-005	-9.44557E-003	-8.18505E-003	4.01329E-004	5.71903E-004	-1.09503E-002	6.79635E-004
	140	140	4.99883E-002	-1.51749E-002	0.00000E+000	-7.58569E-004	-1.49607E-001	4.01732E-002	3.47021E+001	11	...........	6.69369E-002	-5.36069E-003	6.10057E-001	5.28402E-001	-2.59321E-002	-3.69475E-002	7.07265E-001	-4.39811E-002	-1.01576E-003	8.13481E-005	-9.25757E-003	-8.01845E-003	3.93517E-004	5.60675E-004	-1.07327E-002	6.67410E-004
	141	141	5.00023E-002	-1.48357E-002	0.00000E+000	-7.41819E-004	-1.46224E-001	4.01643E-002	3.39554E+001	11	...........	6.69155E-002	-5.32611E-003	6.10028E-001	5.28375E-001	-2.59121E-002	-3.69789E-002	7.07220E-001	-4.38714E-002	-9.92739E-004	7.90166E-005	-9.05019E-003	-7.83881E-003	3.84424E-004	5.48608E-004	-1.04921E-002	6.50863E-004
	142	142	4.99995E-002	-1.47348E-002	0.00000E+000	-7.36735E-004	-1.45224E-001	4.01653E-002	3.52259E+001	11	...........	6.69432E-002	-5.26264E-003	6.10171E-001	5.28405E-001	-2.58985E-002	-3.69687E-002	7.07250E-001	-4.37819E-002	-9.86398E-004	7.75442E-005	-8.99078E-003	-7.78597E-003	3.81610E-004	5.44729E-004	-1.04212E-002	6.45120E-004
	143	143	4.99977E-002	-1.47609E-002	0.00000E+000	-7.38014E-004	-1.45482E-001	4.02967E-002	3.53846E+001	11	...........	6.71351E-002	-5.33431E-003	6.10292E-001	5.28391E-001	-2.58922E-002	-3.69501E-002	7.07348E-001	-4.37361E-002	-9.90978E-004	7.87394E-005	-9.00849E-003	-7.79955E-003	3.82194E-004	5.45419E-004	-1.04411E-002	6.45586E-004
	144	144	4.99954E-002	-1.45099E-002	0.00000E+000	-7.25431E-004	-1.42976E-001	4.02333E-002	3.46231E+001	11	...........	6.70475E-002	-5.26375E-003	6.10303E-001	5.28519E-001	-2.58993E-002	-3.69350E-002	7.07381E-001	-4.37704E-002	-9.72855E-004	7.63767E-005	-8.85546E-003	-7.66879E-003	3.75797E-004	5.35925E-004	-1.02641E-002	6.35106E-004
	145	145	4.99995E-002	-1.42166E-002	0.00000E+000	-7.10822E-004	-1.40060E-001	4.02177E-002	3.53152E+001	11	...........	6.70078E-002	-5.25861E-003	6.10253E-001	5.28578E-001	-2.59197E-002	-3.69408E-002	7.07447E-001	-4.37871E-002	-9.52621E-004	7.47594E-005	-8.67571E-003	-7.51457E-003	3.68489E-004	5.25172E-004	-1.00575E-002	6.22502E-004
	146	146	4.99978E-002	-1.42515E-002	0.00000E+000	-7.12544E-004	-1.40405E-001	4.02287E-002	3.56736E+001	11	...........	6.70361E-002	-5.18875E-003	6.10267E-001	5.28449E-001	-2.59410E-002	-3.69490E-002	7.07363E-001	-4.38282E-002	-9.55367E-004	7.39476E-005	-8.69724E-003	-7.53120E-003	3.69698E-004	5.26580E-004	-1.00810E-002	6.24619E-004
	147	147	4.99960E-002	-1.40943E-002	0.00000E+000	-7.04656E-004	-1.38864E-001	4.02697E-002	3.54520E+001	11	...........	6.71017E-002	-5.20278E-003	6.10255E-001	5.28211E-001	-2.59210E-002	-3.69461E-002	7.07293E-001	-4.38656E-002	-9.45748E-004	7.33293E-005	-8.60108E-003	-7.44474E-003	3.65337E-004	5.20728E-004	-9.96876E-003	6.18252E-004
	148	148	4.99921E-002	-1.38105E-002	0.00000E+000	-6.90416E-004	-1.36039E-001	4.02685E-002	3.38810E+001	11	...........	6.70921E-002	-5.18444E-003	6.10194E-001	5.28137E-001	-2.59315E-002	-3.69515E-002	7.07413E-001	-4.39254E-002	-9.26575E-004	7.15998E-005	-8.42709E-003	-7.29384E-003	3.58127E-004	5.10319E-004	-9.76973E-003	6.06632E-004
	149	149	5.00019E-002	-1.33767E-002	0.00000E+000	-6.68862E-004	-1.31727E-001	4.01498E-002	3.49525E+001	11	...........	6.69036E-002	-5.21917E-003	6.10081E-001	5.28109E-001	-2.59106E-002	-3.69569E-002	7.07380E-001	-4.39279E-002	-8.94952E-004	6.98154E-005	-8.16090E-003	-7.06437E-003	3.46599E-004	4.94363E-004	-9.46243E-003	5.87612E-004
	150	150	4.99986E-002	-1.35591E-002	0.00000E+000	-6.77935E-004	-1.33537E-001	4.03330E-002	3.58689E+001	11	...........	6.72101E-002	-5.26514E-003	6.10172E-001	5.28014E-001	-2.58975E-002	-3.69565E-002	7.07420E-001	-4.39382E-002	-9.11308E-004	7.13905E-005	-8.27338E-003	-7.15939E-003	3.51147E-004	5.01097E-004	-9.59197E-003	5.95762E-004
	151	151	4.99960E-002	-1.33987E-002	0.00000E+000	-6.69881E-004	-1.31943E-001	3.99757E-002	3.53068E+001	11	...........	6.71054E-002	-5.44028E-003	6.10225E-001	5.28029E-001	-2.59231E-002	-3.69347E-002	7.07426E-001	-4.40043E-002	-8.99125E-004	7.28926E-005	-8.17622E-003	-7.07490E-003	3.47335E-004	4.94877E-004	-9.47859E-003	5.89600E-004
	152	152	4.99971E-002	-1.31882E-002	0.00000E+000	-6.59374E-004	-1.29842E-001	4.03145E-002	3.55428E+001	11	...........	6.71621E-002	-5.36528E-003	6.10250E-001	5.28043E-001	-2.58882E-002	-3.69410E-002	7.07372E-001	-4.38890E-002	-8.85749E-004	7.07585E-005	-8.04811E-003	-6.96395E-003	3.41419E-004	4.87186E-004	-9.32898E-003	5.78818E-004
	153	153	4.99949E-002	-1.29242E-002	0.00000E+000	-6.46144E-004	-1.27232E-001	4.03107E-002	3.45728E+001	11	...........	6.71671E-002	-5.24569E-003	6.10360E-001	5.28071E-001	-2.58824E-002	-3.69525E-002	7.07439E-001	-4.38235E-002	-8.68082E-004	6.77965E-005	-7.88842E-003	-6.82490E-003	3.34509E-004	4.77582E-004	-9.14309E-003	5.66384E-004
	154	154	5.00005E-002	-1.25982E-002	0.00000E+000	-6.29915E-004	-1.23980E-001	4.00568E-002	3.44327E+001	11	...........	6.67504E-002	-5.22069E-003	6.10298E-001	5.28007E-001	-2.59035E-002	-3.69644E-002	7.07354E-001	-4.38519E-002	-8.40933E-004	6.57712E-005	-7.68863E-003	-6.65192E-003	3.26336E-004	4.65684E-004	-8.91137E-003	5.52454E-004
	155	155	4.99973E-002	-1.27143E-002	0.00000E+000	-6.35681E-004	-1.25138E-001	4.04315E-002	3.57871E+001	11	...........	6.73731E-002	-5.26917E-003	6.10138E-001	5.28036E-001	-2.59122E-002	-3.69881E-002	7.07453E-001	-4.39081E-002	-8.56601E-004	6.69938E-005	-7.75748E-003	-6.71361E-003	3.29456E-004	4.70277E-004	-8.99477E-003	5.58260E-004
	156	156	4.99976E-002	-1.25949E-002	0.00000E+000	-6.29713E-004	-1.23948E-001	4.03555E-002	3.56043E+001	11	...........	6.72362E-002	-5.35514E-003	6.10083E-001	5.28126E-001	-2.59171E-002	-3.70018E-002	7.07331E-001	-4.38272E-002	-8.46831E-004	6.74472E-005	-7.68390E-003	-6.65167E-003	3.26422E-004	4.66032E-004	-8.90873E-003	5.51998E-004
	157	157	4.99974E-002	-1.23314E-002	0.00000E+000	-6.16540E-004	-1.21325E-001	4.02393E-002	3.51204E+001	11	...........	6.70704E-002	-5.29125E-003	6.09932E-001	5.28091E-001	-2.58799E-002	-3.70381E-002	7.07370E-001	-4.39410E-002	-8.27074E-004	6.52487E-005	-7.52134E-003	-6.51212E-003	3.19136E-004	4.56732E-004	-8.72289E-003	5.41855E-004
	158	158	4.99987E-002	-1.23133E-002	0.00000E+000	-6.15650E-004	-1.21141E-001	4.03888E-002	3.57680E+001	11	...........	6.72944E-002	-5.27806E-003	6.10038E-001	5.28086E-001	-2.58865E-002	-3.70119E-002	7.07386E-001	-4.38283E-002	-8.28617E-004	6.49903E-005	-7.51159E-003	-6.50249E-003	3.18749E-004	4.55739E-004	-8.71026E-003	5.39672E-004
	159	159	4.99974E-002	-1.21456E-002	0.00000E+000	-6.07246E-004	-1.19472E-001	4.03326E-002	3.52436E+001	11	...........	6.72203E-002	-5.27917E-003	6.09970E-001	5.28017E-001	-2.58833E-002	-3.70074E-002	7.07487E-001	-4.38258E-002	-8.16428E-004	6.41184E-005	-7.40842E-003	-6.41306E-003	3.14367E-004	4.49475E-004	-8.59282E-003	5.32289E-004
	160	160	4.99962E-002	-1.18088E-002	0.00000E+000	-5.90393E-004	-1.16116E-001	4.02077E-002	3.47968E+001	11	...........	6.69932E-002	-5.34444E-003	6.10048E-001	5.28146E-001	-2.58567E-002	-3.69886E-002	7.07283E-001	-4.38361E-002	-7.91106E-004	6.31112E-005	-7.20391E-003	-6.23674E-003	3.05335E-004	4.36789E-004	-8.35213E-003	5.17650E-004
	161	161	4.99986E-002	-1.18357E-002	0.00000E+000	-5.91769E-004	-1.16377E-001	4.03960E-002	3.54045E+001	11	...........	6.73231E-002	-5.51583E-003	6.10007E-001	5.28047E-001	-2.58250E-002	-3.69789E-002	7.07376E-001	-4.38229E-002	-7.96816E-004	6.52838E-005	-7.21987E-003	-6.24981E-003	3.05657E-004	4.37671E-004	-8.37230E-003	5.18675E-004
	162	162	4.99983E-002	-1.17442E-002	0.00000E+000	-5.87192E-004	-1.15460E-001	4.03627E-002	3.53485E+001	11	...........	6.72449E-002	-5.42958E-003	6.10129E-001	5.28085E-001	-2.58501E-002	-3.69903E-002	7.07301E-001	-4.37507E-002	-7.89739E-004	6.37663E-005	-7.16550E-003	-6.20195E-003	3.03590E-004	4.34422E-004	-8.30671E-003	5.13818E-004
	163	163	4.99977E-002	-1.15390E-002	0.00000E+000	-5.76922E-004	-1.13448E-001	4.02556E-002	3.55213E+001	11	...........	6.70905E-002	-5.37472E-003	6.10239E-001	5.28063E-001	-2.58232E-002	-3.69958E-002	7.07295E-001	-4.36894E-002	-7.74156E-004	6.20188E-005	-7.04153E-003	-6.09330E-003	2.97973E-004	4.26894E-004	-8.16146E-003	5.04131E-004
	164	164	4.99955E-002	-1.14632E-002	0.00000E+000	-5.73106E-004	-1.12698E-001	4.04269E-002	3.59874E+001	11	...........	6.73646E-002	-5.45458E-003	6.10381E-001	5.28117E-001	-2.58275E-002	-3.69986E-002	7.07230E-001	-4.36654E-002	-7.72211E-004	6.25267E-005	-6.99690E-003	-6.05388E-003	2.96065E-004	4.24121E-004	-8.10709E-003	5.00544E-004
	165	165	4.99951E-002	-1.11199E-002	0.00000E+000	-5.55941E-004	-1.09276E-001	4.03059E-002	3.41236E+001	11	...........	6.71669E-002	-5.36014E-003	6.10296E-001	5.28110E-001	-2.58242E-002	-3.69633E-002	7.07336E-001	-4.36822E-002	-7.46890E-004	5.96042E-005	-6.78643E-003	-5.87253E-003	2.87162E-004	4.11029E-004	-7.86551E-003	4.85742E-004
	166	166	5.00024E-002	-1.10644E-002	0.00000E+000	-5.53247E-004	-1.08724E-001	4.03828E-002	3.55476E+001	11	...........	6.72844E-002	-5.34028E-003	6.10195E-001	5.28069E-001	-2.58147E-002	-3.69425E-002	7.07316E-001	-4.37221E-002	-7.44463E-004	5.90871E-005	-6.75146E-003	-5.84278E-003	2.85625E-004	4.08747E-004	-7.82604E-003	4.83759E-004
	167	167	4.99986E-002	-1.10824E-002	0.00000E+000	-5.54103E-004	-1.08906E-001	4.03802E-002	3.58290E+001	11	...........	6.72937E-002	-5.57208E-003	6.10214E-001	5.27994E-001	-2.58114E-002	-3.69168E-002	7.07242E-001	-4.38068E-002	-7.45773E-004	6.17518E-005	-6.76260E-003	-5.85142E-003	2.86051E-004	4.09125E-004	-7.83791E-003	4.85483E-004
	168	168	4.99965E-002	-1.09505E-002	0.00000E+000	-5.47487E-004	-1.07595E-001	4.04365E-002	3.55156E+001	11	...........	6.73874E-002	-5.56514E-003	6.10331E-001	5.27905E-001	-2.57825E-002	-3.69346E-002	7.07279E-001	-4.38272E-002	-7.37926E-004	6.09411E-005	-6.68343E-003	-5.78083E-003	2.82332E-004	4.04452E-004	-7.74506E-003	4.79930E-004
	169	169	4.99980E-002	-1.07638E-002	0.00000E+000	-5.38167E-004	-1.05733E-001	4.03293E-002	3.52260E+001	11	...........	6.72044E-002	-5.47528E-003	6.10328E-001	5.27954E-001	-2.57989E-002	-3.69760E-002	7.07425E-001	-4.38115E-002	-7.23374E-004	5.89347E-005	-6.56943E-003	-5.68278E-003	2.77694E-004	3.98001E-004	-7.61457E-003	4.71578E-004
	170	170	4.99981E-002	-1.07114E-002	0.00000E+000	-5.35552E-004	-1.05212E-001	4.05437E-002	3.58704E+001	11	...........	6.75569E-002	-5.40500E-003	6.10336E-001	5.28117E-001	-2.57822E-002	-3.69979E-002	7.07474E-001	-4.37572E-002	-7.23632E-004	5.78953E-005	-6.53757E-003	-5.65690E-003	2.76165E-004	3.96301E-004	-7.57807E-003	4.68703E-004
	171	171	4.99940E-002	-1.03980E-002	0.00000E+000	-5.19838E-004	-1.02115E-001	4.03657E-002	3.41803E+001	11	...........	6.72624E-002	-5.49208E-003	6.10213E-001	5.28181E-001	-2.57944E-002	-3.69728E-002	7.07461E-001	-4.36739E-002	-6.99395E-004	5.71068E-005	-6.34501E-003	-5.49203E-003	2.68211E-004	3.84443E-004	-7.35619E-003	4.54122E-004
	172	172	4.99985E-002	-1.01568E-002	0.00000E+000	-5.07827E-004	-9.97363E-002	4.02669E-002	3.45232E+001	11	...........	6.70940E-002	-5.40903E-003	6.10090E-001	5.28281E-001	-2.57900E-002	-3.69637E-002	7.07465E-001	-4.37876E-002	-6.81463E-004	5.49386E-005	-6.19659E-003	-5.36567E-003	2.61945E-004	3.75435E-004	-7.18561E-003	4.44744E-004
	173	173	5.00013E-002	-1.02866E-002	0.00000E+000	-5.14343E-004	-1.01031E-001	4.05832E-002	3.57494E+001	11	...........	6.76224E-002	-5.42653E-003	6.10233E-001	5.28142E-001	-2.57897E-002	-3.69607E-002	7.07457E-001	-4.37439E-002	-6.95603E-004	5.58205E-005	-6.27722E-003	-5.43278E-003	2.65288E-004	3.80199E-004	-7.27732E-003	4.49975E-004
	174	174	4.99970E-002	-1.01331E-002	0.00000E+000	-5.06623E-004	-9.94967E-002	4.04207E-002	3.58119E+001	11	...........	6.73556E-002	-5.47736E-003	6.10345E-001	5.28192E-001	-2.57829E-002	-3.69487E-002	7.07462E-001	-4.37256E-002	-6.82518E-004	5.55024E-005	-6.18467E-003	-5.35220E-003	2.61260E-004	3.74404E-004	-7.16876E-003	4.43074E-004
	175	175	4.99980E-002	-1.00056E-002	0.00000E+000	-5.00262E-004	-9.82273E-002	4.04602E-002	3.56365E+001	11	...........	6.74051E-002	-5.30958E-003	6.10212E-001	5.28156E-001	-2.58040E-002	-3.69440E-002	7.07440E-001	-4.37581E-002	-6.74431E-004	5.31258E-005	-6.10556E-003	-5.28453E-003	2.58186E-004	3.69649E-004	-7.07839E-003	4.37827E-004
	176	176	4.99967E-002	-9.89105E-003	0.00000E+000	-4.94520E-004	-9.70863E-002	4.04188E-002	3.50166E+001	11	...........	6.73592E-002	-5.36028E-003	6.10207E-001	5.27929E-001	-2.58067E-002	-3.69261E-002	7.07400E-001	-4.35694E-002	-6.66253E-004	5.30188E-005	-6.03559E-003	-5.22177E-003	2.55255E-004	3.65238E-004	-6.99693E-003	4.30948E-004
	177	177	4.99993E-002	-9.87479E-003	0.00000E+000	-4.93732E-004	-9.69233E-002	4.05106E-002	3.60506E+001	11	...........	6.75068E-002	-5.35139E-003	6.10121E-001	5.27859E-001	-2.58310E-002	-3.69342E-002	7.07438E-001	-4.35912E-002	-6.66615E-004	5.28438E-005	-6.02482E-003	-5.21249E-003	2.55075E-004	3.64717E-004	-6.98580E-003	4.30454E-004
	178	178	4.99977E-002	-9.65153E-003	0.00000E+000	-4.82554E-004	-9.46943E-002	4.04101E-002	3.49888E+001	11	...........	6.73507E-002	-5.34917E-003	6.09982E-001	5.28033E-001	-2.58031E-002	-3.69494E-002	7.07446E-001	-4.37857E-002	-6.50038E-004	5.16277E-005	-5.88726E-003	-5.09633E-003	2.49039E-004	3.56619E-004	-6.82794E-003	4.22599E-004
	179	179	4.99981E-002	-9.49660E-003	0.00000E+000	-4.74812E-004	-9.31533E-002	4.03483E-002	3.50933E+001	11	...........	6.72346E-002	-5.39958E-003	6.09880E-001	5.27901E-001	-2.57867E-002	-3.69617E-002	7.07444E-001	-4.36722E-002	-6.38500E-004	5.12777E-005	-5.79178E-003	-5.01326E-003	2.44886E-004	3.51010E-004	-6.71832E-003	4.14738E-004
	180	180	4.99986E-002	-9.49733E-003	0.00000E+000	-4.74853E-004	-9.31597E-002	4.05653E-002	3.58057E+001	11	...........	6.75962E-002	-5.41208E-003	6.09865E-001	5.27893E-001	-2.58086E-002	-3.70086E-002	7.07459E-001	-4.36157E-002	-6.41984E-004	5.14003E-005	-5.79209E-003	-5.01357E-003	2.45113E-004	3.51483E-004	-6.71897E-003	4.14232E-004
	181	181	4.99981E-002	-9.38904E-003	0.00000E+000	-4.69434E-004	-9.20817E-002	4.04649E-002	3.59749E+001	11	...........	6.74222E-002	-5.39153E-003	6.09615E-001	5.28034E-001	-2.57776E-002	-3.70043E-002	7.07364E-001	-4.35601E-002	-6.33030E-004	5.06213E-005	-5.72370E-003	-4.95774E-003	2.42027E-004	3.47435E-004	-6.64147E-003	4.08988E-004
	182	182	4.99976E-002	-9.29407E-003	0.00000E+000	-4.64681E-004	-9.11303E-002	4.04916E-002	3.55270E+001	11	...........	6.74769E-002	-5.39625E-003	6.09502E-001	5.28121E-001	-2.57850E-002	-3.70125E-002	7.07415E-001	-4.36419E-002	-6.27135E-004	5.01531E-005	-5.66475E-003	-4.90839E-003	2.39648E-004	3.43997E-004	-6.57476E-003	4.05611E-004
	183	183	4.99987E-002	-9.17469E-003	0.00000E+000	-4.58722E-004	-8.99397E-002	4.04708E-002	3.59550E+001	11	...........	6.74315E-002	-5.37361E-003	6.09499E-001	5.28128E-001	-2.57908E-002	-3.70181E-002	7.07381E-001	-4.37283E-002	-6.18663E-004	4.93012E-005	-5.59196E-003	-4.84541E-003	2.36623E-004	3.39629E-004	-6.49000E-003	4.01194E-004
	184	184	4.99974E-002	-9.09495E-003	0.00000E+000	-4.54724E-004	-8.91560E-002	4.05306E-002	3.61582E+001	11	...........	6.75310E-002	-5.41153E-003	6.09497E-001	5.28194E-001	-2.58096E-002	-3.70125E-002	7.07338E-001	-4.37639E-002	-6.14191E-004	4.92176E-005	-5.54335E-003	-4.80390E-003	2.34737E-004	3.36627E-004	-6.43321E-003	3.98031E-004
	185	185	4.99961E-002	-8.90578E-003	0.00000E+000	-4.45254E-004	-8.72990E-002	4.05369E-002	3.42195E+001	11	...........	6.75431E-002	-5.44014E-003	6.09563E-001	5.28285E-001	-2.58126E-002	-3.69957E-002	7.07282E-001	-4.37561E-002	-6.01524E-004	4.84487E-005	-5.42863E-003	-4.70479E-003	2.29882E-004	3.29476E-004	-6.29890E-003	3.89682E-004
	186	186	5.00005E-002	-8.68431E-003	0.00000E+000	-4.34220E-004	-8.50927E-002	4.03775E-002	3.47131E+001	11	...........	6.72657E-002	-5.36750E-003	6.09599E-001	5.28405E-001	-2.58332E-002	-3.69858E-002	7.07360E-001	-4.37935E-002	-5.84156E-004	4.66130E-005	-5.29395E-003	-4.58884E-003	2.24343E-004	3.21196E-004	-6.14293E-003	3.80316E-004
	187	187	4.99983E-002	-8.75332E-003	0.00000E+000	-4.37651E-004	-8.57823E-002	4.05562E-002	3.60879E+001	11	...........	6.75775E-002	-5.43000E-003	6.09626E-001	5.28394E-001	-2.58394E-002	-3.69783E-002	7.07551E-001	-4.36653E-002	-5.91528E-004	4.75305E-005	-5.33626E-003	-4.62520E-003	2.26181E-004	3.23683E-004	-6.19342E-003	3.82216E-004
	188	188	4.99975E-002	-8.69737E-003	0.00000E+000	-4.34847E-004	-8.52233E-002	4.05766E-002	3.56762E+001	11	...........	6.75996E-002	-5.45958E-003	6.09816E-001	5.28365E-001	-2.58621E-002	-3.70047E-002	7.07570E-001	-4.37815E-002	-5.87938E-004	4.74840E-005	-5.30379E-003	-4.59539E-003	2.24932E-004	3.21844E-004	-6.15400E-003	3.80784E-004
	189	189	4.99984E-002	-8.53932E-003	0.00000E+000	-4.26952E-004	-8.36493E-002	4.04324E-002	3.56894E+001	11	...........	6.73701E-002	-5.38472E-003	6.09852E-001	5.28484E-001	-2.58640E-002	-3.70244E-002	7.07419E-001	-4.39172E-002	-5.75295E-004	4.59819E-005	-5.20772E-003	-4.51289E-003	2.20861E-004	3.16164E-004	-6.04088E-003	3.75023E-004
	190	190	4.99986E-002	-8.49792E-003	0.00000E+000	-4.24884E-004	-8.32360E-002	4.06187E-002	3.62362E+001	11	...........	6.76956E-002	-5.45375E-003	6.09983E-001	5.28555E-001	-2.58985E-002	-3.70476E-002	7.07423E-001	-4.39386E-002	-5.75271E-004	4.63455E-005	-5.18359E-003	-4.49162E-003	2.20083E-004	3.14828E-004	-6.01163E-003	3.73387E-004
	191	191	4.99978E-002	-8.41687E-003	0.00000E+000	-4.20825E-004	-8.24260E-002	4.05308E-002	3.58808E+001	11	...........	6.75394E-002	-5.42403E-003	6.10055E-001	5.28563E-001	-2.59001E-002	-3.70903E-002	7.07283E-001	-4.39556E-002	-5.68471E-004	4.56533E-005	-5.13475E-003	-4.44885E-003	2.17998E-004	3.12184E-004	-5.95311E-003	3.69968E-004
	192	192	4.99970E-002	-8.31403E-003	0.00000E+000	-4.15676E-004	-8.14063E-002	4.05569E-002	3.54117E+001	11	...........	6.75814E-002	-5.45611E-003	6.10129E-001	5.28461E-001	-2.58856E-002	-3.70653E-002	7.07401E-001	-4.39168E-002	-5.61874E-004	4.53623E-005	-5.07263E-003	-4.39364E-003	2.15213E-004	3.08162E-004	-5.88135E-003	3.65126E-004
	193	193	4.99979E-002	-8.05457E-003	0.00000E+000	-4.02712E-004	-7.88197E-002	4.04612E-002	3.48477E+001	11	...........	6.74147E-002	-5.29764E-003	6.10133E-001	5.28240E-001	-2.58864E-002	-3.70574E-002	7.07470E-001	-4.39007E-002	-5.42997E-004	4.26702E-005	-4.91436E-003	-4.25475E-003	2.08504E-004	2.98481E-004	-5.69837E-003	3.53601E-004
	194	194	5.00000E-002	-8.02943E-003	0.00000E+000	-4.01472E-004	-7.85657E-002	4.05237E-002	3.59147E+001	11	...........	6.75265E-002	-5.31972E-003	6.10035E-001	5.28133E-001	-2.58942E-002	-3.70693E-002	7.07501E-001	-4.38243E-002	-5.42199E-004	4.27143E-005	-4.89823E-003	-4.24061E-003	2.07915E-004	2.97645E-004	-5.68083E-003	3.51884E-004
	195	195	4.99985E-002	-8.05418E-003	0.00000E+000	-4.02697E-004	-7.88133E-002	4.05927E-002	3.58929E+001	11	...........	6.76339E-002	-5.26681E-003	6.09976E-001	5.28139E-001	-2.58839E-002	-3.70681E-002	7.07563E-001	-4.36562E-002	-5.44736E-004	4.24198E-005	-4.91286E-003	-4.25373E-003	2.08474E-004	2.98553E-004	-5.69884E-003	3.51615E-004
	196	196	4.99981E-002	-7.95732E-003	0.00000E+000	-3.97851E-004	-7.78507E-002	4.06055E-002	3.60133E+001	11	...........	6.76537E-002	-5.37042E-003	6.09959E-001	5.28152E-001	-2.58585E-002	-3.70433E-002	7.07575E-001	-4.36601E-002	-5.38342E-004	4.27341E-005	-4.85364E-003	-4.20267E-003	2.05764E-004	2.94766E-004	-5.63040E-003	3.47418E-004
	197	197	4.99985E-002	-7.86775E-003	0.00000E+000	-3.93376E-004	-7.69657E-002	4.06179E-002	3.56628E+001	11	...........	6.76746E-002	-5.41653E-003	6.10159E-001	5.28173E-001	-2.58536E-002	-3.70596E-002	7.07585E-001	-4.37749E-002	-5.32447E-004	4.26159E-005	-4.80058E-003	-4.15553E-003	2.03410E-004	2.91576E-004	-5.56711E-003	3.44410E-004
	198	198	4.99957E-002	-7.68715E-003	0.00000E+000	-3.84324E-004	-7.51823E-002	4.05573E-002	3.41998E+001	11	...........	6.75735E-002	-5.53264E-003	6.10325E-001	5.28172E-001	-2.58569E-002	-3.70529E-002	7.07565E-001	-4.38983E-002	-5.19447E-004	4.25302E-005	-4.69166E-003	-4.06014E-003	1.98766E-004	2.84831E-004	-5.43916E-003	3.37453E-004
	199	199	5.00000E-002	-7.55468E-003	0.00000E+000	-3.77734E-004	-7.38593E-002	4.04977E-002	3.53943E+001	11	...........	6.74597E-002	-5.48389E-003	6.10387E-001	5.28173E-001	-2.58746E-002	-3.70447E-002	7.07530E-001	-4.39269E-002	-5.09637E-004	4.14290E-005	-4.61128E-003	-3.99018E-003	1.95474E-004	2.79861E-004	-5.34517E-003	3.31854E-004
	200	200	4.99993E-002	-7.61994E-003	0.00000E+000	-3.80991E-004	-7.45113E-002	4.06361E-002	3.62856E+001	11	...........	6.77307E-002	-5.45194E-003	6.10524E-001	5.28311E-001	-2.58831E-002	-3.70558E-002	7.07385E-001	-4.38399E-002	-5.16104E-004	4.15435E-005	-4.65216E-003	-4.02569E-003	1.97227E-004	2.82363E-004	-5.39023E-003	3.34057E-004
	201	201	4.99978E-002	-7.53038E-003	0.00000E+000	-3.76502E-004	-7.36130E-002	4.06168E-002	3.60195E+001	11	...........	6.76812E-002	-5.33639E-003	6.10417E-001	5.28456E-001	-2.58950E-002	-3.70546E-002	7.07468E-001	-4.38231E-002	-5.09666E-004	4.01850E-005	-4.59667E-003	-3.97948E-003	1.94999E-004	2.79035E-004	-5.32750E-003	3.30004E-004
	202	202	4.99990E-002	-7.43067E-003	0.00000E+000	-3.71526E-004	-7.26200E-002	4.06103E-002	3.55404E+001	11	...........	6.76787E-002	-5.32667E-003	6.10372E-001	5.28465E-001	-2.58799E-002	-3.70276E-002	7.07533E-001	-4.38603E-002	-5.02899E-004	3.95807E-005	-4.53547E-003	-3.92685E-003	1.92305E-004	2.75140E-004	-5.25745E-003	3.25911E-004
	203	203	4.99973E-002	-7.34200E-003	0.00000E+000	-3.67080E-004	-7.17390E-002	4.06589E-002	3.60811E+001	11	...........	6.77414E-002	-5.42431E-003	6.10354E-001	5.28424E-001	-2.59015E-002	-3.70292E-002	7.07650E-001	-4.38750E-002	-4.97358E-004	3.98253E-005	-4.48122E-003	-3.87969E-003	1.90169E-004	2.71868E-004	-5.19557E-003	3.22130E-004
	204	204	4.99974E-002	-7.17874E-003	0.00000E+000	-3.58918E-004	-7.01127E-002	4.04427E-002	3.44574E+001	11	...........	6.73819E-002	-5.36931E-003	6.10427E-001	5.28367E-001	-2.58951E-002	-3.70194E-002	7.07739E-001	-4.39137E-002	-4.83717E-004	3.85448E-005	-4.38209E-003	-3.79301E-003	1.85894E-004	2.65753E-004	-5.08067E-003	3.15245E-004
	205	205	5.00003E-002	-7.21563E-003	0.00000E+000	-3.60784E-004	-7.04753E-002	4.07428E-002	3.59813E+001	11	...........	6.78806E-002	-5.44000E-003	6.10458E-001	5.28508E-001	-2.58721E-002	-3.70318E-002	7.07671E-001	-4.38668E-002	-4.89801E-004	3.92530E-005	-4.40484E-003	-3.81352E-003	1.86683E-004	2.67208E-004	-5.10630E-003	3.16527E-004
	206	206	4.99984E-002	-7.16956E-003	0.00000E+000	-3.58466E-004	-7.00197E-002	4.05985E-002	3.62648E+001	11	...........	6.76340E-002	-5.44778E-003	6.10627E-001	5.28491E-001	-2.58551E-002	-3.70146E-002	7.07794E-001	-4.38739E-002	-4.84906E-004	3.90581E-005	-4.37792E-003	-3.78905E-003	1.85370E-004	2.65378E-004	-5.07457E-003	3.14556E-004
	207	207	4.99964E-002	-7.06953E-003	0.00000E+000	-3.53451E-004	-6.90257E-002	4.06438E-002	3.52911E+001	11	...........	6.77304E-002	-5.38681E-003	6.10570E-001	5.28619E-001	-2.58371E-002	-3.69857E-002	7.07723E-001	-4.37762E-002	-4.78822E-004	3.80822E-005	-4.31644E-003	-3.73708E-003	1.82656E-004	2.61471E-004	-5.00327E-003	3.09477E-004
	208	208	5.00007E-002	-6.97053E-003	0.00000E+000	-3.48532E-004	-6.80380E-002	4.06672E-002	3.54736E+001	11	...........	6.77578E-002	-5.40181E-003	6.10456E-001	5.28622E-001	-2.58531E-002	-3.69908E-002	7.07577E-001	-4.38664E-002	-4.72308E-004	3.76535E-005	-4.25521E-003	-3.68478E-003	1.80210E-004	2.57846E-004	-4.93219E-003	3.05772E-004
	209	209	4.99980E-002	-6.85325E-003	0.00000E+000	-3.42649E-004	-6.68633E-002	4.04793E-002	3.58838E+001	11	...........	6.74674E-002	-5.36167E-003	6.10372E-001	5.28695E-001	-2.58690E-002	-3.70219E-002	7.07584E-001	-4.38793E-002	-4.62370E-004	3.67448E-005	-4.18303E-003	-3.62328E-003	1.77287E-004	2.53721E-004	-4.84925E-003	3.00716E-004
	210	210	4.99991E-002	-6.86625E-003	0.00000E+000	-3.43307E-004	-6.69947E-002	4.06836E-002	3.60917E+001	11	...........	6.77758E-002	-5.40389E-003	6.10390E-001	5.28637E-001	-2.58671E-002	-3.70222E-002	7.07678E-001	-4.38674E-002	-4.65366E-004	3.71045E-005	-4.19109E-003	-3.62975E-003	1.77610E-004	2.54204E-004	-4.85910E-003	3.01204E-004
	211	211	4.99983E-002	-6.80697E-003	0.00000E+000	-3.40337E-004	-6.64073E-002	4.06572E-002	3.62802E+001	11	...........	6.77401E-002	-5.30875E-003	6.10537E-001	5.28478E-001	-2.58644E-002	-3.70087E-002	7.07665E-001	-4.38810E-002	-4.61105E-004	3.61365E-005	-4.15590E-003	-3.59733E-003	1.76058E-004	2.51917E-004	-4.81705E-003	2.98696E-004
	212	212	4.99983E-002	-6.68391E-003	0.00000E+000	-3.34184E-004	-6.51767E-002	4.06667E-002	3.52304E+001	11	...........	6.77681E-002	-5.31403E-003	6.10625E-001	5.28645E-001	-2.58729E-002	-3.70049E-002	7.07618E-001	-4.38678E-002	-4.52955E-004	3.55185E-005	-4.08136E-003	-3.53341E-003	1.72932E-004	2.47337E-004	-4.72965E-003	2.93208E-004
	213	213	4.99983E-002	-6.50436E-003	0.00000E+000	-3.25207E-004	-6.33960E-002	4.03554E-002	3.42020E+001	11	...........	6.72467E-002	-5.27000E-003	6.10647E-001	5.28609E-001	-2.58826E-002	-3.69904E-002	7.07570E-001	-4.37703E-002	-4.37396E-004	3.42780E-005	-3.97187E-003	-3.43826E-003	1.68350E-004	2.40599E-004	-4.60229E-003	2.84697E-004
	214	214	4.99992E-002	-6.58423E-003	0.00000E+000	-3.29206E-004	-6.41783E-002	4.08398E-002	3.60636E+001	11	...........	6.80467E-002	-5.32764E-003	6.10693E-001	5.28409E-001	-2.58754E-002	-3.69879E-002	7.07585E-001	-4.38711E-002	-4.48035E-004	3.50784E-005	-4.02094E-003	-3.47916E-003	1.70370E-004	2.43537E-004	-4.65890E-003	2.88857E-004
	215	215	4.99983E-002	-6.52026E-003	0.00000E+000	-3.26002E-004	-6.35490E-002	4.06406E-002	3.63632E+001	11	...........	6.77371E-002	-5.29181E-003	6.10655E-001	5.28429E-001	-2.58774E-002	-3.69778E-002	7.07594E-001	-4.38744E-002	-4.41663E-004	3.45039E-005	-3.98163E-003	-3.44549E-003	1.68727E-004	2.41105E-004	-4.61369E-003	2.86073E-004
	216	216	4.99987E-002	-6.45271E-003	0.00000E+000	-3.22627E-004	-6.28937E-002	4.06940E-002	3.59368E+001	11	...........	6.78281E-002	-5.28639E-003	6.10790E-001	5.28433E-001	-2.58781E-002	-3.69817E-002	7.07520E-001	-4.37503E-002	-4.37675E-004	3.41115E-005	-3.94125E-003	-3.40982E-003	1.66984E-004	2.38632E-004	-4.56542E-003	2.82308E-004
	217	217	4.99978E-002	-6.33678E-003	0.00000E+000	-3.16825E-004	-6.17500E-002	4.05987E-002	3.53415E+001	11	...........	6.76474E-002	-5.27708E-003	6.10772E-001	5.28419E-001	-2.58942E-002	-3.69718E-002	7.07479E-001	-4.37521E-002	-4.28667E-004	3.34397E-005	-3.87033E-003	-3.34848E-003	1.64086E-004	2.34282E-004	-4.48314E-003	2.77248E-004
	218	218	4.99994E-002	-6.28960E-003	0.00000E+000	-3.14476E-004	-6.12817E-002	4.06518E-002	3.56658E+001	11	...........	6.77272E-002	-5.32319E-003	6.10557E-001	5.28494E-001	-2.58994E-002	-3.69942E-002	7.07512E-001	-4.38329E-002	-4.25977E-004	3.34808E-005	-3.84016E-003	-3.32401E-003	1.62897E-004	2.32678E-004	-4.44997E-003	2.75691E-004
	219	219	4.99994E-002	-6.28024E-003	0.00000E+000	-3.14008E-004	-6.11890E-002	4.06774E-002	3.61423E+001	11	...........	6.77749E-002	-5.24847E-003	6.10366E-001	5.28318E-001	-2.58876E-002	-3.69787E-002	7.07599E-001	-4.38074E-002	-4.25642E-004	3.29617E-005	-3.83325E-003	-3.31796E-003	1.62581E-004	2.32235E-004	-4.44389E-003	2.75121E-004
	220	220	4.99984E-002	-6.22881E-003	0.00000E+000	-3.11430E-004	-6.06733E-002	4.06858E-002	3.62653E+001	11	...........	6.77892E-002	-5.22528E-003	6.10375E-001	5.28378E-001	-2.58681E-002	-3.69843E-002	7.07503E-001	-4.38586E-002	-4.22246E-004	3.25473E-005	-3.80191E-003	-3.29117E-003	1.61127E-004	2.30368E-004	-4.40690E-003	2.73187E-004
	221	221	4.99977E-002	-6.13573E-003	0.00000E+000	-3.06772E-004	-5.97480E-002	4.07341E-002	3.62282E+001	11	...........	6.78615E-002	-5.23375E-003	6.10390E-001	5.28302E-001	-2.58678E-002	-3.69903E-002	7.07490E-001	-4.38887E-002	-4.16380E-004	3.21129E-005	-3.74519E-003	-3.24152E-003	1.58718E-004	2.26962E-004	-4.34097E-003	2.69290E-004
	222	222	4.99966E-002	-5.99407E-003	0.00000E+000	-2.99683E-004	-5.83343E-002	4.05738E-002	3.38981E+001	11	...........	6.75886E-002	-5.37208E-003	6.10420E-001	5.28370E-001	-2.58800E-002	-3.69683E-002	7.07386E-001	-4.38896E-002	-4.05131E-004	3.22006E-005	-3.65890E-003	-3.16708E-003	1.55126E-004	2.21591E-004	-4.24012E-003	2.63077E-004
	223	223	5.00015E-002	-5.98948E-003	0.00000E+000	-2.99483E-004	-5.82873E-002	4.07388E-002	3.57286E+001	11	...........	6.78837E-002	-5.34083E-003	6.10493E-001	5.28296E-001	-2.59029E-002	-3.69740E-002	7.07223E-001	-4.39736E-002	-4.06588E-004	3.19888E-005	-3.65654E-003	-3.16422E-003	1.55145E-004	2.21455E-004	-4.23590E-003	2.63379E-004
	224	224	4.99981E-002	-5.97462E-003	0.00000E+000	-2.98720E-004	-5.81380E-002	4.06966E-002	3.63040E+001	11	...........	6.78113E-002	-5.24417E-003	6.10550E-001	5.28331E-001	-2.59096E-002	-3.69910E-002	7.07242E-001	-4.39647E-002	-4.05146E-004	3.13319E-005	-3.64780E-003	-3.15657E-003	1.54800E-004	2.21007E-004	-4.22550E-003	2.62672E-004
	225	225	4.99987E-002	-5.90320E-003	0.00000E+000	-2.95152E-004	-5.74233E-002	4.07360E-002	3.54509E+001	11	...........	6.78896E-002	-5.23194E-003	6.10469E-001	5.28236E-001	-2.58814E-002	-3.69812E-002	7.07418E-001	-4.39343E-002	-4.00766E-004	3.08852E-005	-3.60372E-003	-3.11828E-003	1.52783E-004	2.18308E-004	-4.17603E-003	2.59353E-004
	226	226	4.99984E-002	-5.80038E-003	0.00000E+000	-2.90010E-004	-5.64050E-002	4.05941E-002	3.55331E+001	11	...........	6.76343E-002	-5.32972E-003	6.10509E-001	5.28190E-001	-2.58783E-002	-3.69856E-002	7.07520E-001	-4.37375E-002	-3.92305E-004	3.09144E-005	-3.54119E-003	-3.06370E-003	1.50104E-004	2.14530E-004	-4.10389E-003	2.53694E-004
	227	227	4.99989E-002	-5.79032E-003	0.00000E+000	-2.89510E-004	-5.63070E-002	4.08196E-002	3.63366E+001	11	...........	6.80175E-002	-5.40222E-003	6.10659E-001	5.28056E-001	-2.58904E-002	-3.69856E-002	7.07342E-001	-4.36939E-002	-3.93843E-004	3.12806E-005	-3.53591E-003	-3.05761E-003	1.49914E-004	2.14158E-004	-4.09574E-003	2.53002E-004
	228	228	4.99980E-002	-5.71086E-003	0.00000E+000	-2.85532E-004	-5.55157E-002	4.07377E-002	3.57787E+001	11	...........	6.78858E-002	-5.42125E-003	6.10648E-001	5.28079E-001	-2.58807E-002	-3.70082E-002	7.07440E-001	-4.37528E-002	-3.87687E-004	3.09600E-005	-3.48732E-003	-3.01579E-003	1.47801E-004	2.11349E-004	-4.04009E-003	2.49866E-004
	229	229	4.99987E-002	-5.58144E-003	0.00000E+000	-2.79065E-004	-5.42240E-002	4.04707E-002	3.46431E+001	11	...........	6.74258E-002	-5.43431E-003	6.10510E-001	5.28159E-001	-2.58732E-002	-3.70014E-002	7.07508E-001	-4.38764E-002	-3.76333E-004	3.03312E-005	-3.40753E-003	-2.94789E-003	1.44410E-004	2.06521E-004	-3.94891E-003	2.44893E-004
	230	230	4.99994E-002	-5.61848E-003	0.00000E+000	-2.80921E-004	-5.45963E-002	4.09469E-002	3.61383E+001	11	...........	6.82242E-002	-5.44681E-003	6.10473E-001	5.28045E-001	-2.58628E-002	-3.70093E-002	7.07564E-001	-4.39400E-002	-3.83316E-004	3.06028E-005	-3.42993E-003	-2.96681E-003	1.45310E-004	2.07936E-004	-3.97544E-003	2.46876E-004
	231	231	4.99988E-002	-5.57568E-003	0.00000E+000	-2.78777E-004	-5.41670E-002	4.07192E-002	3.63445E+001	11	...........	6.78357E-002	-5.46250E-003	6.10441E-001	5.28022E-001	-2.58681E-002	-3.70435E-002	7.07474E-001	-4.39256E-002	-3.78230E-004	3.04572E-005	-3.40363E-003	-2.94409E-003	1.44232E-004	2.06543E-004	-3.94465E-003	2.44915E-004
	232	232	4.99988E-002	-5.48471E-003	0.00000E+000	-2.74229E-004	-5.32623E-002	4.06540E-002	3.58438E+001	11	...........	6.77457E-002	-5.37431E-003	6.10351E-001	5.28135E-001	-2.58665E-002	-3.70511E-002	7.07469E-001	-4.37953E-002	-3.71565E-004	2.94765E-005	-3.34759E-003	-2.89666E-003	1.41870E-004	2.03214E-004	-3.88026E-003	2.40204E-004
	233	233	4.99972E-002	-5.44888E-003	0.00000E+000	-2.72429E-004	-5.29080E-002	4.08436E-002	3.54827E+001	11	...........	6.80569E-002	-5.39139E-003	6.10263E-001	5.28230E-001	-2.58622E-002	-3.70360E-002	7.07380E-001	-4.38824E-002	-3.70834E-004	2.93770E-005	-3.32525E-003	-2.87826E-003	1.40920E-004	2.01805E-004	-3.85443E-003	2.39110E-004
	234	234	4.99995E-002	-5.33493E-003	0.00000E+000	-2.66744E-004	-5.17770E-002	4.05497E-002	3.48870E+001	11	...........	6.75669E-002	-5.45153E-003	6.10018E-001	5.28183E-001	-2.58781E-002	-3.70614E-002	7.07301E-001	-4.39056E-002	-3.60465E-004	2.90835E-005	-3.25440E-003	-2.81782E-003	1.38058E-004	1.97720E-004	-3.77340E-003	2.34233E-004
	235	235	4.99993E-002	-5.35029E-003	0.00000E+000	-2.67511E-004	-5.19250E-002	4.08190E-002	3.63864E+001	11	...........	6.80082E-002	-5.40833E-003	6.09996E-001	5.28153E-001	-2.58706E-002	-3.70896E-002	7.07349E-001	-4.38606E-002	-3.63863E-004	2.89361E-005	-3.26365E-003	-2.82577E-003	1.38415E-004	1.98440E-004	-3.78452E-003	2.34667E-004
	236	236	4.99988E-002	-5.32131E-003	0.00000E+000	-2.66059E-004	-5.16353E-002	4.07458E-002	3.62785E+001	11	...........	6.78976E-002	-5.29792E-003	6.10060E-001	5.28128E-001	-2.58704E-002	-3.70837E-002	7.07359E-001	-4.39582E-002	-3.61304E-004	2.81918E-005	-3.24632E-003	-2.81033E-003	1.37664E-004	1.97334E-004	-3.76407E-003	2.33915E-004
	237	237	4.99986E-002	-5.25901E-003	0.00000E+000	-2.62943E-004	-5.10227E-002	4.07678E-002	3.62562E+001	11	...........	6.79526E-002	-5.40750E-003	6.10078E-001	5.27978E-001	-2.58615E-002	-3.70761E-002	7.07409E-001	-4.39278E-002	-3.57364E-004	2.84381E-005	-3.20841E-003	-2.77664E-003	1.36006E-004	1.94984E-004	-3.72027E-003	2.31017E-004
	238	238	4.99985E-002	-5.20985E-003	0.00000E+000	-2.60485E-004	-5.05440E-002	4.07577E-002	3.61749E+001	11	...........	6.78957E-002	-5.39736E-003	6.10092E-001	5.28105E-001	-2.58636E-002	-3.70817E-002	7.07405E-001	-4.38446E-002	-3.53726E-004	2.81194E-005	-3.17849E-003	-2.75135E-003	1.34745E-004	1.93190E-004	-3.68547E-003	2.28424E-004
	239	239	4.99986E-002	-5.13737E-003	0.00000E+000	-2.56861E-004	-4.98220E-002	4.07632E-002	3.54954E+001	11	...........	6.79201E-002	-5.40986E-003	6.10181E-001	5.28128E-001	-2.58747E-002	-3.70676E-002	7.07433E-001	-4.38158E-002	-3.48931E-004	2.77925E-005	-3.13473E-003	-2.71319E-003	1.32928E-004	1.90430E-004	-3.63435E-003	2.25098E-004
	240	239.662	4.99979E-002	-5.07155E-003	0.00000E+000	-2.53567E-004	-4.91678E-002	4.05738E-002	3.50864E+001	11	...........	6.76029E-002	-5.32662E-003	6.10109E-001	5.28051E-001	-2.59053E-002	-3.70437E-002	7.07466E-001	-4.37907E-002	-3.42851E-004	2.70142E-005	-3.09420E-003	-2.67803E-003	1.31380E-004	1.87869E-004	-3.58795E-003	2.22087E-004
STARTTIMEOFFSET	QUANT	681312.9	Start Time Offset (s)
