EXPLAIN
TAG	PWR800_DISCHARGE
TITLE	LABEL	PWR Discharge	Test Identifier
DATE	LABEL	10/18/2022	Date
TIME	LABEL	4:49:55	Time
NOTES	NOTES	1	Notes...
	
PSTAT	PSTAT	REF3000-21114	Potentiostat
CAPACITY	QUANT	5.30000E-002	Capacity (A-hr)
CELLTYPE	SELECTOR	1	Cell Type
WORKINGCONNECTION	SELECTOR	0	Working Connection
MAXDISCHARGETIME	VARIABLEANDUNITS	7.20000E+003	s	2.00000E+000	hour(s)	Max Discharge Time
DISCHARGEMODE	MULTIPARAM	0	1.00000E-001	Discharge Mode	Constant Current	Amp(s)
VOLTAGEFINISH	TWOPARAM	T	5.00000E-003	7.20000E+003	Voltage Finish	I (A) <	Max Time(s)
SAMPLETIME	QUANT	1.00000E+000	Sample Period (s)
DISCHARGESTOPAT1	MULTIPARAM	1	5.00000E-002	Stop At 1	|Voltage| < Limit	V
DISCHARGESTOPAT2	MULTIPARAM	0	0.00000E+000	Stop At 2	None	N/A
AESELECTOR	AESELECTOR	0x1	T	Set Limits	AE Channels
AESBHCSELECTOR	TOGGLE	F	Save Both Half Cells
IRCOMP	TOGGLE	F	IR Measure
EOC	QUANT	0.5136249	Open Circuit (V)
SEQUENCER	TOGGLE	TRUE	Run as Sequence
PSTATMODEL	IQUANT	5	Pstat Model
PSTATSECTION	LABEL	REF3000-21114	Pstat Section
PSTATSERIALNO	LABEL	21114	Pstat Serial Number
CTRLMODE	IQUANT	0	Control Mode
ELECTROMETER	IQUANT	0	RE=0 or CS=1
IESTAB	IQUANT	0	I/E Stability
CASPEED	IQUANT	4	Control Amp Speed
CONVENTION	IQUANT	1	Current Convention
ICHRANGE	IQUANT	2	Ich Range
ICHRANGEMODE	TOGGLE	T	Ich Auto Range
ICHOFFSETENABLE	TOGGLE	F	Ich Offset Enable
ICHOFFSET	QUANT	0	Ich Offset (V)
ICHFILTER	IQUANT	1	Ich Filter
VCHRANGE	IQUANT	3	Vch Range
VCHRANGEMODE	TOGGLE	T	Vch Auto Range
VCHOFFSETENABLE	TOGGLE	F	Vch Offset Enable
VCHOFFSET	QUANT	0	Vch Offset (V)
VCHFILTER	IQUANT	1	Vch Filter
ACHRANGE	IQUANT	2	Ach Range
ACHOFFSETENABLE	TOGGLE	F	Ach Offset Enable
ACHOFFSET	QUANT	0	Ach Offset (V)
ACHFILTER	IQUANT	1	Ach Filter
IERANGELOWERLIMIT	IQUANT	9	I/E Range Lower Limit
IERANGEMODE	TOGGLE	F	I/E AutoRange
IERANGE	IQUANT	9	I/E Range
POSFEEDENABLE	TOGGLE	F	Positive Feedback IR Comp
POSFEEDRESISTANCE	QUANT	0	Positive Feedback Resistance (ohm)
ACHSELECT	IQUANT	1	Ach Select
SENSECABLEID	IQUANT	13	Sense Cable ID
PWRCABLEID	IQUANT	13	Power Cable ID
DCCALDATE	LABEL		DC Calibration Date
ACCALDATE	LABEL		AC Calibration Date
THERMOSELECT	IQUANT	1	Thermo Select
FRAMEWORKVERSION	LABEL	7.8.6	Framework Version
INSTRUMENTVERSION	LABEL	4.50	Instrument Version
COMPLIANCEVOLTAGE	IQUANT	0	Compliance Voltage
CURVE	TABLE	50
	Pt	T	Vf	Im	Vu	Pwr	Sig	Ach	Temp	IERange	Over	Vf1	Vf2	Vf3	Vf4	Vf5	Vf6	Vf7	Vf8	Pwr1	Pwr2	Pwr3	Pwr4	Pwr5	Pwr6	Pwr7	Pwr8
	#	s	V	A	V	W	V	V	deg C	#	bits	V	V	V	V	V	V	V	V	W	W	W	W	W	W	W	W
	0	1	2.68342E-001	-1.00102E-001	0.00000E+000	-2.68615E-002	-9.94000E-001	3.47717E-002	2.80206E+001	11	...........	5.77697E-002	-5.20208E-003	6.04284E-001	5.33452E-001	-2.71390E-002	-3.83447E-002	7.02433E-001	-4.38382E-002	-5.78286E-003	5.20738E-004	-6.04900E-002	-5.33996E-002	2.71667E-003	3.83838E-003	-7.03149E-002	4.38829E-003
	1	2	1.69262E-001	-1.00102E-001	0.00000E+000	-1.69435E-002	-9.94000E-001	3.48630E-002	2.78289E+001	11	...........	5.79528E-002	-5.25139E-003	6.04294E-001	5.33448E-001	-2.71583E-002	-3.82996E-002	7.02512E-001	-4.38668E-002	-5.80120E-003	5.25675E-004	-6.04911E-002	-5.33993E-002	2.71861E-003	3.83387E-003	-7.03230E-002	4.39116E-003
	2	2.88333	8.64554E-002	-1.00102E-001	0.00000E+000	-8.65437E-003	-9.94000E-001	3.47365E-002	2.69338E+001	11	...........	5.77374E-002	-5.21258E-003	6.04232E-001	5.33513E-001	-2.71681E-002	-3.82959E-002	7.02572E-001	-4.38382E-002	-5.77964E-003	5.21790E-004	-6.04850E-002	-5.34058E-002	2.71958E-003	3.83350E-003	-7.03290E-002	4.38830E-003
	3	3	4.89389E-002	-9.61127E-002	0.00000E+000	-4.70365E-003	-9.54314E-001	3.48550E-002	2.69279E+001	11	...........	5.79512E-002	-5.24881E-003	6.04071E-001	5.33574E-001	-2.71607E-002	-3.82536E-002	7.02575E-001	-4.38905E-002	-5.56984E-003	5.04477E-004	-5.80589E-002	-5.12832E-002	2.61049E-003	3.67665E-003	-6.75264E-002	4.21843E-003
	4	4	4.93839E-002	-7.22957E-002	0.00000E+000	-3.57024E-003	-7.17519E-001	3.49877E-002	2.77045E+001	11	...........	5.81381E-002	-5.23764E-003	6.03976E-001	5.33620E-001	-2.71810E-002	-3.82692E-002	7.02521E-001	-4.38828E-002	-4.20313E-003	3.78659E-004	-4.36649E-002	-3.85784E-002	1.96507E-003	2.76670E-003	-5.07892E-002	3.17253E-003
	5	5	4.96312E-002	-4.75449E-002	0.00000E+000	-2.35971E-003	-4.71445E-001	3.50268E-002	2.92344E+001	11	...........	5.82101E-002	-5.31431E-003	6.03796E-001	5.33649E-001	-2.71564E-002	-3.82553E-002	7.02596E-001	-4.39644E-002	-2.76760E-003	2.52668E-004	-2.87074E-002	-2.53723E-002	1.29115E-003	1.81884E-003	-3.34049E-002	2.09029E-003
	6	6	4.97333E-002	-3.46346E-002	0.00000E+000	-1.72249E-003	-3.43090E-001	3.50807E-002	2.98313E+001	11	...........	5.82818E-002	-5.29472E-003	6.03838E-001	5.33733E-001	-2.71590E-002	-3.82522E-002	7.02597E-001	-4.39440E-002	-2.01857E-003	1.83381E-004	-2.09137E-002	-1.84856E-002	9.40642E-004	1.32485E-003	-2.43342E-002	1.52198E-003
	7	7	4.97829E-002	-2.67342E-002	0.00000E+000	-1.33091E-003	-2.64545E-001	3.51373E-002	3.01887E+001	11	...........	5.83664E-002	-5.25222E-003	6.04030E-001	5.33742E-001	-2.71524E-002	-3.82349E-002	7.02667E-001	-4.39011E-002	-1.56038E-003	1.40414E-004	-1.61483E-002	-1.42692E-002	7.25898E-004	1.02218E-003	-1.87853E-002	1.17366E-003
	8	8	4.98157E-002	-2.17458E-002	0.00000E+000	-1.08328E-003	-2.14939E-001	3.51726E-002	3.09446E+001	11	...........	5.84246E-002	-5.30431E-003	6.04106E-001	5.33604E-001	-2.71444E-002	-3.82253E-002	7.02719E-001	-4.38783E-002	-1.27049E-003	1.15346E-004	-1.31368E-002	-1.16036E-002	5.90277E-004	8.31239E-004	-1.52812E-002	9.54169E-004
	9	9	4.98301E-002	-1.83068E-002	0.00000E+000	-9.12230E-004	-1.80744E-001	3.51788E-002	3.09440E+001	11	...........	5.84390E-002	-5.23347E-003	6.04130E-001	5.33578E-001	-2.71750E-002	-3.82069E-002	7.02633E-001	-4.38322E-002	-1.06983E-003	9.58081E-005	-1.10597E-002	-9.76811E-003	4.97487E-004	6.99447E-004	-1.28630E-002	8.02428E-004
	10	10	4.98409E-002	-1.58635E-002	0.00000E+000	-7.90653E-004	-1.56447E-001	3.52549E-002	3.13604E+001	11	...........	5.85575E-002	-5.21722E-003	6.04369E-001	5.33591E-001	-2.71769E-002	-3.82028E-002	7.02519E-001	-4.39296E-002	-9.28929E-004	8.27636E-005	-9.58744E-003	-8.46464E-003	4.31123E-004	6.06031E-004	-1.11444E-002	6.96879E-004
	11	11	4.98484E-002	-1.40672E-002	0.00000E+000	-7.01229E-004	-1.38577E-001	3.52415E-002	3.13691E+001	11	...........	5.85192E-002	-5.21625E-003	6.04363E-001	5.33646E-001	-2.71604E-002	-3.81728E-002	7.02503E-001	-4.39650E-002	-8.23202E-004	7.33781E-005	-8.50171E-003	-7.50692E-003	3.82071E-004	5.36985E-004	-9.88227E-003	6.18465E-004
	12	12	4.98528E-002	-1.27087E-002	0.00000E+000	-6.33566E-004	-1.25073E-001	3.52466E-002	3.14454E+001	11	...........	5.85362E-002	-5.21528E-003	6.04376E-001	5.33648E-001	-2.71404E-002	-3.81618E-002	7.02508E-001	-4.38608E-002	-7.43922E-004	6.62796E-005	-7.68087E-003	-6.78200E-003	3.44921E-004	4.84989E-004	-8.92800E-003	5.57416E-004
	13	13	4.98578E-002	-1.16612E-002	0.00000E+000	-5.81404E-004	-1.14649E-001	3.52269E-002	3.12395E+001	11	...........	5.85071E-002	-5.20528E-003	6.04517E-001	5.33730E-001	-2.71364E-002	-3.81626E-002	7.02550E-001	-4.38843E-002	-6.82264E-004	6.06999E-005	-7.04941E-003	-6.22395E-003	3.16444E-004	4.45023E-004	-8.19259E-003	5.11745E-004
	14	14	4.98597E-002	-1.09394E-002	0.00000E+000	-5.45438E-004	-1.07477E-001	3.53438E-002	3.16952E+001	11	...........	5.87265E-002	-5.17931E-003	6.04447E-001	5.33855E-001	-2.71401E-002	-3.81392E-002	7.02620E-001	-4.39390E-002	-6.42435E-004	5.66587E-005	-6.61231E-003	-5.84008E-003	2.96898E-004	4.17221E-004	-7.68627E-003	4.80668E-004
	15	15	4.98627E-002	-1.02615E-002	0.00000E+000	-5.11667E-004	-1.00763E-001	3.53133E-002	3.19226E+001	11	...........	5.86600E-002	-5.29750E-003	6.04338E-001	5.33826E-001	-2.71292E-002	-3.81368E-002	7.02537E-001	-4.39125E-002	-6.01941E-004	5.43604E-005	-6.20143E-003	-5.47787E-003	2.78387E-004	3.91342E-004	-7.20911E-003	4.50609E-004
	16	16	4.98637E-002	-9.74555E-003	0.00000E+000	-4.85950E-004	-9.56273E-002	3.53133E-002	3.18396E+001	11	...........	5.86597E-002	-5.29444E-003	6.04268E-001	5.33757E-001	-2.71139E-002	-3.81512E-002	7.02507E-001	-4.39014E-002	-5.71671E-004	5.15973E-005	-5.88892E-003	-5.20175E-003	2.64240E-004	3.71805E-004	-6.84632E-003	4.27843E-004
	17	17	4.98639E-002	-9.29933E-003	0.00000E+000	-4.63701E-004	-9.11793E-002	3.53308E-002	3.21738E+001	11	...........	5.86914E-002	-5.27542E-003	6.04226E-001	5.33614E-001	-2.71257E-002	-3.81564E-002	7.02450E-001	-4.39057E-002	-5.45790E-004	4.90578E-005	-5.61890E-003	-4.96225E-003	2.52251E-004	3.54829E-004	-6.53231E-003	4.08293E-004
	18	18	4.98655E-002	-8.91535E-003	0.00000E+000	-4.44568E-004	-8.73833E-002	3.53252E-002	3.17615E+001	11	...........	5.86665E-002	-5.20764E-003	6.04196E-001	5.33548E-001	-2.71207E-002	-3.81369E-002	7.02478E-001	-4.38601E-002	-5.23033E-004	4.64279E-005	-5.38662E-003	-4.75677E-003	2.41791E-004	3.40004E-004	-6.26284E-003	3.91029E-004
	19	19	4.98666E-002	-8.60059E-003	0.00000E+000	-4.28882E-004	-8.42513E-002	3.53585E-002	3.21993E+001	11	...........	5.87215E-002	-5.23028E-003	6.03961E-001	5.33630E-001	-2.71286E-002	-3.81462E-002	7.02525E-001	-4.38715E-002	-5.05040E-004	4.49835E-005	-5.19442E-003	-4.58954E-003	2.33322E-004	3.28080E-004	-6.04213E-003	3.77321E-004
	20	20	4.98661E-002	-8.36764E-003	0.00000E+000	-4.17262E-004	-8.19300E-002	3.53242E-002	3.25139E+001	11	...........	5.88517E-002	-5.20639E-003	6.03978E-001	5.33734E-001	-2.71443E-002	-3.81835E-002	7.02396E-001	-4.38260E-002	-4.92450E-004	4.35652E-005	-5.05388E-003	-4.46610E-003	2.27134E-004	3.19506E-004	-5.87740E-003	3.66720E-004
	21	21	4.98657E-002	-8.08579E-003	0.00000E+000	-4.03203E-004	-7.91180E-002	3.52356E-002	3.17805E+001	11	...........	5.87822E-002	-5.19750E-003	6.04022E-001	5.33660E-001	-2.71711E-002	-3.81696E-002	7.02391E-001	-4.38853E-002	-4.75301E-004	4.20259E-005	-4.88399E-003	-4.31506E-003	2.19700E-004	3.08631E-004	-5.67938E-003	3.54847E-004
	22	22	4.98690E-002	-7.88492E-003	0.00000E+000	-3.93213E-004	-7.71260E-002	3.52608E-002	3.22992E+001	11	...........	5.88364E-002	-5.25236E-003	6.04099E-001	5.33633E-001	-2.71651E-002	-3.81793E-002	7.02543E-001	-4.39440E-002	-4.63920E-004	4.14144E-005	-4.76328E-003	-4.20765E-003	2.14195E-004	3.01041E-004	-5.53950E-003	3.46495E-004
	23	23	4.98653E-002	-7.65823E-003	0.00000E+000	-3.81880E-004	-7.48793E-002	3.52095E-002	3.22115E+001	11	...........	5.87522E-002	-5.29792E-003	6.04144E-001	5.33460E-001	-2.71511E-002	-3.82000E-002	7.02657E-001	-4.39456E-002	-4.49938E-004	4.05727E-005	-4.62668E-003	-4.08536E-003	2.07930E-004	2.92545E-004	-5.38111E-003	3.36545E-004
	24	24	4.98677E-002	-7.45223E-003	0.00000E+000	-3.71625E-004	-7.28213E-002	3.52792E-002	3.15478E+001	11	...........	5.88635E-002	-5.25833E-003	6.04107E-001	5.33562E-001	-2.71607E-002	-3.81974E-002	7.02624E-001	-4.38526E-002	-4.38664E-004	3.91863E-005	-4.50194E-003	-3.97623E-003	2.02408E-004	2.84656E-004	-5.23612E-003	3.26800E-004
	25	25	4.98688E-002	-7.29414E-003	0.00000E+000	-3.63750E-004	-7.12467E-002	3.52593E-002	3.21645E+001	11	...........	5.88314E-002	-5.28556E-003	6.04131E-001	5.33619E-001	-2.71667E-002	-3.82200E-002	7.02482E-001	-4.38642E-002	-4.29124E-004	3.85536E-005	-4.40661E-003	-3.89229E-003	1.98157E-004	2.78782E-004	-5.12400E-003	3.19951E-004
	26	26	4.98671E-002	-7.17174E-003	0.00000E+000	-3.57634E-004	-7.00240E-002	3.53112E-002	3.22446E+001	11	...........	5.89364E-002	-5.28875E-003	6.04230E-001	5.33640E-001	-2.71678E-002	-3.82201E-002	7.02495E-001	-4.38349E-002	-4.22677E-004	3.79296E-005	-4.33338E-003	-3.82713E-003	1.94840E-004	2.74105E-004	-5.03812E-003	3.14372E-004
	27	27	4.98686E-002	-7.01770E-003	0.00000E+000	-3.49963E-004	-6.84893E-002	3.52326E-002	3.20412E+001	11	...........	5.88306E-002	-5.33194E-003	6.04099E-001	5.33528E-001	-2.71719E-002	-3.82054E-002	7.02649E-001	-4.38672E-002	-4.12855E-004	3.74180E-005	-4.23939E-003	-3.74414E-003	1.90685E-004	2.68114E-004	-4.93098E-003	3.07847E-004
	28	28	4.98681E-002	-6.86696E-003	0.00000E+000	-3.42443E-004	-6.69840E-002	3.53782E-002	3.22200E+001	11	...........	5.90307E-002	-5.21806E-003	6.03961E-001	5.33481E-001	-2.71572E-002	-3.82174E-002	7.02452E-001	-4.39036E-002	-4.05361E-004	3.58322E-005	-4.14738E-003	-3.66340E-003	1.86488E-004	2.62437E-004	-4.82371E-003	3.01484E-004
	29	29	4.98685E-002	-6.73414E-003	0.00000E+000	-3.35821E-004	-6.56640E-002	3.52126E-002	3.19264E+001	11	...........	5.87354E-002	-5.22847E-003	6.03914E-001	5.33504E-001	-2.71350E-002	-3.82090E-002	7.02384E-001	-4.39335E-002	-3.95532E-004	3.52093E-005	-4.06684E-003	-3.59269E-003	1.82731E-004	2.57305E-004	-4.72995E-003	2.95854E-004
	30	30	4.98685E-002	-6.62752E-003	0.00000E+000	-3.30504E-004	-6.45993E-002	3.53827E-002	3.22813E+001	11	...........	5.90486E-002	-5.21806E-003	6.03893E-001	5.33561E-001	-2.71233E-002	-3.82100E-002	7.02465E-001	-4.39783E-002	-3.91346E-004	3.45828E-005	-4.00232E-003	-3.53618E-003	1.79760E-004	2.53238E-004	-4.65560E-003	2.91467E-004
	31	31	4.98683E-002	-6.52475E-003	0.00000E+000	-3.25378E-004	-6.35773E-002	3.53428E-002	3.25965E+001	11	...........	5.89946E-002	-5.17903E-003	6.03893E-001	5.33470E-001	-2.71296E-002	-3.82101E-002	7.02545E-001	-4.38976E-002	-3.84925E-004	3.37919E-005	-3.94026E-003	-3.48076E-003	1.77014E-004	2.49312E-004	-4.58394E-003	2.86421E-004
	32	32	4.98681E-002	-6.40286E-003	0.00000E+000	-3.19298E-004	-6.23920E-002	3.53723E-002	3.22994E+001	11	...........	5.90199E-002	-5.18889E-003	6.03871E-001	5.33330E-001	-2.71142E-002	-3.82115E-002	7.02361E-001	-4.39210E-002	-3.77896E-004	3.32237E-005	-3.86650E-003	-3.41483E-003	1.73608E-004	2.44663E-004	-4.49712E-003	2.81220E-004
	33	33	4.98689E-002	-6.28238E-003	0.00000E+000	-3.13295E-004	-6.11933E-002	3.52880E-002	3.20010E+001	11	...........	5.88851E-002	-5.23542E-003	6.03571E-001	5.33386E-001	-2.71264E-002	-3.82006E-002	7.02448E-001	-4.39818E-002	-3.69938E-004	3.28908E-005	-3.79186E-003	-3.35093E-003	1.70418E-004	2.39990E-004	-4.41304E-003	2.76310E-004
	34	34	4.98688E-002	-6.21027E-003	0.00000E+000	-3.09699E-004	-6.04720E-002	3.54302E-002	3.30059E+001	11	...........	5.91217E-002	-5.23847E-003	6.03551E-001	5.33557E-001	-2.71394E-002	-3.82033E-002	7.02501E-001	-4.40412E-002	-3.67161E-004	3.25323E-005	-3.74822E-003	-3.31353E-003	1.68543E-004	2.37253E-004	-4.36272E-003	2.73508E-004
	35	35	4.98683E-002	-6.10156E-003	0.00000E+000	-3.04274E-004	-5.93920E-002	3.53743E-002	3.22456E+001	11	...........	5.90242E-002	-5.21806E-003	6.03581E-001	5.33620E-001	-2.71515E-002	-3.82037E-002	7.02480E-001	-4.38925E-002	-3.60139E-004	3.18383E-005	-3.68279E-003	-3.25591E-003	1.65667E-004	2.33102E-004	-4.28622E-003	2.67813E-004
	36	36	4.98687E-002	-6.00804E-003	0.00000E+000	-2.99613E-004	-5.84607E-002	3.53807E-002	3.24950E+001	11	...........	5.90275E-002	-5.16403E-003	6.03473E-001	5.33736E-001	-2.71343E-002	-3.82308E-002	7.02459E-001	-4.38854E-002	-3.54640E-004	3.10257E-005	-3.62569E-003	-3.20670E-003	1.63024E-004	2.29692E-004	-4.22040E-003	2.63665E-004
	37	37	4.98693E-002	-5.92014E-003	0.00000E+000	-2.95233E-004	-5.75773E-002	3.54301E-002	3.26143E+001	11	...........	5.91331E-002	-5.15181E-003	6.03623E-001	5.33860E-001	-2.71519E-002	-3.82322E-002	7.02422E-001	-4.39775E-002	-3.50076E-004	3.04994E-005	-3.57353E-003	-3.16053E-003	1.60743E-004	2.26340E-004	-4.15844E-003	2.60353E-004
	38	38	4.98685E-002	-5.80659E-003	0.00000E+000	-2.89566E-004	-5.64507E-002	3.53158E-002	3.20204E+001	11	...........	5.89326E-002	-5.19931E-003	6.03532E-001	5.33830E-001	-2.71658E-002	-3.82465E-002	7.02375E-001	-4.39675E-002	-3.42197E-004	3.01902E-005	-3.50446E-003	-3.09973E-003	1.57741E-004	2.22082E-004	-4.07840E-003	2.55301E-004
	39	39	4.98686E-002	-5.73165E-003	0.00000E+000	-2.85829E-004	-5.57073E-002	3.54505E-002	3.26357E+001	11	...........	5.91622E-002	-5.21917E-003	6.03586E-001	5.33810E-001	-2.71619E-002	-3.82636E-002	7.02421E-001	-4.38307E-002	-3.39097E-004	2.99144E-005	-3.45954E-003	-3.05961E-003	1.55683E-004	2.19314E-004	-4.02603E-003	2.51222E-004
	40	40	4.98695E-002	-5.66991E-003	0.00000E+000	-2.82756E-004	-5.50927E-002	3.54216E-002	3.26144E+001	11	...........	5.91240E-002	-5.19264E-003	6.03677E-001	5.33772E-001	-2.71628E-002	-3.82761E-002	7.02438E-001	-4.38431E-002	-3.35228E-004	2.94418E-005	-3.42280E-003	-3.02644E-003	1.54011E-004	2.17022E-004	-3.98276E-003	2.48586E-004
	41	41	4.98682E-002	-5.58720E-003	0.00000E+000	-2.78623E-004	-5.42660E-002	3.54189E-002	3.29392E+001	11	...........	5.90896E-002	-5.19139E-003	6.03613E-001	5.33848E-001	-2.71718E-002	-3.82772E-002	7.02453E-001	-4.38547E-002	-3.30145E-004	2.90053E-005	-3.37251E-003	-2.98271E-003	1.51814E-004	2.13862E-004	-3.92474E-003	2.45025E-004
	42	42	4.98680E-002	-5.48968E-003	0.00000E+000	-2.73759E-004	-5.32987E-002	3.54478E-002	3.18722E+001	11	...........	5.91565E-002	-5.15861E-003	6.03586E-001	5.33829E-001	-2.71799E-002	-3.82626E-002	7.02518E-001	-4.38357E-002	-3.24750E-004	2.83191E-005	-3.31349E-003	-2.93055E-003	1.49209E-004	2.10050E-004	-3.85660E-003	2.40644E-004
	43	43	4.98703E-002	-5.40156E-003	0.00000E+000	-2.69378E-004	-5.24180E-002	3.54030E-002	3.20815E+001	11	...........	5.90814E-002	-5.07000E-003	6.03378E-001	5.33833E-001	-2.71574E-002	-3.82693E-002	7.02455E-001	-4.37987E-002	-3.19132E-004	2.73859E-005	-3.25918E-003	-2.88353E-003	1.46692E-004	2.06714E-004	-3.79435E-003	2.36581E-004
	44	44	4.98686E-002	-5.34631E-003	0.00000E+000	-2.66613E-004	-5.18713E-002	3.54769E-002	3.22596E+001	11	...........	5.91756E-002	-5.14403E-003	6.03395E-001	5.33874E-001	-2.71536E-002	-3.82519E-002	7.02581E-001	-4.37911E-002	-3.16371E-004	2.75015E-005	-3.22593E-003	-2.85426E-003	1.45172E-004	2.04507E-004	-3.75621E-003	2.34121E-004
	45	45	4.98691E-002	-5.25643E-003	0.00000E+000	-2.62133E-004	-5.09887E-002	3.55088E-002	3.26915E+001	11	...........	5.92397E-002	-5.30403E-003	6.03407E-001	5.33803E-001	-2.71587E-002	-3.82412E-002	7.02481E-001	-4.38626E-002	-3.11389E-004	2.78802E-005	-3.17177E-003	-2.80590E-003	1.42758E-004	2.01012E-004	-3.69254E-003	2.30561E-004
	46	46	4.98694E-002	-5.20448E-003	0.00000E+000	-2.59544E-004	-5.04807E-002	3.54425E-002	3.20280E+001	11	...........	5.91644E-002	-5.30556E-003	6.03410E-001	5.33984E-001	-2.71565E-002	-3.82454E-002	7.02790E-001	-4.39583E-002	-3.07920E-004	2.76127E-005	-3.14044E-003	-2.77911E-003	1.41336E-004	1.99048E-004	-3.65766E-003	2.28780E-004
	47	47	4.98687E-002	-5.12433E-003	0.00000E+000	-2.55543E-004	-4.96813E-002	3.55094E-002	3.25347E+001	11	...........	5.92581E-002	-5.27708E-003	6.03524E-001	5.33944E-001	-2.71361E-002	-3.82450E-002	7.02745E-001	-4.39803E-002	-3.03658E-004	2.70415E-005	-3.09265E-003	-2.73610E-003	1.39054E-004	1.95980E-004	-3.60110E-003	2.25369E-004
	48	48	4.98697E-002	-5.06985E-003	0.00000E+000	-2.52832E-004	-4.91380E-002	3.54814E-002	3.25268E+001	11	...........	5.92217E-002	-5.26778E-003	6.03662E-001	5.33787E-001	-2.71428E-002	-3.82240E-002	7.02715E-001	-4.38978E-002	-3.00245E-004	2.67069E-005	-3.06048E-003	-2.70622E-003	1.37610E-004	1.93790E-004	-3.56266E-003	2.22555E-004
	49	48.5983	4.98689E-002	-5.05202E-003	0.00000E+000	-2.51939E-004	-4.89593E-002	3.55703E-002	3.27113E+001	11	...........	5.93719E-002	-5.19568E-003	6.03636E-001	5.33789E-001	-2.71678E-002	-3.82349E-002	7.02837E-001	-4.38853E-002	-2.99948E-004	2.62487E-005	-3.04958E-003	-2.69671E-003	1.37252E-004	1.93164E-004	-3.55075E-003	2.21710E-004
STARTTIMEOFFSET	QUANT	981481	Start Time Offset (s)
