EXPLAIN
TAG	PWR800_DISCHARGE
TITLE	LABEL	PWR Discharge	Test Identifier
DATE	LABEL	10/15/2022	Date
TIME	LABEL	13:22:38	Time
NOTES	NOTES	1	Notes...
	
PSTAT	PSTAT	REF3000-21114	Potentiostat
CAPACITY	QUANT	5.30000E-002	Capacity (A-hr)
CELLTYPE	SELECTOR	1	Cell Type
WORKINGCONNECTION	SELECTOR	0	Working Connection
MAXDISCHARGETIME	VARIABLEANDUNITS	7.20000E+003	s	2.00000E+000	hour(s)	Max Discharge Time
DISCHARGEMODE	MULTIPARAM	0	1.00000E-001	Discharge Mode	Constant Current	Amp(s)
VOLTAGEFINISH	TWOPARAM	T	5.00000E-003	7.20000E+003	Voltage Finish	I (A) <	Max Time(s)
SAMPLETIME	QUANT	1.00000E+000	Sample Period (s)
DISCHARGESTOPAT1	MULTIPARAM	1	5.00000E-002	Stop At 1	|Voltage| < Limit	V
DISCHARGESTOPAT2	MULTIPARAM	0	0.00000E+000	Stop At 2	None	N/A
AESELECTOR	AESELECTOR	0x1	T	Set Limits	AE Channels
AESBHCSELECTOR	TOGGLE	F	Save Both Half Cells
IRCOMP	TOGGLE	F	IR Measure
EOC	QUANT	0.5604376	Open Circuit (V)
SEQUENCER	TOGGLE	TRUE	Run as Sequence
PSTATMODEL	IQUANT	5	Pstat Model
PSTATSECTION	LABEL	REF3000-21114	Pstat Section
PSTATSERIALNO	LABEL	21114	Pstat Serial Number
CTRLMODE	IQUANT	0	Control Mode
ELECTROMETER	IQUANT	0	RE=0 or CS=1
IESTAB	IQUANT	0	I/E Stability
CASPEED	IQUANT	4	Control Amp Speed
CONVENTION	IQUANT	1	Current Convention
ICHRANGE	IQUANT	2	Ich Range
ICHRANGEMODE	TOGGLE	T	Ich Auto Range
ICHOFFSETENABLE	TOGGLE	F	Ich Offset Enable
ICHOFFSET	QUANT	0	Ich Offset (V)
ICHFILTER	IQUANT	1	Ich Filter
VCHRANGE	IQUANT	3	Vch Range
VCHRANGEMODE	TOGGLE	T	Vch Auto Range
VCHOFFSETENABLE	TOGGLE	F	Vch Offset Enable
VCHOFFSET	QUANT	0	Vch Offset (V)
VCHFILTER	IQUANT	1	Vch Filter
ACHRANGE	IQUANT	2	Ach Range
ACHOFFSETENABLE	TOGGLE	F	Ach Offset Enable
ACHOFFSET	QUANT	0	Ach Offset (V)
ACHFILTER	IQUANT	1	Ach Filter
IERANGELOWERLIMIT	IQUANT	9	I/E Range Lower Limit
IERANGEMODE	TOGGLE	F	I/E AutoRange
IERANGE	IQUANT	9	I/E Range
POSFEEDENABLE	TOGGLE	F	Positive Feedback IR Comp
POSFEEDRESISTANCE	QUANT	0	Positive Feedback Resistance (ohm)
ACHSELECT	IQUANT	1	Ach Select
SENSECABLEID	IQUANT	13	Sense Cable ID
PWRCABLEID	IQUANT	13	Power Cable ID
DCCALDATE	LABEL		DC Calibration Date
ACCALDATE	LABEL		AC Calibration Date
THERMOSELECT	IQUANT	1	Thermo Select
FRAMEWORKVERSION	LABEL	7.8.6	Framework Version
INSTRUMENTVERSION	LABEL	4.50	Instrument Version
COMPLIANCEVOLTAGE	IQUANT	0	Compliance Voltage
CURVE	TABLE	185
	Pt	T	Vf	Im	Vu	Pwr	Sig	Ach	Temp	IERange	Over	Vf1	Vf2	Vf3	Vf4	Vf5	Vf6	Vf7	Vf8	Pwr1	Pwr2	Pwr3	Pwr4	Pwr5	Pwr6	Pwr7	Pwr8
	#	s	V	A	V	W	V	V	deg C	#	bits	V	V	V	V	V	V	V	V	W	W	W	W	W	W	W	W
	0	1	3.22736E-001	-1.00081E-001	0.00000E+000	-3.22997E-002	-9.94000E-001	3.58776E-002	2.98397E+001	11	...........	5.96029E-002	-3.39194E-003	5.65205E-001	6.90175E-001	-3.06493E-002	-3.86304E-002	6.47126E-001	-4.24718E-002	-5.96511E-003	3.39469E-004	-5.65662E-002	-6.90733E-002	3.06741E-003	3.86616E-003	-6.47649E-002	4.25061E-003
	1	2	2.31487E-001	-1.00081E-001	0.00000E+000	-2.31675E-002	-9.94000E-001	3.58815E-002	2.88525E+001	11	...........	5.96397E-002	-3.38014E-003	5.64988E-001	6.90213E-001	-3.06694E-002	-3.86422E-002	6.47156E-001	-4.24235E-002	-5.96882E-003	3.38289E-004	-5.65448E-002	-6.90774E-002	3.06944E-003	3.86737E-003	-6.47683E-002	4.24580E-003
	2	3	1.58129E-001	-1.00082E-001	0.00000E+000	-1.58258E-002	-9.94000E-001	3.59125E-002	2.82502E+001	11	...........	5.96843E-002	-3.44111E-003	5.64980E-001	6.90192E-001	-3.07032E-002	-3.86619E-002	6.47291E-001	-4.25049E-002	-5.97332E-003	3.44393E-004	-5.65442E-002	-6.90757E-002	3.07283E-003	3.86936E-003	-6.47821E-002	4.25397E-003
	3	4	9.36543E-002	-1.00082E-001	0.00000E+000	-9.37311E-003	-9.94000E-001	3.57846E-002	2.72225E+001	11	...........	5.94707E-002	-3.52792E-003	5.64860E-001	6.90243E-001	-3.06912E-002	-3.86722E-002	6.47296E-001	-4.23856E-002	-5.95194E-003	3.53081E-004	-5.65323E-002	-6.90809E-002	3.07164E-003	3.87039E-003	-6.47826E-002	4.24203E-003
	4	4.27833	5.69868E-002	-1.00082E-001	0.00000E+000	-5.70336E-003	-9.94000E-001	3.57572E-002	2.67519E+001	11	...........	5.94351E-002	-3.48054E-003	5.64670E-001	6.90316E-001	-3.07250E-002	-3.86702E-002	6.47269E-001	-4.24750E-002	-5.94840E-003	3.48340E-004	-5.65134E-002	-6.90883E-002	3.07503E-003	3.87019E-003	-6.47801E-002	4.25099E-003
	5	5	4.95619E-002	-8.74895E-002	0.00000E+000	-4.33614E-003	-8.68794E-001	3.58820E-002	2.73697E+001	11	...........	5.96461E-002	-3.41763E-003	5.64761E-001	6.90164E-001	-3.06355E-002	-3.86917E-002	6.47271E-001	-4.23999E-002	-5.21840E-003	2.99007E-004	-4.94107E-002	-6.03821E-002	2.68028E-003	3.38511E-003	-5.66294E-002	3.70955E-003
	6	6	4.97434E-002	-6.93880E-002	0.00000E+000	-3.45160E-003	-6.88819E-001	3.60865E-002	2.85900E+001	11	...........	5.99821E-002	-3.45986E-003	5.65194E-001	6.90121E-001	-3.06560E-002	-3.87032E-002	6.47343E-001	-4.22983E-002	-4.16204E-003	2.40073E-004	-3.92177E-002	-4.78862E-002	2.12716E-003	2.68554E-003	-4.49179E-002	2.93500E-003
	7	7	4.98390E-002	-5.74758E-002	0.00000E+000	-2.86454E-003	-5.70374E-001	3.61285E-002	2.88453E+001	11	...........	6.00376E-002	-3.49653E-003	5.65142E-001	6.90071E-001	-3.06404E-002	-3.87099E-002	6.47496E-001	-4.22440E-002	-3.45071E-003	2.00966E-004	-3.24820E-002	-3.96624E-002	1.76108E-003	2.22488E-003	-3.72154E-002	2.42801E-003
	8	8	4.98844E-002	-5.02272E-002	0.00000E+000	-2.50555E-003	-4.98314E-001	3.61971E-002	2.93489E+001	11	...........	6.01624E-002	-3.65167E-003	5.64966E-001	6.90046E-001	-3.06526E-002	-3.87106E-002	6.47494E-001	-4.22812E-002	-3.02179E-003	1.83413E-004	-2.83767E-002	-3.46591E-002	1.53960E-003	1.94432E-003	-3.25218E-002	2.12367E-003
	9	9	4.99026E-002	-4.58579E-002	0.00000E+000	-2.28843E-003	-4.54863E-001	3.62248E-002	2.97632E+001	11	...........	6.02060E-002	-3.58125E-003	5.64770E-001	6.89911E-001	-3.06450E-002	-3.87115E-002	6.47326E-001	-4.22435E-002	-2.76092E-003	1.64229E-004	-2.58992E-002	-3.16379E-002	1.40532E-003	1.77523E-003	-2.96850E-002	1.93720E-003
	10	10	4.99241E-002	-4.27964E-002	0.00000E+000	-2.13657E-003	-4.24428E-001	3.62701E-002	2.96520E+001	11	...........	6.02685E-002	-3.52847E-003	5.64817E-001	6.89923E-001	-3.06254E-002	-3.86985E-002	6.47213E-001	-4.23315E-002	-2.57927E-003	1.51006E-004	-2.41721E-002	-2.95262E-002	1.31066E-003	1.65615E-003	-2.76984E-002	1.81164E-003
	11	11	4.99350E-002	-4.06502E-002	0.00000E+000	-2.02987E-003	-4.03101E-001	3.63957E-002	3.01959E+001	11	...........	6.04700E-002	-3.64264E-003	5.64846E-001	6.89974E-001	-3.06160E-002	-3.86972E-002	6.47174E-001	-4.23337E-002	-2.45812E-003	1.48074E-004	-2.29611E-002	-2.80476E-002	1.24455E-003	1.57305E-003	-2.63078E-002	1.72088E-003
	12	12	4.99322E-002	-3.87234E-002	0.00000E+000	-1.93354E-003	-3.83948E-001	3.63337E-002	3.02628E+001	11	...........	6.03737E-002	-3.60292E-003	5.64814E-001	6.89909E-001	-3.06369E-002	-3.86732E-002	6.47193E-001	-4.21964E-002	-2.33788E-003	1.39517E-004	-2.18715E-002	-2.67156E-002	1.18637E-003	1.49756E-003	-2.50615E-002	1.63399E-003
	13	13	4.99381E-002	-3.71868E-002	0.00000E+000	-1.85704E-003	-3.68655E-001	3.63840E-002	2.96606E+001	11	...........	6.04690E-002	-3.55708E-003	5.64703E-001	6.90007E-001	-3.06439E-002	-3.86850E-002	6.47272E-001	-4.21854E-002	-2.24865E-003	1.32276E-004	-2.09995E-002	-2.56592E-002	1.13955E-003	1.43857E-003	-2.40700E-002	1.56874E-003
	14	14	4.99513E-002	-3.62674E-002	0.00000E+000	-1.81160E-003	-3.59519E-001	3.65056E-002	3.09299E+001	11	...........	6.06722E-002	-3.56597E-003	5.64697E-001	6.90032E-001	-3.06260E-002	-3.87040E-002	6.47276E-001	-4.21728E-002	-2.20043E-003	1.29329E-004	-2.04801E-002	-2.50257E-002	1.11073E-003	1.40370E-003	-2.34750E-002	1.52950E-003
	15	15	4.99456E-002	-3.56462E-002	0.00000E+000	-1.78037E-003	-3.53333E-001	3.65258E-002	3.05695E+001	11	...........	6.07186E-002	-3.72778E-003	5.64861E-001	6.90081E-001	-3.06429E-002	-3.86993E-002	6.47244E-001	-4.21690E-002	-2.16439E-003	1.32881E-004	-2.01351E-002	-2.45987E-002	1.09230E-003	1.37948E-003	-2.30718E-002	1.50316E-003
	16	16	4.99434E-002	-3.43939E-002	0.00000E+000	-1.71775E-003	-3.40879E-001	3.65379E-002	3.09579E+001	11	...........	6.07246E-002	-3.64139E-003	5.64860E-001	6.90206E-001	-3.06231E-002	-3.86892E-002	6.47241E-001	-4.22229E-002	-2.08855E-003	1.25241E-004	-1.94277E-002	-2.37388E-002	1.05324E-003	1.33067E-003	-2.22611E-002	1.45221E-003
	17	17	4.99498E-002	-3.37343E-002	0.00000E+000	-1.68502E-003	-3.34323E-001	3.66124E-002	3.04155E+001	11	...........	6.08410E-002	-3.61611E-003	5.64828E-001	6.90303E-001	-3.05908E-002	-3.86644E-002	6.47130E-001	-4.23662E-002	-2.05243E-003	1.21987E-004	-1.90541E-002	-2.32869E-002	1.03196E-003	1.30432E-003	-2.18305E-002	1.42920E-003
	18	18	4.99480E-002	-3.29289E-002	0.00000E+000	-1.64473E-003	-3.26314E-001	3.65172E-002	3.04820E+001	11	...........	6.06751E-002	-3.53806E-003	5.64856E-001	6.90530E-001	-3.06035E-002	-3.86354E-002	6.47083E-001	-4.23869E-002	-1.99797E-003	1.16504E-004	-1.86001E-002	-2.27384E-002	1.00774E-003	1.27222E-003	-2.13078E-002	1.39576E-003
	19	19	4.99478E-002	-3.26442E-002	0.00000E+000	-1.63051E-003	-3.23473E-001	3.67002E-002	3.09687E+001	11	...........	6.09647E-002	-3.53889E-003	5.64969E-001	6.90589E-001	-3.05812E-002	-3.86535E-002	6.47082E-001	-4.22815E-002	-1.99014E-003	1.15524E-004	-1.84430E-002	-2.25437E-002	9.98300E-004	1.26181E-003	-2.11235E-002	1.38025E-003
	20	20	4.99459E-002	-3.20634E-002	0.00000E+000	-1.60143E-003	-3.17693E-001	3.66057E-002	3.06007E+001	11	...........	6.09649E-002	-3.49389E-003	5.65062E-001	6.90632E-001	-3.05792E-002	-3.86461E-002	6.47118E-001	-4.23411E-002	-1.95474E-003	1.12026E-004	-1.81178E-002	-2.21440E-002	9.80472E-004	1.23913E-003	-2.07488E-002	1.35760E-003
	21	21	4.99539E-002	-3.14830E-002	0.00000E+000	-1.57270E-003	-3.11933E-001	3.65322E-002	3.11248E+001	11	...........	6.09631E-002	-3.55056E-003	5.65280E-001	6.90661E-001	-3.05890E-002	-3.86465E-002	6.47158E-001	-4.23142E-002	-1.91930E-003	1.11782E-004	-1.77967E-002	-2.17441E-002	9.63035E-004	1.21671E-003	-2.03745E-002	1.33218E-003
	22	22	4.99532E-002	-3.10251E-002	0.00000E+000	-1.54980E-003	-3.07400E-001	3.66328E-002	3.11059E+001	11	...........	6.11447E-002	-3.71222E-003	5.65481E-001	6.90689E-001	-3.05832E-002	-3.86521E-002	6.47297E-001	-4.21847E-002	-1.89702E-003	1.15172E-004	-1.75441E-002	-2.14287E-002	9.48846E-004	1.19918E-003	-2.00824E-002	1.30878E-003
	23	23	4.99462E-002	-3.03101E-002	0.00000E+000	-1.51387E-003	-3.00300E-001	3.64919E-002	3.09831E+001	11	...........	6.09035E-002	-3.54639E-003	5.65413E-001	6.90509E-001	-3.05739E-002	-3.86789E-002	6.47323E-001	-4.21697E-002	-1.84599E-003	1.07491E-004	-1.71377E-002	-2.09294E-002	9.26698E-004	1.17236E-003	-1.96204E-002	1.27817E-003
	24	24	4.99548E-002	-3.02249E-002	0.00000E+000	-1.50988E-003	-2.99450E-001	3.66600E-002	3.10111E+001	11	...........	6.12025E-002	-3.50347E-003	5.65344E-001	6.90352E-001	-3.06006E-002	-3.87068E-002	6.47344E-001	-4.22911E-002	-1.84984E-003	1.05892E-004	-1.70875E-002	-2.08658E-002	9.24897E-004	1.16991E-003	-1.95659E-002	1.27824E-003
	25	25	4.99537E-002	-2.98506E-002	0.00000E+000	-1.49115E-003	-2.95714E-001	3.67137E-002	3.17012E+001	11	...........	6.12954E-002	-3.57139E-003	5.65451E-001	6.90222E-001	-3.05894E-002	-3.87039E-002	6.47187E-001	-4.24082E-002	-1.82971E-003	1.06608E-004	-1.68791E-002	-2.06035E-002	9.13113E-004	1.15533E-003	-1.93189E-002	1.26591E-003
	26	26	4.99470E-002	-2.93873E-002	0.00000E+000	-1.46781E-003	-2.91119E-001	3.66399E-002	3.12858E+001	11	...........	6.11337E-002	-3.56792E-003	5.65538E-001	6.90324E-001	-3.05629E-002	-3.86999E-002	6.47046E-001	-4.23536E-002	-1.79656E-003	1.04852E-004	-1.66196E-002	-2.02868E-002	8.98163E-004	1.13729E-003	-1.90150E-002	1.24466E-003
	27	27	4.99494E-002	-2.88249E-002	0.00000E+000	-1.43979E-003	-2.85529E-001	3.67692E-002	3.09636E+001	11	...........	6.13671E-002	-3.51361E-003	5.65329E-001	6.90262E-001	-3.05481E-002	-3.87157E-002	6.47059E-001	-4.22126E-002	-1.76890E-003	1.01280E-004	-1.62956E-002	-1.98967E-002	8.80545E-004	1.11598E-003	-1.86514E-002	1.21678E-003
	28	28	4.99520E-002	-2.82277E-002	0.00000E+000	-1.41003E-003	-2.79592E-001	3.66537E-002	3.10220E+001	11	...........	6.11685E-002	-3.44333E-003	5.65257E-001	6.90226E-001	-3.05718E-002	-3.87117E-002	6.46949E-001	-4.22718E-002	-1.72665E-003	9.71974E-005	-1.59559E-002	-1.94835E-002	8.62972E-004	1.09274E-003	-1.82619E-002	1.19324E-003
	29	29	4.99583E-002	-2.81995E-002	0.00000E+000	-1.40880E-003	-2.79318E-001	3.67828E-002	3.14967E+001	11	...........	6.13881E-002	-3.56819E-003	5.65404E-001	6.90402E-001	-3.05958E-002	-3.87067E-002	6.46887E-001	-4.24654E-002	-1.73111E-003	1.00621E-004	-1.59441E-002	-1.94690E-002	8.62787E-004	1.09151E-003	-1.82419E-002	1.19750E-003
	30	30	4.99449E-002	-2.76127E-002	0.00000E+000	-1.37912E-003	-2.73471E-001	3.67796E-002	3.10824E+001	11	...........	6.13776E-002	-3.52111E-003	5.65491E-001	6.90426E-001	-3.05854E-002	-3.86972E-002	6.46928E-001	-4.24178E-002	-1.69480E-003	9.72275E-005	-1.56147E-002	-1.90645E-002	8.44547E-004	1.06854E-003	-1.78635E-002	1.17127E-003
	31	31	4.99474E-002	-2.71704E-002	0.00000E+000	-1.35709E-003	-2.69066E-001	3.67821E-002	3.06766E+001	11	...........	6.13836E-002	-3.56056E-003	5.65659E-001	6.90423E-001	-3.05771E-002	-3.86844E-002	6.46931E-001	-4.23418E-002	-1.66782E-003	9.67418E-005	-1.53692E-002	-1.87591E-002	8.30792E-004	1.05107E-003	-1.75774E-002	1.15044E-003
	32	32	4.99614E-002	-2.69345E-002	0.00000E+000	-1.34568E-003	-2.66738E-001	3.69068E-002	3.14750E+001	11	...........	6.15929E-002	-3.65528E-003	5.65681E-001	6.90430E-001	-3.05632E-002	-3.86843E-002	6.46929E-001	-4.24161E-002	-1.65897E-003	9.84531E-005	-1.52363E-002	-1.85964E-002	8.23205E-004	1.04194E-003	-1.74247E-002	1.14246E-003
	33	33	4.99522E-002	-2.64769E-002	0.00000E+000	-1.32258E-003	-2.62180E-001	3.67412E-002	3.11700E+001	11	...........	6.13153E-002	-3.62236E-003	5.65764E-001	6.90356E-001	-3.05579E-002	-3.87131E-002	6.46927E-001	-4.24137E-002	-1.62344E-003	9.59090E-005	-1.49797E-002	-1.82785E-002	8.09080E-004	1.02500E-003	-1.71286E-002	1.12299E-003
	34	34	4.99520E-002	-2.61448E-002	0.00000E+000	-1.30598E-003	-2.58872E-001	3.69881E-002	3.12876E+001	11	...........	6.17354E-002	-3.65250E-003	5.65784E-001	6.90408E-001	-3.05536E-002	-3.87506E-002	6.46911E-001	-4.23744E-002	-1.61406E-003	9.54938E-005	-1.47923E-002	-1.80506E-002	7.98818E-004	1.01313E-003	-1.69133E-002	1.10787E-003
	35	35	4.99499E-002	-2.58004E-002	0.00000E+000	-1.28873E-003	-2.55453E-001	3.67914E-002	3.11877E+001	11	...........	6.14056E-002	-3.60806E-003	5.65695E-001	6.90366E-001	-3.05349E-002	-3.87825E-002	6.47028E-001	-4.23918E-002	-1.58429E-003	9.30893E-005	-1.45952E-002	-1.78117E-002	7.87812E-004	1.00060E-003	-1.66936E-002	1.09373E-003
	36	36	4.99477E-002	-2.55961E-002	0.00000E+000	-1.27847E-003	-2.53420E-001	3.70044E-002	3.16069E+001	11	...........	6.17647E-002	-3.47472E-003	5.65669E-001	6.90256E-001	-3.05364E-002	-3.88047E-002	6.47017E-001	-4.23969E-002	-1.58093E-003	8.89393E-005	-1.44789E-002	-1.76678E-002	7.81612E-004	9.93249E-004	-1.65611E-002	1.08520E-003
	37	37	4.99592E-002	-2.53107E-002	0.00000E+000	-1.26450E-003	-2.50575E-001	3.69719E-002	3.19035E+001	11	...........	6.17133E-002	-3.43611E-003	5.65696E-001	6.90245E-001	-3.05319E-002	-3.88171E-002	6.47019E-001	-4.24533E-002	-1.56201E-003	8.69704E-005	-1.43182E-002	-1.74706E-002	7.72785E-004	9.82487E-004	-1.63765E-002	1.07452E-003
	38	38	4.99536E-002	-2.49180E-002	0.00000E+000	-1.24474E-003	-2.46665E-001	3.68599E-002	3.16469E+001	11	...........	6.15224E-002	-3.55597E-003	5.65847E-001	6.90315E-001	-3.05524E-002	-3.87954E-002	6.47040E-001	-4.24729E-002	-1.53301E-003	8.86075E-005	-1.40998E-002	-1.72012E-002	7.61302E-004	9.66702E-004	-1.61229E-002	1.05834E-003
	39	39	4.99520E-002	-2.49216E-002	0.00000E+000	-1.24488E-003	-2.46700E-001	3.70773E-002	3.16427E+001	11	...........	6.18850E-002	-3.52931E-003	5.65845E-001	6.90144E-001	-3.05749E-002	-3.87528E-002	6.47130E-001	-4.24185E-002	-1.54227E-003	8.79558E-005	-1.41017E-002	-1.71995E-002	7.61974E-004	9.65780E-004	-1.61275E-002	1.05713E-003
	40	40	4.99555E-002	-2.45609E-002	0.00000E+000	-1.22695E-003	-2.43119E-001	3.69264E-002	3.18061E+001	11	...........	6.16365E-002	-3.51667E-003	5.65847E-001	6.90158E-001	-3.05744E-002	-3.87489E-002	6.47047E-001	-4.23746E-002	-1.51385E-003	8.63724E-005	-1.38977E-002	-1.69509E-002	7.50935E-004	9.51707E-004	-1.58920E-002	1.04076E-003
	41	41	4.99518E-002	-2.42096E-002	0.00000E+000	-1.20931E-003	-2.39635E-001	3.69415E-002	3.13685E+001	11	...........	6.16718E-002	-3.58500E-003	5.65724E-001	6.90276E-001	-3.05646E-002	-3.87590E-002	6.47022E-001	-4.23517E-002	-1.49305E-003	8.67915E-005	-1.36960E-002	-1.67113E-002	7.39957E-004	9.38341E-004	-1.56642E-002	1.02532E-003
	42	42	4.99571E-002	-2.40887E-002	0.00000E+000	-1.20340E-003	-2.38429E-001	3.70468E-002	3.21235E+001	11	...........	6.18296E-002	-3.57847E-003	5.65739E-001	6.90282E-001	-3.05461E-002	-3.87537E-002	6.47094E-001	-4.23054E-002	-1.48939E-003	8.62006E-005	-1.36279E-002	-1.66280E-002	7.35815E-004	9.33526E-004	-1.55876E-002	1.01908E-003
	43	43	4.99457E-002	-2.35866E-002	0.00000E+000	-1.17805E-003	-2.33435E-001	3.69624E-002	3.19410E+001	11	...........	6.16999E-002	-3.58542E-003	5.65902E-001	6.90204E-001	-3.05347E-002	-3.87531E-002	6.47024E-001	-4.23187E-002	-1.45529E-003	8.45679E-005	-1.33477E-002	-1.62796E-002	7.20211E-004	9.14054E-004	-1.52611E-002	9.98157E-004
	44	44	4.99517E-002	-2.31773E-002	0.00000E+000	-1.15774E-003	-2.29370E-001	3.70890E-002	3.14805E+001	11	...........	6.19201E-002	-3.66569E-003	5.65705E-001	6.90124E-001	-3.05196E-002	-3.87589E-002	6.47005E-001	-4.22765E-002	-1.43514E-003	8.49608E-005	-1.31115E-002	-1.59952E-002	7.07361E-004	8.98325E-004	-1.49958E-002	9.79854E-004
	45	45	4.99594E-002	-2.30513E-002	0.00000E+000	-1.15163E-003	-2.28121E-001	3.71398E-002	3.19007E+001	11	...........	6.19953E-002	-3.70347E-003	5.65498E-001	6.90044E-001	-3.05367E-002	-3.87957E-002	6.47005E-001	-4.24106E-002	-1.42907E-003	8.53697E-005	-1.30354E-002	-1.59064E-002	7.03908E-004	8.94289E-004	-1.49143E-002	9.77616E-004
	46	46	4.99528E-002	-2.27089E-002	0.00000E+000	-1.13437E-003	-2.24711E-001	3.70594E-002	3.23060E+001	11	...........	6.18425E-002	-3.53583E-003	5.65466E-001	6.89999E-001	-3.05490E-002	-3.88165E-002	6.46987E-001	-4.24082E-002	-1.40438E-003	8.02950E-005	-1.28411E-002	-1.56691E-002	6.93736E-004	8.81482E-004	-1.46924E-002	9.63045E-004
	47	47	4.99469E-002	-2.23936E-002	0.00000E+000	-1.11849E-003	-2.21562E-001	3.71041E-002	3.21648E+001	11	...........	6.19165E-002	-3.41000E-003	5.65447E-001	6.90092E-001	-3.05078E-002	-3.88100E-002	6.46993E-001	-4.24543E-002	-1.38654E-003	7.63622E-005	-1.26624E-002	-1.54537E-002	6.83180E-004	8.69096E-004	-1.44885E-002	9.50705E-004
	48	48	4.99507E-002	-2.19289E-002	0.00000E+000	-1.09536E-003	-2.16942E-001	3.70958E-002	3.11428E+001	11	...........	6.19201E-002	-3.44319E-003	5.65334E-001	6.90082E-001	-3.05278E-002	-3.88060E-002	6.46972E-001	-4.23819E-002	-1.35784E-003	7.55053E-005	-1.23971E-002	-1.51327E-002	6.69439E-004	8.50971E-004	-1.41874E-002	9.29388E-004
	49	49	4.99633E-002	-2.17599E-002	0.00000E+000	-1.08719E-003	-2.15272E-001	3.72286E-002	3.20855E+001	11	...........	6.21262E-002	-3.40319E-003	5.65205E-001	6.90091E-001	-3.05446E-002	-3.87993E-002	6.47018E-001	-4.22461E-002	-1.35186E-003	7.40530E-005	-1.22988E-002	-1.50163E-002	6.64646E-004	8.44267E-004	-1.40790E-002	9.19269E-004
	50	50	4.99511E-002	-2.16258E-002	0.00000E+000	-1.08023E-003	-2.13940E-001	3.70874E-002	3.21597E+001	11	...........	6.19126E-002	-3.54028E-003	5.65127E-001	6.90035E-001	-3.05274E-002	-3.87933E-002	6.47024E-001	-4.23637E-002	-1.33891E-003	7.65614E-005	-1.22213E-002	-1.49226E-002	6.60179E-004	8.38938E-004	-1.39924E-002	9.16151E-004
	51	51	4.99517E-002	-2.13960E-002	0.00000E+000	-1.06877E-003	-2.11647E-001	3.72138E-002	3.17856E+001	11	...........	6.21106E-002	-3.46597E-003	5.65234E-001	6.90108E-001	-3.05065E-002	-3.87911E-002	6.46998E-001	-4.22635E-002	-1.32892E-003	7.41580E-005	-1.20938E-002	-1.47656E-002	6.52719E-004	8.29976E-004	-1.38432E-002	9.04271E-004
	52	52	4.99519E-002	-2.09681E-002	0.00000E+000	-1.04740E-003	-2.07394E-001	3.71530E-002	3.23784E+001	11	...........	6.20151E-002	-3.34583E-003	5.65208E-001	6.90039E-001	-3.05064E-002	-3.87636E-002	6.47069E-001	-4.21878E-002	-1.30034E-003	7.01558E-005	-1.18513E-002	-1.44688E-002	6.39661E-004	8.12799E-004	-1.35678E-002	8.84598E-004
	53	53	4.99547E-002	-2.08215E-002	0.00000E+000	-1.04013E-003	-2.05937E-001	3.71362E-002	3.14490E+001	11	...........	6.19793E-002	-3.34722E-003	5.65294E-001	6.89987E-001	-3.05121E-002	-3.87571E-002	6.47139E-001	-4.22522E-002	-1.29050E-003	6.96941E-005	-1.17703E-002	-1.43666E-002	6.35307E-004	8.06980E-004	-1.34744E-002	8.79754E-004
	54	54	4.99551E-002	-2.05975E-002	0.00000E+000	-1.02895E-003	-2.03724E-001	3.71945E-002	3.24295E+001	11	...........	6.20754E-002	-3.32292E-003	5.65427E-001	6.90013E-001	-3.05324E-002	-3.87407E-002	6.47103E-001	-4.23296E-002	-1.27860E-003	6.84439E-005	-1.16464E-002	-1.42126E-002	6.28891E-004	7.97962E-004	-1.33287E-002	8.71885E-004
	55	55	4.99502E-002	-2.04298E-002	0.00000E+000	-1.02047E-003	-2.02058E-001	3.72630E-002	3.21871E+001	11	...........	6.21640E-002	-3.41375E-003	5.65452E-001	6.90009E-001	-3.05383E-002	-3.87350E-002	6.47025E-001	-4.22769E-002	-1.27000E-003	6.97422E-005	-1.15521E-002	-1.40967E-002	6.23892E-004	7.91348E-004	-1.32186E-002	8.63709E-004
	56	56	4.99498E-002	-2.00755E-002	0.00000E+000	-1.00277E-003	-1.98524E-001	3.72617E-002	3.20295E+001	11	...........	6.22065E-002	-3.40306E-003	5.65472E-001	6.89923E-001	-3.05453E-002	-3.87458E-002	6.46960E-001	-4.22856E-002	-1.24883E-003	6.83181E-005	-1.13521E-002	-1.38506E-002	6.13212E-004	7.77843E-004	-1.29881E-002	8.48904E-004
	57	57	4.99605E-002	-1.96341E-002	0.00000E+000	-9.80931E-004	-1.94126E-001	3.70996E-002	3.19675E+001	11	...........	6.19133E-002	-3.37819E-003	5.65400E-001	6.89780E-001	-3.05672E-002	-3.87519E-002	6.47034E-001	-4.23626E-002	-1.21561E-003	6.63279E-005	-1.11011E-002	-1.35432E-002	6.00161E-004	7.60861E-004	-1.27040E-002	8.31754E-004
	58	58	4.99513E-002	-1.96997E-002	0.00000E+000	-9.84027E-004	-1.94784E-001	3.72862E-002	3.20401E+001	11	...........	6.22289E-002	-3.35083E-003	5.65528E-001	6.89683E-001	-3.05686E-002	-3.87742E-002	6.47095E-001	-4.22608E-002	-1.22589E-003	6.60105E-005	-1.11408E-002	-1.35866E-002	6.02194E-004	7.63841E-004	-1.27476E-002	8.32527E-004
	59	59	4.99576E-002	-1.94955E-002	0.00000E+000	-9.73947E-004	-1.92742E-001	3.72976E-002	3.27533E+001	11	...........	6.22468E-002	-3.49556E-003	5.65439E-001	6.89620E-001	-3.05510E-002	-3.87617E-002	6.47054E-001	-4.22810E-002	-1.21353E-003	6.81474E-005	-1.10235E-002	-1.34445E-002	5.95605E-004	7.55676E-004	-1.26146E-002	8.24287E-004
	60	60	4.99521E-002	-1.91466E-002	0.00000E+000	-9.56412E-004	-1.89295E-001	3.72537E-002	3.25127E+001	11	...........	6.21699E-002	-3.56861E-003	5.65378E-001	6.89551E-001	-3.05489E-002	-3.87435E-002	6.46998E-001	-4.24443E-002	-1.19034E-003	6.83267E-005	-1.08251E-002	-1.32025E-002	5.84907E-004	7.41805E-004	-1.23878E-002	8.12663E-004
	61	61	4.99491E-002	-1.87390E-002	0.00000E+000	-9.35998E-004	-1.85235E-001	3.73389E-002	3.16657E+001	11	...........	6.23082E-002	-3.49111E-003	5.65255E-001	6.89487E-001	-3.05237E-002	-3.87614E-002	6.47120E-001	-4.23992E-002	-1.16760E-003	6.54200E-005	-1.05923E-002	-1.29203E-002	5.71986E-004	7.26351E-004	-1.21264E-002	7.94519E-004
	62	62	4.99534E-002	-1.84818E-002	0.00000E+000	-9.23230E-004	-1.82673E-001	3.72382E-002	3.15575E+001	11	...........	6.21422E-002	-3.64778E-003	5.65243E-001	6.89436E-001	-3.05174E-002	-3.87406E-002	6.47191E-001	-4.23317E-002	-1.14850E-003	6.74176E-005	-1.04467E-002	-1.27420E-002	5.64017E-004	7.15997E-004	-1.19613E-002	7.82367E-004
	63	63	4.99612E-002	-1.84118E-002	0.00000E+000	-9.19875E-004	-1.81975E-001	3.73750E-002	3.21042E+001	11	...........	6.23762E-002	-3.59083E-003	5.65340E-001	6.89281E-001	-3.04925E-002	-3.87443E-002	6.47044E-001	-4.24618E-002	-1.14846E-003	6.61137E-005	-1.04089E-002	-1.26909E-002	5.61422E-004	7.13352E-004	-1.19132E-002	7.81798E-004
	64	64	4.99524E-002	-1.81430E-002	0.00000E+000	-9.06288E-004	-1.79303E-001	3.73368E-002	3.21233E+001	11	...........	6.23106E-002	-3.55986E-003	5.65473E-001	6.89165E-001	-3.04904E-002	-3.87475E-002	6.47015E-001	-4.24306E-002	-1.13050E-003	6.45866E-005	-1.02594E-002	-1.25035E-002	5.53188E-004	7.02997E-004	-1.17388E-002	7.69818E-004
	65	65	4.99545E-002	-1.79049E-002	0.00000E+000	-8.94429E-004	-1.76951E-001	3.73365E-002	3.22907E+001	11	...........	6.23226E-002	-3.63472E-003	5.65563E-001	6.89406E-001	-3.05182E-002	-3.87375E-002	6.46891E-001	-4.23326E-002	-1.11588E-003	6.50793E-005	-1.01263E-002	-1.23437E-002	5.46425E-004	6.93590E-004	-1.15825E-002	7.57961E-004
	66	66	4.99540E-002	-1.78315E-002	0.00000E+000	-8.90755E-004	-1.76215E-001	3.74244E-002	3.24707E+001	11	...........	6.24301E-002	-3.70611E-003	5.65600E-001	6.89512E-001	-3.05092E-002	-3.87219E-002	6.46941E-001	-4.22417E-002	-1.11322E-003	6.60855E-005	-1.00855E-002	-1.22950E-002	5.44024E-004	6.90470E-004	-1.15359E-002	7.53232E-004
	67	67	4.99523E-002	-1.75036E-002	0.00000E+000	-8.74345E-004	-1.72949E-001	3.73464E-002	3.24319E+001	11	...........	6.23201E-002	-3.56458E-003	5.65684E-001	6.89609E-001	-3.04949E-002	-3.86968E-002	6.46937E-001	-4.23765E-002	-1.09083E-003	6.23931E-005	-9.90153E-003	-1.20706E-002	5.33770E-004	6.77334E-004	-1.13237E-002	7.41743E-004
	68	68	4.99545E-002	-1.72709E-002	0.00000E+000	-8.62758E-004	-1.70625E-001	3.73280E-002	3.22303E+001	11	...........	6.22935E-002	-3.46333E-003	5.65751E-001	6.89782E-001	-3.04785E-002	-3.87019E-002	6.46982E-001	-4.23379E-002	-1.07586E-003	5.98147E-005	-9.77100E-003	-1.19131E-002	5.26389E-004	6.68416E-004	-1.11739E-002	7.31212E-004
	69	69	4.99542E-002	-1.71194E-002	0.00000E+000	-8.55187E-004	-1.69123E-001	3.73671E-002	3.20522E+001	11	...........	6.23364E-002	-3.52819E-003	5.65790E-001	6.89902E-001	-3.04972E-002	-3.86867E-002	6.46949E-001	-4.22618E-002	-1.06716E-003	6.04007E-005	-9.68600E-003	-1.18107E-002	5.22095E-004	6.62294E-004	-1.10754E-002	7.23498E-004
	70	70	4.99564E-002	-1.70449E-002	0.00000E+000	-8.51504E-004	-1.68374E-001	3.74623E-002	3.24736E+001	11	...........	6.25093E-002	-3.49722E-003	5.65896E-001	6.89918E-001	-3.04961E-002	-3.87204E-002	6.46941E-001	-4.23185E-002	-1.06547E-003	5.96099E-005	-9.64565E-003	-1.17596E-002	5.19804E-004	6.59987E-004	-1.10271E-002	7.21316E-004
	71	71	4.99531E-002	-1.67765E-002	0.00000E+000	-8.38039E-004	-1.65710E-001	3.73893E-002	3.29868E+001	11	...........	6.23989E-002	-3.43944E-003	5.65940E-001	6.89916E-001	-3.04954E-002	-3.87293E-002	6.46952E-001	-4.22624E-002	-1.04684E-003	5.77019E-005	-9.49449E-003	-1.15744E-002	5.11607E-004	6.49742E-004	-1.08536E-002	7.09015E-004
	72	72	4.99515E-002	-1.65281E-002	0.00000E+000	-8.25602E-004	-1.63252E-001	3.73827E-002	3.20319E+001	11	...........	6.23707E-002	-3.52375E-003	5.65928E-001	6.89948E-001	-3.04912E-002	-3.87443E-002	6.46952E-001	-4.21143E-002	-1.03087E-003	5.82408E-005	-9.35370E-003	-1.14035E-002	5.03961E-004	6.40369E-004	-1.06929E-002	6.96068E-004
	73	73	4.99571E-002	-1.63462E-002	0.00000E+000	-8.16608E-004	-1.61439E-001	3.74211E-002	3.25948E+001	11	...........	6.24683E-002	-3.44792E-003	5.65941E-001	6.89857E-001	-3.05014E-002	-3.87500E-002	6.46677E-001	-4.21550E-002	-1.02112E-003	5.63603E-005	-9.25098E-003	-1.12765E-002	4.98582E-004	6.33415E-004	-1.05707E-002	6.89074E-004
	74	74	4.99546E-002	-1.62216E-002	0.00000E+000	-8.10344E-004	-1.60195E-001	3.73809E-002	3.26769E+001	11	...........	6.23954E-002	-3.35486E-003	5.65993E-001	6.89647E-001	-3.04875E-002	-3.87358E-002	6.46901E-001	-4.23304E-002	-1.01215E-003	5.44213E-005	-9.18133E-003	-1.11872E-002	4.94557E-004	6.28358E-004	-1.04938E-002	6.86668E-004
	75	75	4.99488E-002	-1.59717E-002	0.00000E+000	-7.97768E-004	-1.57708E-001	3.74456E-002	3.23061E+001	11	...........	6.24953E-002	-3.56542E-003	5.65910E-001	6.89630E-001	-3.04789E-002	-3.87244E-002	6.46860E-001	-4.23869E-002	-9.98157E-004	5.69459E-005	-9.03856E-003	-1.10146E-002	4.86800E-004	6.18496E-004	-1.03315E-002	6.76993E-004
	76	76	4.99581E-002	-1.56495E-002	0.00000E+000	-7.81820E-004	-1.54502E-001	3.73939E-002	3.18069E+001	11	...........	6.24032E-002	-3.47542E-003	5.66012E-001	6.89528E-001	-3.04892E-002	-3.86915E-002	6.46869E-001	-4.23131E-002	-9.76580E-004	5.43886E-005	-8.85781E-003	-1.07908E-002	4.77141E-004	6.05504E-004	-1.01232E-002	6.62179E-004
	77	77	4.99578E-002	-1.56157E-002	0.00000E+000	-7.80126E-004	-1.54166E-001	3.74780E-002	3.27883E+001	11	...........	6.25475E-002	-3.51819E-003	5.65929E-001	6.89574E-001	-3.04842E-002	-3.86810E-002	6.47020E-001	-4.23011E-002	-9.76724E-004	5.49391E-005	-8.83739E-003	-1.07682E-002	4.76032E-004	6.04031E-004	-1.01037E-002	6.60562E-004
	78	78	4.99523E-002	-1.54886E-002	0.00000E+000	-7.73690E-004	-1.52909E-001	3.74395E-002	3.28014E+001	11	...........	6.24935E-002	-3.44486E-003	5.65738E-001	6.89913E-001	-3.04946E-002	-3.86549E-002	6.47096E-001	-4.22503E-002	-9.67935E-004	5.33560E-005	-8.76248E-003	-1.06858E-002	4.72318E-004	5.98709E-004	-1.00226E-002	6.54397E-004
	79	79	4.99562E-002	-1.52903E-002	0.00000E+000	-7.63846E-004	-1.50934E-001	3.75500E-002	3.27872E+001	11	...........	6.26712E-002	-3.49569E-003	5.65668E-001	6.89975E-001	-3.04993E-002	-3.86382E-002	6.47209E-001	-4.21787E-002	-9.58263E-004	5.34503E-005	-8.64924E-003	-1.05499E-002	4.66344E-004	5.90790E-004	-9.89604E-003	6.44927E-004
	80	80	4.99526E-002	-1.49951E-002	0.00000E+000	-7.49043E-004	-1.47993E-001	3.74337E-002	3.24900E+001	11	...........	6.24676E-002	-3.55444E-003	5.65720E-001	6.90051E-001	-3.05092E-002	-3.86224E-002	6.47024E-001	-4.22243E-002	-9.36706E-004	5.32991E-005	-8.48302E-003	-1.03474E-002	4.57487E-004	5.79145E-004	-9.70216E-003	6.33156E-004
	81	81	4.99567E-002	-1.49975E-002	0.00000E+000	-7.49224E-004	-1.48019E-001	3.75648E-002	3.28615E+001	11	...........	6.26972E-002	-3.44931E-003	5.65825E-001	6.89966E-001	-3.05272E-002	-3.86131E-002	6.46931E-001	-4.22242E-002	-9.40299E-004	5.17308E-005	-8.48595E-003	-1.03477E-002	4.57831E-004	5.79098E-004	-9.70233E-003	6.33256E-004
	82	82	4.99520E-002	-1.46822E-002	0.00000E+000	-7.33404E-004	-1.44877E-001	3.74271E-002	3.28849E+001	11	...........	6.24618E-002	-3.39639E-003	5.65989E-001	6.89856E-001	-3.05290E-002	-3.86189E-002	6.46937E-001	-4.22446E-002	-9.17074E-004	4.98663E-005	-8.30994E-003	-1.01286E-002	4.48232E-004	5.67008E-004	-9.49843E-003	6.20241E-004
	83	83	4.99546E-002	-1.44737E-002	0.00000E+000	-7.23031E-004	-1.42798E-001	3.75392E-002	3.22549E+001	11	...........	6.26389E-002	-3.48375E-003	5.66088E-001	6.89997E-001	-3.05725E-002	-3.86481E-002	6.46934E-001	-4.23694E-002	-9.06619E-004	5.04229E-005	-8.19341E-003	-9.98684E-003	4.42498E-004	5.59382E-004	-9.36356E-003	6.13244E-004
	84	84	4.99556E-002	-1.42959E-002	0.00000E+000	-7.14158E-004	-1.41029E-001	3.74820E-002	3.24558E+001	11	...........	6.25482E-002	-3.41889E-003	5.66054E-001	6.89980E-001	-3.05569E-002	-3.86453E-002	6.46923E-001	-4.23264E-002	-8.94181E-004	4.88760E-005	-8.09223E-003	-9.86386E-003	4.36838E-004	5.52468E-004	-9.24832E-003	6.05092E-004
	85	85	4.99546E-002	-1.42157E-002	0.00000E+000	-7.10138E-004	-1.40233E-001	3.75463E-002	3.34482E+001	11	...........	6.26614E-002	-3.42347E-003	5.66077E-001	6.89789E-001	-3.05368E-002	-3.86368E-002	6.46836E-001	-4.23093E-002	-8.90773E-004	4.86669E-005	-8.04716E-003	-9.80580E-003	4.34101E-004	5.49247E-004	-9.19520E-003	6.01454E-004
	86	86	4.99519E-002	-1.40782E-002	0.00000E+000	-7.03233E-004	-1.38881E-001	3.75676E-002	3.27752E+001	11	...........	6.26875E-002	-3.57056E-003	5.65935E-001	6.89758E-001	-3.05378E-002	-3.86432E-002	6.46748E-001	-4.23811E-002	-8.82528E-004	5.02670E-005	-7.96735E-003	-9.71056E-003	4.29917E-004	5.44027E-004	-9.10505E-003	5.96650E-004
	87	87	4.99577E-002	-1.38995E-002	0.00000E+000	-6.94385E-004	-1.37108E-001	3.76012E-002	3.28965E+001	11	...........	6.27317E-002	-3.65222E-003	5.65860E-001	6.89600E-001	-3.05062E-002	-3.86535E-002	6.46944E-001	-4.23808E-002	-8.71936E-004	5.07639E-005	-7.86514E-003	-9.58506E-003	4.24020E-004	5.37262E-004	-8.99217E-003	5.89070E-004
	88	88	4.99538E-002	-1.36938E-002	0.00000E+000	-6.84058E-004	-1.35058E-001	3.75105E-002	3.25329E+001	11	...........	6.25992E-002	-3.57111E-003	5.65814E-001	6.89528E-001	-3.05131E-002	-3.86347E-002	6.47025E-001	-4.24407E-002	-8.57221E-004	4.89021E-005	-7.74814E-003	-9.44227E-003	4.17840E-004	5.29056E-004	-8.86023E-003	5.81175E-004
	89	89	4.99553E-002	-1.35625E-002	0.00000E+000	-6.77517E-004	-1.33750E-001	3.75900E-002	3.33122E+001	11	...........	6.27343E-002	-3.56236E-003	5.65997E-001	6.89497E-001	-3.05147E-002	-3.86499E-002	6.46941E-001	-4.23939E-002	-8.50832E-004	4.83144E-005	-7.67631E-003	-9.35128E-003	4.13855E-004	5.24188E-004	-8.77412E-003	5.74966E-004
	90	90	4.99486E-002	-1.34443E-002	0.00000E+000	-6.71524E-004	-1.32571E-001	3.76530E-002	3.27041E+001	11	...........	6.28351E-002	-3.51028E-003	5.66117E-001	6.89294E-001	-3.05307E-002	-3.86376E-002	6.46849E-001	-4.22399E-002	-8.44774E-004	4.71932E-005	-7.61105E-003	-9.26708E-003	4.10464E-004	5.19456E-004	-8.69643E-003	5.67885E-004
	91	91	4.99605E-002	-1.32010E-002	0.00000E+000	-6.59530E-004	-1.30154E-001	3.75575E-002	3.26842E+001	11	...........	6.26871E-002	-3.52681E-003	5.66321E-001	6.89294E-001	-3.05361E-002	-3.86471E-002	6.46960E-001	-4.20922E-002	-8.27535E-004	4.65575E-005	-7.47603E-003	-9.09941E-003	4.03109E-004	5.10182E-004	-8.54054E-003	5.55661E-004
	92	92	4.99525E-002	-1.30983E-002	0.00000E+000	-6.54294E-004	-1.29135E-001	3.75963E-002	3.26739E+001	11	...........	6.27407E-002	-3.65167E-003	5.66236E-001	6.89370E-001	-3.05362E-002	-3.86506E-002	6.46872E-001	-4.22735E-002	-8.21799E-004	4.78307E-005	-7.41675E-003	-9.02960E-003	3.99974E-004	5.06258E-004	-8.47294E-003	5.53712E-004
	93	93	4.99578E-002	-1.30078E-002	0.00000E+000	-6.49843E-004	-1.28236E-001	3.76437E-002	3.29381E+001	11	...........	6.28254E-002	-3.74764E-003	5.66190E-001	6.89352E-001	-3.05246E-002	-3.86781E-002	6.46933E-001	-4.23501E-002	-8.17222E-004	4.87486E-005	-7.36490E-003	-8.96697E-003	3.97058E-004	5.03117E-004	-8.41519E-003	5.50883E-004
	94	94	4.99523E-002	-1.26868E-002	0.00000E+000	-6.33737E-004	-1.25047E-001	3.75070E-002	3.24555E+001	11	...........	6.26161E-002	-3.61889E-003	5.65976E-001	6.89331E-001	-3.04987E-002	-3.87331E-002	6.46811E-001	-4.23618E-002	-7.94400E-004	4.59122E-005	-7.18044E-003	-8.74542E-003	3.86933E-004	4.91400E-004	-8.20598E-003	5.37437E-004
	95	95	4.99575E-002	-1.26143E-002	0.00000E+000	-6.30179E-004	-1.24327E-001	3.76177E-002	3.26531E+001	11	...........	6.27565E-002	-3.59903E-003	5.65911E-001	6.89389E-001	-3.05015E-002	-3.87303E-002	6.46804E-001	-4.22407E-002	-7.91630E-004	4.53992E-005	-7.13858E-003	-8.69617E-003	3.84756E-004	4.88556E-004	-8.15899E-003	5.32837E-004
	96	96	4.99550E-002	-1.25502E-002	0.00000E+000	-6.26944E-004	-1.23690E-001	3.76601E-002	3.33941E+001	11	...........	6.28380E-002	-3.58444E-003	5.65908E-001	6.89560E-001	-3.05136E-002	-3.87340E-002	6.46825E-001	-4.23550E-002	-7.88628E-004	4.49854E-005	-7.10224E-003	-8.65409E-003	3.82951E-004	4.86119E-004	-8.11777E-003	5.31562E-004
	97	97	4.99520E-002	-1.23899E-002	0.00000E+000	-6.18902E-004	-1.22088E-001	3.76979E-002	3.28502E+001	11	...........	6.29122E-002	-3.64153E-003	5.65976E-001	6.89602E-001	-3.05268E-002	-3.87571E-002	6.46890E-001	-4.24457E-002	-7.79478E-004	4.51182E-005	-7.01240E-003	-8.54412E-003	3.78225E-004	4.80197E-004	-8.01491E-003	5.25899E-004
	98	98	4.99553E-002	-1.20940E-002	0.00000E+000	-6.04158E-004	-1.19144E-001	3.75937E-002	3.25771E+001	11	...........	6.27501E-002	-3.49653E-003	5.66018E-001	6.89597E-001	-3.05112E-002	-3.87567E-002	6.46836E-001	-4.22906E-002	-7.58898E-004	4.22869E-005	-6.84541E-003	-8.33996E-003	3.69002E-004	4.68722E-004	-7.82281E-003	5.11461E-004
	99	99	4.99581E-002	-1.20597E-002	0.00000E+000	-6.02481E-004	-1.18802E-001	3.75432E-002	3.30802E+001	11	...........	6.26596E-002	-3.44764E-003	5.65957E-001	6.89771E-001	-3.05151E-002	-3.87364E-002	6.46957E-001	-4.23276E-002	-7.55657E-004	4.15776E-005	-6.82529E-003	-8.31845E-003	3.68004E-004	4.67150E-004	-7.80212E-003	5.10459E-004
	100	100	4.99551E-002	-1.20220E-002	0.00000E+000	-6.00558E-004	-1.18426E-001	3.77260E-002	3.31690E+001	11	...........	6.29636E-002	-3.36806E-003	5.65872E-001	6.89662E-001	-3.05557E-002	-3.87099E-002	6.46809E-001	-4.24015E-002	-7.56946E-004	4.04906E-005	-6.80289E-003	-8.29110E-003	3.67339E-004	4.65369E-004	-7.77592E-003	5.09750E-004
	101	101	4.99540E-002	-1.17420E-002	0.00000E+000	-5.86562E-004	-1.15636E-001	3.75638E-002	3.29013E+001	11	...........	6.27010E-002	-3.31028E-003	5.65764E-001	6.89579E-001	-3.05614E-002	-3.87256E-002	6.46713E-001	-4.23626E-002	-7.36237E-004	3.88694E-005	-6.64322E-003	-8.09707E-003	3.58853E-004	4.54717E-004	-7.59374E-003	4.97424E-004
	102	102	4.99556E-002	-1.16155E-002	0.00000E+000	-5.80257E-004	-1.14382E-001	3.76059E-002	3.27198E+001	11	...........	6.27718E-002	-3.37333E-003	5.65556E-001	6.89598E-001	-3.05560E-002	-3.87256E-002	6.46821E-001	-4.24039E-002	-7.29123E-004	3.91828E-005	-6.56918E-003	-8.00999E-003	3.54921E-004	4.49815E-004	-7.51312E-003	4.92540E-004
	103	103	4.99554E-002	-1.16027E-002	0.00000E+000	-5.79618E-004	-1.14259E-001	3.77184E-002	3.34907E+001	11	...........	6.30922E-002	-3.44431E-003	5.65542E-001	6.89629E-001	-3.05744E-002	-3.87028E-002	6.46905E-001	-4.23828E-002	-7.32040E-004	3.99632E-005	-6.56181E-003	-8.00156E-003	3.54746E-004	4.49057E-004	-7.50584E-003	4.91755E-004
	104	104	4.99539E-002	-1.14269E-002	0.00000E+000	-5.70821E-004	-1.12522E-001	3.76425E-002	3.23717E+001	11	...........	6.28222E-002	-3.42861E-003	5.65709E-001	6.89766E-001	-3.05897E-002	-3.87215E-002	6.46955E-001	-4.22239E-002	-7.17866E-004	3.91786E-005	-6.46432E-003	-7.88192E-003	3.49547E-004	4.42469E-004	-7.39272E-003	4.82490E-004
	105	105	4.99549E-002	-1.11462E-002	0.00000E+000	-5.56805E-004	-1.09724E-001	3.76852E-002	3.27162E+001	11	...........	6.28872E-002	-3.55111E-003	5.65836E-001	6.89848E-001	-3.06274E-002	-3.87512E-002	6.46776E-001	-4.21883E-002	-7.00951E-004	3.95812E-005	-6.30690E-003	-7.68916E-003	3.41377E-004	4.31928E-004	-7.20906E-003	4.70238E-004
	106	106	4.99568E-002	-1.11471E-002	0.00000E+000	-5.56875E-004	-1.09732E-001	3.76981E-002	3.34870E+001	11	...........	6.29296E-002	-3.68944E-003	5.65796E-001	6.89895E-001	-3.06161E-002	-3.87365E-002	6.46874E-001	-4.22787E-002	-7.01484E-004	4.11267E-005	-6.30700E-003	-7.69035E-003	3.41282E-004	4.31801E-004	-7.21078E-003	4.71287E-004
	107	107	4.99550E-002	-1.10617E-002	0.00000E+000	-5.52584E-004	-1.08882E-001	3.76433E-002	3.30531E+001	11	...........	6.28317E-002	-3.49583E-003	5.65823E-001	6.90019E-001	-3.06151E-002	-3.87621E-002	6.46970E-001	-4.22331E-002	-6.95022E-004	3.86697E-005	-6.25894E-003	-7.63275E-003	3.38654E-004	4.28773E-004	-7.15655E-003	4.67167E-004
	108	108	4.99551E-002	-1.08542E-002	0.00000E+000	-5.42223E-004	-1.06815E-001	3.76922E-002	3.27046E+001	11	...........	6.29017E-002	-3.42333E-003	5.65732E-001	6.90045E-001	-3.06251E-002	-3.87411E-002	6.47112E-001	-4.22454E-002	-6.82747E-004	3.71576E-005	-6.14057E-003	-7.48988E-003	3.32411E-004	4.20504E-004	-7.02389E-003	4.58540E-004
	109	109	4.99553E-002	-1.07594E-002	0.00000E+000	-5.37491E-004	-1.05871E-001	3.77245E-002	3.29805E+001	11	...........	6.29587E-002	-3.50083E-003	5.65701E-001	6.90023E-001	-3.06539E-002	-3.87167E-002	6.47081E-001	-4.22350E-002	-6.77401E-004	3.76670E-005	-6.08662E-003	-7.42426E-003	3.29819E-004	4.16569E-004	-6.96223E-003	4.54425E-004
	110	110	4.99556E-002	-1.06638E-002	0.00000E+000	-5.32717E-004	-1.04916E-001	3.77077E-002	3.31084E+001	11	...........	6.29378E-002	-3.53625E-003	5.65731E-001	6.90110E-001	-3.06482E-002	-3.87025E-002	6.46927E-001	-4.21936E-002	-6.71156E-004	3.77099E-005	-6.03284E-003	-7.35920E-003	3.26826E-004	4.12716E-004	-6.89871E-003	4.49944E-004
	111	111	4.99539E-002	-1.05109E-002	0.00000E+000	-5.25062E-004	-1.03405E-001	3.77034E-002	3.33518E+001	11	...........	6.29410E-002	-3.48750E-003	5.65924E-001	6.90064E-001	-3.06632E-002	-3.87114E-002	6.46880E-001	-4.21490E-002	-6.61568E-004	3.66568E-005	-5.94838E-003	-7.25321E-003	3.22298E-004	4.06892E-004	-6.79930E-003	4.43025E-004
	112	112	4.99544E-002	-1.03840E-002	0.00000E+000	-5.18724E-004	-1.02170E-001	3.77946E-002	3.23833E+001	11	...........	6.30846E-002	-3.57583E-003	5.66163E-001	6.90010E-001	-3.06686E-002	-3.87235E-002	6.46897E-001	-4.22736E-002	-6.55068E-004	3.71313E-005	-5.87902E-003	-7.16504E-003	3.18462E-004	4.02103E-004	-6.71735E-003	4.38967E-004
	113	113	4.99572E-002	-1.01890E-002	0.00000E+000	-5.09014E-004	-1.00238E-001	3.76437E-002	3.28656E+001	11	...........	6.28315E-002	-3.57056E-003	5.66047E-001	6.90048E-001	-3.06567E-002	-3.87044E-002	6.46828E-001	-4.22667E-002	-6.40191E-004	3.63804E-005	-5.76745E-003	-7.03090E-003	3.12361E-004	3.94360E-004	-6.59053E-003	4.30655E-004
	114	114	4.99552E-002	-1.01493E-002	0.00000E+000	-5.07011E-004	-9.98377E-002	3.77862E-002	3.32158E+001	11	...........	6.30737E-002	-3.52847E-003	5.66042E-001	6.90050E-001	-3.06687E-002	-3.87168E-002	6.46820E-001	-4.22286E-002	-6.40155E-004	3.58116E-005	-5.74494E-003	-7.00353E-003	3.11267E-004	3.92949E-004	-6.56478E-003	4.28591E-004
	115	115	4.99543E-002	-9.96094E-003	0.00000E+000	-4.97592E-004	-9.79647E-002	3.76722E-002	3.24575E+001	11	...........	6.28607E-002	-3.36292E-003	5.66029E-001	6.90040E-001	-3.06318E-002	-3.87081E-002	6.46840E-001	-4.21751E-002	-6.26151E-004	3.34978E-005	-5.63818E-003	-6.87344E-003	3.05121E-004	3.85568E-004	-6.44313E-003	4.20104E-004
	116	116	4.99566E-002	-9.84070E-003	0.00000E+000	-4.91608E-004	-9.67677E-002	3.78724E-002	3.24515E+001	11	...........	6.32103E-002	-3.34042E-003	5.66088E-001	6.90116E-001	-3.06508E-002	-3.86903E-002	6.46820E-001	-4.22372E-002	-6.22034E-004	3.28720E-005	-5.57070E-003	-6.79123E-003	3.01626E-004	3.80740E-004	-6.36517E-003	4.15644E-004
	117	117	4.99556E-002	-9.74619E-003	0.00000E+000	-4.86877E-004	-9.58220E-002	3.76884E-002	3.32790E+001	11	...........	6.29114E-002	-3.41444E-003	5.65816E-001	6.90086E-001	-3.06458E-002	-3.86862E-002	6.46796E-001	-4.22799E-002	-6.13146E-004	3.32778E-005	-5.51455E-003	-6.72570E-003	2.98680E-004	3.77043E-004	-6.30379E-003	4.12067E-004
	118	118	4.99538E-002	-9.73203E-003	0.00000E+000	-4.86152E-004	-9.56807E-002	3.78547E-002	3.28905E+001	11	...........	6.31879E-002	-3.42306E-003	5.65912E-001	6.90089E-001	-3.06515E-002	-3.87042E-002	6.46701E-001	-4.23560E-002	-6.14947E-004	3.33133E-005	-5.50747E-003	-6.71596E-003	2.98302E-004	3.76670E-004	-6.29371E-003	4.12210E-004
	119	119	4.99555E-002	-9.60702E-003	0.00000E+000	-4.79924E-004	-9.44387E-002	3.78725E-002	3.31699E+001	11	...........	6.32022E-002	-3.36556E-003	5.66055E-001	6.90175E-001	-3.06187E-002	-3.86992E-002	6.46794E-001	-4.23160E-002	-6.07185E-004	3.23329E-005	-5.43810E-003	-6.63052E-003	2.94155E-004	3.71784E-004	-6.21376E-003	4.06530E-004
	120	120	4.99557E-002	-9.45128E-003	0.00000E+000	-4.72146E-004	-9.28843E-002	3.78203E-002	3.27902E+001	11	...........	6.31294E-002	-3.35597E-003	5.65946E-001	6.90238E-001	-3.06311E-002	-3.86818E-002	6.46708E-001	-4.22733E-002	-5.96654E-004	3.17182E-005	-5.34892E-003	-6.52363E-003	2.89503E-004	3.65593E-004	-6.11222E-003	3.99537E-004
	121	121	4.99556E-002	-9.27193E-003	0.00000E+000	-4.63185E-004	-9.10927E-002	3.76830E-002	3.26322E+001	11	...........	6.29043E-002	-3.47042E-003	5.65952E-001	6.90315E-001	-3.06168E-002	-3.86718E-002	6.46656E-001	-4.22165E-002	-5.83245E-004	3.21775E-005	-5.24747E-003	-6.40055E-003	2.83877E-004	3.58562E-004	-5.99576E-003	3.91429E-004
	122	122	4.99561E-002	-9.28748E-003	0.00000E+000	-4.63966E-004	-9.12473E-002	3.78571E-002	3.29542E+001	11	...........	6.31861E-002	-3.48819E-003	5.65852E-001	6.90276E-001	-3.06196E-002	-3.86942E-002	6.46668E-001	-4.22142E-002	-5.86840E-004	3.23965E-005	-5.25534E-003	-6.41092E-003	2.84379E-004	3.59371E-004	-6.00592E-003	3.92063E-004
	123	123	4.99553E-002	-9.23311E-003	0.00000E+000	-4.61242E-004	-9.07123E-002	3.78647E-002	3.35164E+001	11	...........	6.31996E-002	-3.57417E-003	5.65658E-001	6.90269E-001	-3.06126E-002	-3.86912E-002	6.46636E-001	-4.20847E-002	-5.83528E-004	3.30007E-005	-5.22278E-003	-6.37333E-003	2.82650E-004	3.57240E-004	-5.97046E-003	3.88573E-004
	124	124	4.99551E-002	-9.12375E-003	0.00000E+000	-4.55778E-004	-8.96197E-002	3.78477E-002	3.31417E+001	11	...........	6.31767E-002	-3.56278E-003	5.65442E-001	6.90391E-001	-3.06392E-002	-3.86503E-002	6.46690E-001	-4.21411E-002	-5.76408E-004	3.25059E-005	-5.15896E-003	-6.29896E-003	2.79544E-004	3.52635E-004	-5.90024E-003	3.84485E-004
	125	125	4.99566E-002	-9.01306E-003	0.00000E+000	-4.50262E-004	-8.85333E-002	3.78410E-002	3.29407E+001	11	...........	6.31772E-002	-3.56000E-003	5.65383E-001	6.90519E-001	-3.06462E-002	-3.86682E-002	6.46734E-001	-4.23489E-002	-5.69420E-004	3.20865E-005	-5.09583E-003	-6.22369E-003	2.76216E-004	3.48519E-004	-5.82905E-003	3.81693E-004
	126	126	4.99561E-002	-8.86010E-003	0.00000E+000	-4.42617E-004	-8.70203E-002	3.76851E-002	3.28576E+001	11	...........	6.29199E-002	-3.38958E-003	5.65346E-001	6.90588E-001	-3.06292E-002	-3.86704E-002	6.46661E-001	-4.23057E-002	-5.57476E-004	3.00321E-005	-5.00903E-003	-6.11868E-003	2.71378E-004	3.42624E-004	-5.72948E-003	3.74833E-004
	127	127	4.99546E-002	-8.83763E-003	0.00000E+000	-4.41480E-004	-8.67953E-002	3.78972E-002	3.34712E+001	11	...........	6.32597E-002	-3.35528E-003	5.65568E-001	6.90572E-001	-3.06368E-002	-3.86881E-002	6.46856E-001	-4.21542E-002	-5.59066E-004	2.96527E-005	-4.99828E-003	-6.10302E-003	2.70757E-004	3.41911E-004	-5.71667E-003	3.72543E-004
	128	128	4.99527E-002	-8.69476E-003	0.00000E+000	-4.34327E-004	-8.53720E-002	3.78980E-002	3.28958E+001	11	...........	6.32614E-002	-3.31569E-003	5.65679E-001	6.90697E-001	-3.05968E-002	-3.87106E-002	6.46910E-001	-4.22394E-002	-5.50043E-004	2.88292E-005	-4.91844E-003	-6.00545E-003	2.66032E-004	3.36579E-004	-5.62473E-003	3.67262E-004
	129	129	4.99566E-002	-8.49818E-003	0.00000E+000	-4.24540E-004	-8.34130E-002	3.77382E-002	3.20814E+001	11	...........	6.29826E-002	-3.29083E-003	5.65646E-001	6.90705E-001	-3.06018E-002	-3.86800E-002	6.46774E-001	-4.21971E-002	-5.35238E-004	2.79661E-005	-4.80697E-003	-5.86974E-003	2.60060E-004	3.28710E-004	-5.49640E-003	3.58599E-004
	130	130	4.99585E-002	-8.51055E-003	0.00000E+000	-4.25174E-004	-8.35340E-002	3.79039E-002	3.34232E+001	11	...........	6.32450E-002	-3.24319E-003	5.65561E-001	6.90562E-001	-3.06119E-002	-3.86639E-002	6.46796E-001	-4.22171E-002	-5.38250E-004	2.76014E-005	-4.81324E-003	-5.87706E-003	2.60525E-004	3.29051E-004	-5.50459E-003	3.59291E-004
	131	131	4.99549E-002	-8.45759E-003	0.00000E+000	-4.22498E-004	-8.30117E-002	3.78401E-002	3.31490E+001	11	...........	6.31500E-002	-3.30806E-003	5.65675E-001	6.90572E-001	-3.06114E-002	-3.86414E-002	6.46625E-001	-4.22021E-002	-5.34097E-004	2.79782E-005	-4.78425E-003	-5.84057E-003	2.58898E-004	3.26813E-004	-5.46888E-003	3.56928E-004
	132	132	4.99561E-002	-8.38073E-003	0.00000E+000	-4.18668E-004	-8.22453E-002	3.79085E-002	3.32696E+001	11	...........	6.32689E-002	-3.28639E-003	5.65667E-001	6.90586E-001	-3.06206E-002	-3.86565E-002	6.46633E-001	-4.23251E-002	-5.30239E-004	2.75423E-005	-4.74070E-003	-5.78762E-003	2.56623E-004	3.23970E-004	-5.41926E-003	3.54716E-004
	133	133	4.99552E-002	-8.25633E-003	0.00000E+000	-4.12446E-004	-8.10057E-002	3.78547E-002	3.33641E+001	11	...........	6.31889E-002	-3.33778E-003	5.65741E-001	6.90693E-001	-3.06069E-002	-3.86646E-002	6.46620E-001	-4.23349E-002	-5.21708E-004	2.75578E-005	-4.67095E-003	-5.70259E-003	2.52701E-004	3.19228E-004	-5.33871E-003	3.49531E-004
	134	134	4.99568E-002	-8.19560E-003	0.00000E+000	-4.09426E-004	-8.03977E-002	3.78561E-002	3.34644E+001	11	...........	6.31922E-002	-3.42333E-003	5.65865E-001	6.90849E-001	-3.06074E-002	-3.86832E-002	6.46649E-001	-4.23746E-002	-5.17898E-004	2.80563E-005	-4.63760E-003	-5.66192E-003	2.50846E-004	3.17032E-004	-5.29968E-003	3.47285E-004
	135	135	4.99555E-002	-8.09459E-003	0.00000E+000	-4.04370E-004	-7.93993E-002	3.77923E-002	3.30431E+001	11	...........	6.30794E-002	-3.44486E-003	5.65829E-001	6.90752E-001	-3.06021E-002	-3.86812E-002	6.46659E-001	-4.23529E-002	-5.10602E-004	2.78847E-005	-4.58015E-003	-5.59135E-003	2.47711E-004	3.13109E-004	-5.23444E-003	3.42830E-004
	136	136	4.99544E-002	-8.01840E-003	0.00000E+000	-4.00555E-004	-7.86370E-002	3.79918E-002	3.38286E+001	11	...........	6.34217E-002	-3.44542E-003	5.65767E-001	6.90779E-001	-3.05929E-002	-3.86514E-002	6.46576E-001	-4.24340E-002	-5.08540E-004	2.76267E-005	-4.53654E-003	-5.53895E-003	2.45306E-004	3.09922E-004	-5.18451E-003	3.40253E-004
	137	137	4.99557E-002	-7.88658E-003	0.00000E+000	-3.93980E-004	-7.73340E-002	3.78216E-002	3.21716E+001	11	...........	6.31293E-002	-3.55181E-003	5.65670E-001	6.90748E-001	-3.06043E-002	-3.86625E-002	6.46570E-001	-4.22051E-002	-4.97874E-004	2.80116E-005	-4.46120E-003	-5.44764E-003	2.41363E-004	3.04915E-004	-5.09923E-003	3.32854E-004
	138	138	4.99562E-002	-7.84491E-003	0.00000E+000	-3.91902E-004	-7.69213E-002	3.79502E-002	3.31893E+001	11	...........	6.33475E-002	-3.54042E-003	5.65630E-001	6.90788E-001	-3.06007E-002	-3.86757E-002	6.46577E-001	-4.21907E-002	-4.96956E-004	2.77743E-005	-4.43732E-003	-5.41917E-003	2.40060E-004	3.03407E-004	-5.07234E-003	3.30982E-004
	139	139	4.99568E-002	-7.76955E-003	0.00000E+000	-3.88142E-004	-7.61887E-002	3.78759E-002	3.32369E+001	11	...........	6.32214E-002	-3.44153E-003	5.65647E-001	6.90773E-001	-3.06364E-002	-3.86724E-002	6.46491E-001	-4.22381E-002	-4.91202E-004	2.67391E-005	-4.39483E-003	-5.36700E-003	2.38031E-004	3.00467E-004	-5.02295E-003	3.28171E-004
	140	140	4.99547E-002	-7.68539E-003	0.00000E+000	-3.83922E-004	-7.53460E-002	3.78572E-002	3.31925E+001	11	...........	6.31789E-002	-3.40875E-003	5.65722E-001	6.90652E-001	-3.06076E-002	-3.86621E-002	6.46524E-001	-4.23058E-002	-4.85555E-004	2.61976E-005	-4.34780E-003	-5.30793E-003	2.35232E-004	2.97133E-004	-4.96879E-003	3.25137E-004
	141	141	4.99554E-002	-7.58369E-003	0.00000E+000	-3.78846E-004	-7.43293E-002	3.79793E-002	3.27796E+001	11	...........	6.33918E-002	-3.54083E-003	5.65643E-001	6.90628E-001	-3.06029E-002	-3.86735E-002	6.46529E-001	-4.22289E-002	-4.80744E-004	2.68526E-005	-4.28966E-003	-5.23751E-003	2.32083E-004	2.93288E-004	-4.90308E-003	3.20251E-004
	142	142	4.99572E-002	-7.52746E-003	0.00000E+000	-3.76050E-004	-7.37617E-002	3.79325E-002	3.34414E+001	11	...........	6.33204E-002	-3.52375E-003	5.65366E-001	6.90675E-001	-3.06033E-002	-3.87014E-002	6.46514E-001	-4.23860E-002	-4.76642E-004	2.65249E-005	-4.25577E-003	-5.19903E-003	2.30365E-004	2.91323E-004	-4.86660E-003	3.19059E-004
	143	143	4.99557E-002	-7.46968E-003	0.00000E+000	-3.73153E-004	-7.31900E-002	3.78892E-002	3.34102E+001	11	...........	6.32564E-002	-3.62819E-003	5.65189E-001	6.90656E-001	-3.05912E-002	-3.86908E-002	6.46545E-001	-4.23424E-002	-4.72505E-004	2.71014E-005	-4.22178E-003	-5.15898E-003	2.28507E-004	2.89008E-004	-4.82948E-003	3.16284E-004
	144	144	4.99546E-002	-7.39362E-003	0.00000E+000	-3.69345E-004	-7.24327E-002	3.79630E-002	3.31251E+001	11	...........	6.33742E-002	-3.49722E-003	5.65210E-001	6.90687E-001	-3.05947E-002	-3.87003E-002	6.46609E-001	-4.23715E-002	-4.68565E-004	2.58571E-005	-4.17895E-003	-5.10668E-003	2.26206E-004	2.86135E-004	-4.78078E-003	3.13279E-004
	145	145	4.99563E-002	-7.32601E-003	0.00000E+000	-3.65980E-004	-7.17603E-002	3.79842E-002	3.35417E+001	11	...........	6.33933E-002	-3.53875E-003	5.65159E-001	6.90661E-001	-3.05943E-002	-3.86717E-002	6.46442E-001	-4.23937E-002	-4.64420E-004	2.59249E-005	-4.14036E-003	-5.05979E-003	2.24134E-004	2.83309E-004	-4.73584E-003	3.10577E-004
	146	146	4.99570E-002	-7.27228E-003	0.00000E+000	-3.63302E-004	-7.12257E-002	3.78972E-002	3.37400E+001	11	...........	6.32401E-002	-3.50792E-003	5.65145E-001	6.90562E-001	-3.05811E-002	-3.86787E-002	6.46344E-001	-4.24254E-002	-4.59900E-004	2.55106E-005	-4.10989E-003	-5.02197E-003	2.22395E-004	2.81283E-004	-4.70040E-003	3.08530E-004
	147	147	4.99555E-002	-7.16265E-003	0.00000E+000	-3.57814E-004	-7.01250E-002	3.79135E-002	3.34225E+001	11	...........	6.32776E-002	-3.39708E-003	5.65163E-001	6.90421E-001	-3.05810E-002	-3.86511E-002	6.46324E-001	-4.24681E-002	-4.53235E-004	2.43321E-005	-4.04806E-003	-4.94524E-003	2.19041E-004	2.76844E-004	-4.62939E-003	3.04184E-004
	148	148	4.99555E-002	-7.03484E-003	0.00000E+000	-3.51429E-004	-6.88570E-002	3.77515E-002	3.24316E+001	11	...........	6.29787E-002	-3.42028E-003	5.65192E-001	6.90424E-001	-3.06026E-002	-3.86515E-002	6.46331E-001	-4.25217E-002	-4.43045E-004	2.40611E-005	-3.97603E-003	-4.85702E-003	2.15285E-004	2.71907E-004	-4.54684E-003	2.99133E-004
	149	149	4.99573E-002	-7.04058E-003	0.00000E+000	-3.51729E-004	-6.89120E-002	3.81253E-002	3.36619E+001	11	...........	6.36229E-002	-3.41792E-003	5.65154E-001	6.90391E-001	-3.05928E-002	-3.86656E-002	6.46426E-001	-4.25014E-002	-4.47942E-004	2.40641E-005	-3.97901E-003	-4.86075E-003	2.15391E-004	2.72228E-004	-4.55122E-003	2.99235E-004
	150	150	4.99553E-002	-7.00709E-003	0.00000E+000	-3.50041E-004	-6.85870E-002	3.79777E-002	3.36931E+001	11	...........	6.34039E-002	-3.40347E-003	5.65146E-001	6.90501E-001	-3.05901E-002	-3.86869E-002	6.46568E-001	-4.25125E-002	-4.44277E-004	2.38484E-005	-3.96003E-003	-4.83840E-003	2.14348E-004	2.71083E-004	-4.53056E-003	2.97889E-004
	151	151	4.99562E-002	-6.88211E-003	0.00000E+000	-3.43804E-004	-6.73367E-002	3.78737E-002	3.34135E+001	11	...........	6.32010E-002	-3.46847E-003	5.65240E-001	6.90548E-001	-3.05976E-002	-3.86735E-002	6.46543E-001	-4.25192E-002	-4.34956E-004	2.38704E-005	-3.89004E-003	-4.75242E-003	2.10576E-004	2.66155E-004	-4.44958E-003	2.92621E-004
	152	152	4.99561E-002	-6.83962E-003	0.00000E+000	-3.41681E-004	-6.69120E-002	3.80336E-002	3.38634E+001	11	...........	6.34769E-002	-3.56667E-003	5.65240E-001	6.90584E-001	-3.06044E-002	-3.86986E-002	6.46651E-001	-4.23403E-002	-4.34158E-004	2.43946E-005	-3.86602E-003	-4.72333E-003	2.09323E-004	2.64684E-004	-4.42284E-003	2.89591E-004
	153	153	4.99548E-002	-6.71519E-003	0.00000E+000	-3.35456E-004	-6.56733E-002	3.79005E-002	3.26869E+001	11	...........	6.32622E-002	-3.62042E-003	5.65174E-001	6.90562E-001	-3.05822E-002	-3.86957E-002	6.46646E-001	-4.24743E-002	-4.24818E-004	2.43118E-005	-3.79525E-003	-4.63726E-003	2.05365E-004	2.59849E-004	-4.34235E-003	2.85223E-004
	154	154	4.99570E-002	-6.65755E-003	0.00000E+000	-3.32591E-004	-6.50943E-002	3.78731E-002	3.32971E+001	11	...........	6.32260E-002	-3.55250E-003	5.65223E-001	6.90510E-001	-3.05982E-002	-3.87510E-002	6.46631E-001	-4.24687E-002	-4.20930E-004	2.36509E-005	-3.76300E-003	-4.59710E-003	2.03709E-004	2.57986E-004	-4.30497E-003	2.82738E-004
	155	155	4.99557E-002	-6.67283E-003	0.00000E+000	-3.33346E-004	-6.52567E-002	3.80961E-002	3.35424E+001	11	...........	6.35882E-002	-3.50889E-003	5.65140E-001	6.90659E-001	-3.06240E-002	-3.87764E-002	6.46563E-001	-4.23453E-002	-4.24313E-004	2.34142E-005	-3.77108E-003	-4.60865E-003	2.04349E-004	2.58748E-004	-4.31440E-003	2.82563E-004
	156	156	4.99558E-002	-6.55967E-003	0.00000E+000	-3.27694E-004	-6.41080E-002	3.79746E-002	3.34654E+001	11	...........	6.33818E-002	-3.46819E-003	5.65014E-001	6.90720E-001	-3.06314E-002	-3.87643E-002	6.46579E-001	-4.23111E-002	-4.15764E-004	2.27502E-005	-3.70630E-003	-4.53090E-003	2.00932E-004	2.54281E-004	-4.24134E-003	2.77547E-004
	157	157	4.99564E-002	-6.49137E-003	0.00000E+000	-3.24285E-004	-6.34467E-002	3.80567E-002	3.38364E+001	11	...........	6.35029E-002	-3.32986E-003	5.64892E-001	6.90899E-001	-3.06415E-002	-3.87567E-002	6.46672E-001	-4.23831E-002	-4.12221E-004	2.16154E-005	-3.66692E-003	-4.48488E-003	1.98905E-004	2.51584E-004	-4.19779E-003	2.75124E-004
	158	158	4.99556E-002	-6.38940E-003	0.00000E+000	-3.19186E-004	-6.24483E-002	3.78986E-002	3.31484E+001	11	...........	6.32639E-002	-3.28514E-003	5.65007E-001	6.90921E-001	-3.06419E-002	-3.87631E-002	6.46703E-001	-4.22881E-002	-4.04218E-004	2.09901E-005	-3.61006E-003	-4.41457E-003	1.95784E-004	2.47673E-004	-4.13205E-003	2.70195E-004
	159	159	4.99561E-002	-6.35969E-003	0.00000E+000	-3.17705E-004	-6.21597E-002	3.79780E-002	3.33166E+001	11	...........	6.33756E-002	-3.29861E-003	5.65188E-001	6.91036E-001	-3.06156E-002	-3.87662E-002	6.46678E-001	-4.23093E-002	-4.03049E-004	2.09782E-005	-3.59442E-003	-4.39477E-003	1.94705E-004	2.46541E-004	-4.11267E-003	2.69074E-004
	160	160	4.99567E-002	-6.33784E-003	0.00000E+000	-3.16617E-004	-6.19397E-002	3.80731E-002	3.40848E+001	11	...........	6.35336E-002	-3.32819E-003	5.65305E-001	6.91132E-001	-3.05982E-002	-3.87749E-002	6.46607E-001	-4.23081E-002	-4.02666E-004	2.10935E-005	-3.58281E-003	-4.38028E-003	1.93926E-004	2.45749E-004	-4.09809E-003	2.68141E-004
	161	161	4.99548E-002	-6.24509E-003	0.00000E+000	-3.11972E-004	-6.10163E-002	3.79731E-002	3.36419E+001	11	...........	6.33611E-002	-3.47833E-003	5.65342E-001	6.91140E-001	-3.06092E-002	-3.87585E-002	6.46572E-001	-4.22503E-002	-3.95696E-004	2.17225E-005	-3.53061E-003	-4.31623E-003	1.91157E-004	2.42050E-004	-4.03790E-003	2.63857E-004
	162	162	4.99560E-002	-6.17126E-003	0.00000E+000	-3.08292E-004	-6.02770E-002	3.80640E-002	3.28909E+001	11	...........	6.35112E-002	-3.53069E-003	5.65381E-001	6.91234E-001	-3.05939E-002	-3.87646E-002	6.46581E-001	-4.23758E-002	-3.91944E-004	2.17888E-005	-3.48911E-003	-4.26579E-003	1.88803E-004	2.39226E-004	-3.99022E-003	2.61512E-004
	163	163	4.99572E-002	-6.12159E-003	0.00000E+000	-3.05818E-004	-5.97840E-002	3.79275E-002	3.35926E+001	11	...........	6.33018E-002	-3.46597E-003	5.65325E-001	6.91351E-001	-3.06011E-002	-3.87593E-002	6.46486E-001	-4.24022E-002	-3.87508E-004	2.12173E-005	-3.46069E-003	-4.23216E-003	1.87327E-004	2.37268E-004	-3.95752E-003	2.59569E-004
	164	164	4.99547E-002	-6.10239E-003	0.00000E+000	-3.04843E-004	-5.95933E-002	3.81032E-002	3.33125E+001	11	...........	6.35967E-002	-3.48750E-003	5.65397E-001	6.91287E-001	-3.05700E-002	-3.87547E-002	6.46521E-001	-4.23292E-002	-3.88091E-004	2.12821E-005	-3.45027E-003	-4.21850E-003	1.86550E-004	2.36496E-004	-3.94532E-003	2.58309E-004
	165	165	4.99572E-002	-6.01809E-003	0.00000E+000	-3.00647E-004	-5.87537E-002	3.80488E-002	3.38399E+001	11	...........	6.34753E-002	-3.46306E-003	5.65363E-001	6.91236E-001	-3.05644E-002	-3.87386E-002	6.46471E-001	-4.22432E-002	-3.82000E-004	2.08410E-005	-3.40241E-003	-4.15992E-003	1.83940E-004	2.33133E-004	-3.89052E-003	2.54223E-004
	166	166	4.99564E-002	-5.95848E-003	0.00000E+000	-2.97665E-004	-5.81587E-002	3.80527E-002	3.31624E+001	11	...........	6.35050E-002	-3.54403E-003	5.65288E-001	6.91074E-001	-3.06076E-002	-3.87519E-002	6.46577E-001	-4.22057E-002	-3.78393E-004	2.11170E-005	-3.36826E-003	-4.11775E-003	1.82375E-004	2.30903E-004	-3.85261E-003	2.51482E-004
	167	167	4.99562E-002	-5.88487E-003	0.00000E+000	-2.93986E-004	-5.74263E-002	3.78960E-002	3.36473E+001	11	...........	6.32632E-002	-3.53708E-003	5.65260E-001	6.91022E-001	-3.05869E-002	-3.87471E-002	6.46668E-001	-4.23017E-002	-3.72296E-004	2.08153E-005	-3.32648E-003	-4.06658E-003	1.80000E-004	2.28021E-004	-3.80556E-003	2.48940E-004
	168	168	4.99554E-002	-5.88764E-003	0.00000E+000	-2.94119E-004	-5.74513E-002	3.81047E-002	3.35475E+001	11	...........	6.36029E-002	-3.47278E-003	5.65305E-001	6.91073E-001	-3.05878E-002	-3.87415E-002	6.46606E-001	-4.23335E-002	-3.74471E-004	2.04465E-005	-3.32831E-003	-4.06879E-003	1.80090E-004	2.28096E-004	-3.80699E-003	2.49244E-004
	169	169	4.99564E-002	-5.79781E-003	0.00000E+000	-2.89638E-004	-5.65607E-002	3.80717E-002	3.40513E+001	11	...........	6.35475E-002	-3.36500E-003	5.65253E-001	6.91125E-001	-3.05942E-002	-3.87587E-002	6.46614E-001	-4.24058E-002	-3.68436E-004	1.95096E-005	-3.27723E-003	-4.00701E-003	1.77379E-004	2.24716E-004	-3.74894E-003	2.45861E-004
	170	170	4.99554E-002	-5.69748E-003	0.00000E+000	-2.84620E-004	-5.55610E-002	3.79492E-002	3.26462E+001	11	...........	6.33319E-002	-3.39375E-003	5.65166E-001	6.91107E-001	-3.05760E-002	-3.87793E-002	6.46584E-001	-4.23250E-002	-3.60832E-004	1.93358E-005	-3.22002E-003	-3.93757E-003	1.74206E-004	2.20944E-004	-3.68390E-003	2.41146E-004
	171	171	4.99572E-002	-5.65843E-003	0.00000E+000	-2.82679E-004	-5.51720E-002	3.80434E-002	3.35905E+001	11	...........	6.34976E-002	-3.33472E-003	5.65328E-001	6.91214E-001	-3.05974E-002	-3.87661E-002	6.46572E-001	-4.22899E-002	-3.59297E-004	1.88693E-005	-3.19887E-003	-3.91118E-003	1.73133E-004	2.19355E-004	-3.65858E-003	2.39294E-004
	172	172	4.99549E-002	-5.66356E-003	0.00000E+000	-2.82922E-004	-5.52217E-002	3.81446E-002	3.36406E+001	11	...........	6.36475E-002	-3.41750E-003	5.65460E-001	6.91180E-001	-3.05992E-002	-3.87590E-002	6.46511E-001	-4.23268E-002	-3.60472E-004	1.93552E-005	-3.20252E-003	-3.91454E-003	1.73300E-004	2.19514E-004	-3.66155E-003	2.39720E-004
	173	173	4.99571E-002	-5.58700E-003	0.00000E+000	-2.79110E-004	-5.44583E-002	3.80559E-002	3.33265E+001	11	...........	6.35342E-002	-3.39736E-003	5.65529E-001	6.91338E-001	-3.05794E-002	-3.87593E-002	6.46580E-001	-4.23651E-002	-3.54965E-004	1.89811E-005	-3.15961E-003	-3.86251E-003	1.70847E-004	2.16548E-004	-3.61244E-003	2.36694E-004
	174	174	4.99560E-002	-5.48724E-003	0.00000E+000	-2.74121E-004	-5.34657E-002	3.79907E-002	3.34284E+001	11	...........	6.33937E-002	-3.41181E-003	5.65646E-001	6.91363E-001	-3.05874E-002	-3.87487E-002	6.46633E-001	-4.21689E-002	-3.47857E-004	1.87214E-005	-3.10384E-003	-3.79368E-003	1.67840E-004	2.12624E-004	-3.54823E-003	2.31391E-004
	175	175	4.99566E-002	-5.46268E-003	0.00000E+000	-2.72897E-004	-5.32253E-002	3.80404E-002	3.29523E+001	11	...........	6.34925E-002	-3.43194E-003	5.65636E-001	6.91157E-001	-3.05933E-002	-3.87417E-002	6.46577E-001	-4.22292E-002	-3.46839E-004	1.87476E-005	-3.08989E-003	-3.77557E-003	1.67122E-004	2.11633E-004	-3.53204E-003	2.30684E-004
	176	176	4.99561E-002	-5.43220E-003	0.00000E+000	-2.71372E-004	-5.29207E-002	3.81506E-002	3.34974E+001	11	...........	6.36797E-002	-3.48528E-003	5.65516E-001	6.91148E-001	-3.05850E-002	-3.87378E-002	6.46526E-001	-4.21910E-002	-3.45921E-004	1.89327E-005	-3.07200E-003	-3.75445E-003	1.66144E-004	2.10431E-004	-3.51206E-003	2.29190E-004
	177	177	4.99554E-002	-5.38702E-003	0.00000E+000	-2.69111E-004	-5.24693E-002	3.81653E-002	3.35730E+001	11	...........	6.37081E-002	-3.65708E-003	5.65540E-001	6.91385E-001	-3.05596E-002	-3.87576E-002	6.46574E-001	-4.23386E-002	-3.43196E-004	1.97008E-005	-3.04657E-003	-3.72450E-003	1.64625E-004	2.08788E-004	-3.48311E-003	2.28079E-004
	178	178	4.99576E-002	-5.34483E-003	0.00000E+000	-2.67015E-004	-5.20473E-002	3.81035E-002	3.38900E+001	11	...........	6.36008E-002	-3.48389E-003	5.65330E-001	6.91339E-001	-3.05804E-002	-3.87531E-002	6.46452E-001	-4.23729E-002	-3.39935E-004	1.86208E-005	-3.02159E-003	-3.69509E-003	1.63447E-004	2.07128E-004	-3.45517E-003	2.26476E-004
	179	179	4.99557E-002	-5.27340E-003	0.00000E+000	-2.63437E-004	-5.13433E-002	3.81141E-002	3.30252E+001	11	...........	6.36039E-002	-3.47125E-003	5.65211E-001	6.91422E-001	-3.05911E-002	-3.87435E-002	6.46370E-001	-4.22611E-002	-3.35409E-004	1.83053E-005	-2.98058E-003	-3.64615E-003	1.61319E-004	2.04310E-004	-3.40857E-003	2.22860E-004
	180	180	4.99559E-002	-5.20006E-003	0.00000E+000	-2.59774E-004	-5.06257E-002	3.79579E-002	3.28307E+001	11	...........	6.33607E-002	-3.46278E-003	5.65170E-001	6.91440E-001	-3.06090E-002	-3.87244E-002	6.46429E-001	-4.23351E-002	-3.29480E-004	1.80067E-005	-2.93892E-003	-3.59553E-003	1.59169E-004	2.01370E-004	-3.36147E-003	2.20145E-004
	181	181	4.99571E-002	-5.19678E-003	0.00000E+000	-2.59616E-004	-5.05967E-002	3.81890E-002	3.38999E+001	11	...........	6.37475E-002	-3.48611E-003	5.65010E-001	6.91648E-001	-3.06228E-002	-3.86982E-002	6.46498E-001	-4.23315E-002	-3.31282E-004	1.81165E-005	-2.93623E-003	-3.59434E-003	1.59140E-004	2.01106E-004	-3.35971E-003	2.19988E-004
	182	182	4.99557E-002	-5.15231E-003	0.00000E+000	-2.57387E-004	-5.01543E-002	3.81295E-002	3.34223E+001	11	...........	6.36344E-002	-3.40347E-003	5.64974E-001	6.91804E-001	-3.06236E-002	-3.86929E-002	6.46520E-001	-4.23340E-002	-3.27865E-004	1.75358E-005	-2.91092E-003	-3.56439E-003	1.57782E-004	1.99358E-004	-3.33108E-003	2.18118E-004
	183	183	4.99561E-002	-5.10802E-003	0.00000E+000	-2.55177E-004	-4.97077E-002	3.81584E-002	3.36750E+001	11	...........	6.36851E-002	-3.36694E-003	5.65167E-001	6.91600E-001	-3.06111E-002	-3.86935E-002	6.46529E-001	-4.24092E-002	-3.25305E-004	1.71984E-005	-2.88689E-003	-3.53271E-003	1.56362E-004	1.97647E-004	-3.30248E-003	2.16627E-004
	184	183.277	4.99544E-002	-5.06219E-003	0.00000E+000	-2.52879E-004	-4.92494E-002	3.80437E-002	3.40704E+001	11	...........	6.34734E-002	-3.27159E-003	5.65257E-001	6.91645E-001	-3.05537E-002	-3.87118E-002	6.46472E-001	-4.25100E-002	-3.21315E-004	1.65614E-005	-2.86144E-003	-3.50124E-003	1.54669E-004	1.95967E-004	-3.27257E-003	2.15194E-004
STARTTIMEOFFSET	QUANT	753101.4	Start Time Offset (s)
