EXPLAIN
TAG	PWR800_DISCHARGE
TITLE	LABEL	PWR Discharge	Test Identifier
DATE	LABEL	10/16/2022	Date
TIME	LABEL	4:19:11	Time
NOTES	NOTES	1	Notes...
	
PSTAT	PSTAT	REF3000-21114	Potentiostat
CAPACITY	QUANT	5.30000E-002	Capacity (A-hr)
CELLTYPE	SELECTOR	1	Cell Type
WORKINGCONNECTION	SELECTOR	0	Working Connection
MAXDISCHARGETIME	VARIABLEANDUNITS	7.20000E+003	s	2.00000E+000	hour(s)	Max Discharge Time
DISCHARGEMODE	MULTIPARAM	0	1.00000E-001	Discharge Mode	Constant Current	Amp(s)
VOLTAGEFINISH	TWOPARAM	T	5.00000E-003	7.20000E+003	Voltage Finish	I (A) <	Max Time(s)
SAMPLETIME	QUANT	1.00000E+000	Sample Period (s)
DISCHARGESTOPAT1	MULTIPARAM	1	5.00000E-002	Stop At 1	|Voltage| < Limit	V
DISCHARGESTOPAT2	MULTIPARAM	0	0.00000E+000	Stop At 2	None	N/A
AESELECTOR	AESELECTOR	0x1	T	Set Limits	AE Channels
AESBHCSELECTOR	TOGGLE	F	Save Both Half Cells
IRCOMP	TOGGLE	F	IR Measure
EOC	QUANT	0.5424454	Open Circuit (V)
SEQUENCER	TOGGLE	TRUE	Run as Sequence
PSTATMODEL	IQUANT	5	Pstat Model
PSTATSECTION	LABEL	REF3000-21114	Pstat Section
PSTATSERIALNO	LABEL	21114	Pstat Serial Number
CTRLMODE	IQUANT	0	Control Mode
ELECTROMETER	IQUANT	0	RE=0 or CS=1
IESTAB	IQUANT	0	I/E Stability
CASPEED	IQUANT	4	Control Amp Speed
CONVENTION	IQUANT	1	Current Convention
ICHRANGE	IQUANT	2	Ich Range
ICHRANGEMODE	TOGGLE	T	Ich Auto Range
ICHOFFSETENABLE	TOGGLE	F	Ich Offset Enable
ICHOFFSET	QUANT	0	Ich Offset (V)
ICHFILTER	IQUANT	1	Ich Filter
VCHRANGE	IQUANT	3	Vch Range
VCHRANGEMODE	TOGGLE	T	Vch Auto Range
VCHOFFSETENABLE	TOGGLE	F	Vch Offset Enable
VCHOFFSET	QUANT	0	Vch Offset (V)
VCHFILTER	IQUANT	1	Vch Filter
ACHRANGE	IQUANT	2	Ach Range
ACHOFFSETENABLE	TOGGLE	F	Ach Offset Enable
ACHOFFSET	QUANT	0	Ach Offset (V)
ACHFILTER	IQUANT	1	Ach Filter
IERANGELOWERLIMIT	IQUANT	9	I/E Range Lower Limit
IERANGEMODE	TOGGLE	F	I/E AutoRange
IERANGE	IQUANT	9	I/E Range
POSFEEDENABLE	TOGGLE	F	Positive Feedback IR Comp
POSFEEDRESISTANCE	QUANT	0	Positive Feedback Resistance (ohm)
ACHSELECT	IQUANT	1	Ach Select
SENSECABLEID	IQUANT	13	Sense Cable ID
PWRCABLEID	IQUANT	13	Power Cable ID
DCCALDATE	LABEL		DC Calibration Date
ACCALDATE	LABEL		AC Calibration Date
THERMOSELECT	IQUANT	1	Thermo Select
FRAMEWORKVERSION	LABEL	7.8.6	Framework Version
INSTRUMENTVERSION	LABEL	4.50	Instrument Version
COMPLIANCEVOLTAGE	IQUANT	0	Compliance Voltage
CURVE	TABLE	104
	Pt	T	Vf	Im	Vu	Pwr	Sig	Ach	Temp	IERange	Over	Vf1	Vf2	Vf3	Vf4	Vf5	Vf6	Vf7	Vf8	Pwr1	Pwr2	Pwr3	Pwr4	Pwr5	Pwr6	Pwr7	Pwr8
	#	s	V	A	V	W	V	V	deg C	#	bits	V	V	V	V	V	V	V	V	W	W	W	W	W	W	W	W
	0	1	3.01278E-001	-1.00093E-001	0.00000E+000	-3.01557E-002	-9.94000E-001	3.56492E-002	2.96632E+001	11	...........	5.92424E-002	-4.36722E-003	5.76776E-001	6.16250E-001	-2.91914E-002	-3.91376E-002	6.65139E-001	-4.33014E-002	-5.92972E-003	4.37126E-004	-5.77309E-002	-6.16821E-002	2.92184E-003	3.91739E-003	-6.65755E-002	4.33415E-003
	1	2	2.04937E-001	-1.00094E-001	0.00000E+000	-2.05130E-002	-9.94000E-001	3.56596E-002	2.88116E+001	11	...........	5.92828E-002	-4.45014E-003	5.76681E-001	6.16452E-001	-2.91582E-002	-3.91872E-002	6.65057E-001	-4.33372E-002	-5.93385E-003	4.45432E-004	-5.77223E-002	-6.17031E-002	2.91856E-003	3.92240E-003	-6.65682E-002	4.33779E-003
	2	3	1.21917E-001	-1.00093E-001	0.00000E+000	-1.22031E-002	-9.94000E-001	3.56202E-002	2.77376E+001	11	...........	5.91975E-002	-4.23764E-003	5.76622E-001	6.16342E-001	-2.91835E-002	-3.91806E-002	6.65079E-001	-4.34624E-002	-5.92528E-003	4.24159E-004	-5.77161E-002	-6.16917E-002	2.92107E-003	3.92171E-003	-6.65700E-002	4.35029E-003
	3	3.46667	6.65761E-002	-1.00093E-001	0.00000E+000	-6.66384E-003	-9.94000E-001	3.55296E-002	2.73511E+001	11	...........	5.90759E-002	-4.16934E-003	5.76719E-001	6.16220E-001	-2.91899E-002	-3.91345E-002	6.65167E-001	-4.34098E-002	-5.91311E-003	4.17324E-004	-5.77258E-002	-6.16796E-002	2.92172E-003	3.91711E-003	-6.65789E-002	4.34504E-003
	4	4	4.92528E-002	-8.68675E-002	0.00000E+000	-4.27847E-003	-8.62496E-001	3.57530E-002	2.76197E+001	11	...........	5.93812E-002	-4.29844E-003	5.76787E-001	6.16294E-001	-2.92294E-002	-3.91242E-002	6.65206E-001	-4.34182E-002	-5.15830E-003	3.73394E-004	-5.01040E-002	-5.35359E-002	2.53909E-003	3.39862E-003	-5.77848E-002	3.77163E-003
	5	5	4.95435E-002	-6.27490E-002	0.00000E+000	-3.10881E-003	-6.22721E-001	3.57338E-002	2.80106E+001	11	...........	5.93693E-002	-4.37000E-003	5.76729E-001	6.16556E-001	-2.91828E-002	-3.91390E-002	6.65169E-001	-4.33442E-002	-3.72536E-003	2.74213E-004	-3.61891E-002	-3.86883E-002	1.83119E-003	2.45593E-003	-4.17387E-002	2.71980E-003
	6	6	4.96963E-002	-4.58398E-002	0.00000E+000	-2.27807E-003	-4.54618E-001	3.58193E-002	2.95444E+001	11	...........	5.94722E-002	-4.58292E-003	5.76752E-001	6.16508E-001	-2.91542E-002	-3.91656E-002	6.65138E-001	-4.33632E-002	-2.72620E-003	2.10080E-004	-2.64382E-002	-2.82606E-002	1.33642E-003	1.79534E-003	-3.04898E-002	1.98776E-003
	7	7	4.97595E-002	-3.65281E-002	0.00000E+000	-1.81762E-003	-3.62043E-001	3.59417E-002	3.07200E+001	11	...........	5.96683E-002	-4.59556E-003	5.76598E-001	6.16272E-001	-2.92368E-002	-3.91854E-002	6.65157E-001	-4.35065E-002	-2.17957E-003	1.67867E-004	-2.10620E-002	-2.25112E-002	1.06797E-003	1.43137E-003	-2.42969E-002	1.58921E-003
	8	8	4.97871E-002	-3.04008E-002	0.00000E+000	-1.51357E-003	-3.01125E-001	3.58834E-002	3.07730E+001	11	...........	5.96185E-002	-4.59194E-003	5.76729E-001	6.16235E-001	-2.92319E-002	-3.91667E-002	6.65157E-001	-4.34875E-002	-1.81245E-003	1.39599E-004	-1.75330E-002	-1.87340E-002	8.88675E-004	1.19070E-003	-2.02213E-002	1.32206E-003
	9	9	4.98142E-002	-2.62520E-002	0.00000E+000	-1.30772E-003	-2.59871E-001	3.59765E-002	3.08361E+001	11	...........	5.97417E-002	-4.54194E-003	5.76761E-001	6.16261E-001	-2.91968E-002	-3.91592E-002	6.65212E-001	-4.35437E-002	-1.56834E-003	1.19235E-004	-1.51411E-002	-1.61781E-002	7.66475E-004	1.02801E-003	-1.74631E-002	1.14311E-003
	10	10	4.98274E-002	-2.35227E-002	0.00000E+000	-1.17207E-003	-2.32727E-001	3.59261E-002	3.16063E+001	11	...........	5.96614E-002	-4.40042E-003	5.76842E-001	6.16552E-001	-2.91518E-002	-3.92017E-002	6.65320E-001	-4.34604E-002	-1.40339E-003	1.03509E-004	-1.35688E-002	-1.45029E-002	6.85728E-004	9.22127E-004	-1.56501E-002	1.02230E-003
	11	11	4.98342E-002	-2.16076E-002	0.00000E+000	-1.07680E-003	-2.13678E-001	3.60175E-002	3.17843E+001	11	...........	5.98118E-002	-4.58792E-003	5.76959E-001	6.16645E-001	-2.91715E-002	-3.92312E-002	6.65281E-001	-4.35869E-002	-1.29239E-003	9.91338E-005	-1.24667E-002	-1.33242E-002	6.30326E-004	8.47692E-004	-1.43751E-002	9.41808E-004
	12	12	4.98362E-002	-2.00738E-002	0.00000E+000	-1.00040E-003	-1.98439E-001	3.60721E-002	3.17413E+001	11	...........	5.99275E-002	-4.56472E-003	5.76785E-001	6.16654E-001	-2.91431E-002	-3.92086E-002	6.65059E-001	-4.35981E-002	-1.20297E-003	9.16312E-005	-1.15782E-002	-1.23786E-002	5.85011E-004	7.87065E-004	-1.33503E-002	8.75177E-004
	13	13	4.98424E-002	-1.88578E-002	0.00000E+000	-9.39919E-004	-1.86347E-001	3.61281E-002	3.20110E+001	11	...........	5.99922E-002	-4.52528E-003	5.76638E-001	6.16646E-001	-2.91426E-002	-3.91794E-002	6.65103E-001	-4.34174E-002	-1.13132E-003	8.53369E-005	-1.08741E-002	-1.16286E-002	5.49567E-004	7.38839E-004	-1.25424E-002	8.18757E-004
	14	14	4.98443E-002	-1.78082E-002	0.00000E+000	-8.87636E-004	-1.75909E-001	3.60221E-002	3.12130E+001	11	...........	5.98256E-002	-4.54583E-003	5.76522E-001	6.16405E-001	-2.91956E-002	-3.91608E-002	6.65097E-001	-4.33435E-002	-1.06538E-003	8.09530E-005	-1.02668E-002	-1.09770E-002	5.19920E-004	6.97383E-004	-1.18442E-002	7.71868E-004
	15	15	4.98490E-002	-1.71051E-002	0.00000E+000	-8.52673E-004	-1.68914E-001	3.61099E-002	3.17172E+001	11	...........	5.99408E-002	-4.51139E-003	5.76319E-001	6.16283E-001	-2.91071E-002	-3.91701E-002	6.65127E-001	-4.33776E-002	-1.02529E-003	7.71678E-005	-9.85800E-003	-1.05416E-002	4.97880E-004	6.70010E-004	-1.13771E-002	7.41980E-004
	16	16	4.98473E-002	-1.64906E-002	0.00000E+000	-8.22009E-004	-1.62809E-001	3.61943E-002	3.25514E+001	11	...........	6.01210E-002	-4.57625E-003	5.76192E-001	6.16341E-001	-2.90915E-002	-3.92100E-002	6.65203E-001	-4.34129E-002	-9.91429E-004	7.54649E-005	-9.50173E-003	-1.01638E-002	4.79736E-004	6.46595E-004	-1.09696E-002	7.15903E-004
	17	17	4.98464E-002	-1.59760E-002	0.00000E+000	-7.96344E-004	-1.57685E-001	3.62546E-002	3.21387E+001	11	...........	6.01872E-002	-4.58444E-003	5.75935E-001	6.16158E-001	-2.91204E-002	-3.92356E-002	6.65232E-001	-4.34592E-002	-9.61548E-004	7.32409E-005	-9.20111E-003	-9.84371E-003	4.65226E-004	6.26825E-004	-1.06277E-002	6.94301E-004
	18	18	4.98527E-002	-1.54379E-002	0.00000E+000	-7.69620E-004	-1.52337E-001	3.62154E-002	3.24207E+001	11	...........	6.01229E-002	-4.53528E-003	5.75889E-001	6.16210E-001	-2.92149E-002	-3.92321E-002	6.65282E-001	-4.33564E-002	-9.28170E-004	7.00150E-005	-8.89049E-003	-9.51298E-003	4.51015E-004	6.05660E-004	-1.02705E-002	6.69330E-004
	19	19	4.98522E-002	-1.50454E-002	0.00000E+000	-7.50044E-004	-1.48427E-001	3.62546E-002	3.24137E+001	11	...........	6.01978E-002	-4.53611E-003	5.76146E-001	6.16347E-001	-2.91839E-002	-3.91947E-002	6.65288E-001	-4.33442E-002	-9.05697E-004	6.82474E-005	-8.66832E-003	-9.27315E-003	4.39082E-004	5.89699E-004	-1.00095E-002	6.52128E-004
	20	20	4.98508E-002	-1.45966E-002	0.00000E+000	-7.27651E-004	-1.43958E-001	3.59657E-002	3.18875E+001	11	...........	5.99217E-002	-4.38583E-003	5.75968E-001	6.16319E-001	-2.92146E-002	-3.91635E-002	6.65289E-001	-4.34274E-002	-8.74652E-004	6.40182E-005	-8.40716E-003	-8.99615E-003	4.26433E-004	5.71653E-004	-9.71094E-003	6.33891E-004
	21	21	4.98516E-002	-1.43120E-002	0.00000E+000	-7.13476E-004	-1.41147E-001	3.61412E-002	3.25876E+001	11	...........	6.03375E-002	-4.45181E-003	5.75768E-001	6.16166E-001	-2.92107E-002	-3.91878E-002	6.65362E-001	-4.34831E-002	-8.63550E-004	6.37142E-005	-8.24039E-003	-8.81856E-003	4.18063E-004	5.60855E-004	-9.52265E-003	6.22329E-004
	22	22	4.98518E-002	-1.40173E-002	0.00000E+000	-6.98789E-004	-1.38204E-001	3.61039E-002	3.23370E+001	11	...........	6.02733E-002	-4.44472E-003	5.75734E-001	6.16352E-001	-2.91818E-002	-3.91931E-002	6.65392E-001	-4.35833E-002	-8.44871E-004	6.23031E-005	-8.07025E-003	-8.63960E-003	4.09051E-004	5.49382E-004	-9.32701E-003	6.10922E-004
	23	23	4.98514E-002	-1.36579E-002	0.00000E+000	-6.80864E-004	-1.34625E-001	3.60650E-002	3.26373E+001	11	...........	6.02129E-002	-4.53972E-003	5.75697E-001	6.16238E-001	-2.91976E-002	-3.92147E-002	6.65319E-001	-4.35874E-002	-8.22380E-004	6.20029E-005	-7.86279E-003	-8.41650E-003	3.98777E-004	5.35589E-004	-9.08683E-003	5.95310E-004
	24	24	4.98537E-002	-1.33848E-002	0.00000E+000	-6.67281E-004	-1.31912E-001	3.61512E-002	3.19833E+001	11	...........	6.03521E-002	-4.53486E-003	5.75690E-001	6.15996E-001	-2.92385E-002	-3.92407E-002	6.65345E-001	-4.36136E-002	-8.07799E-004	6.06981E-005	-7.70549E-003	-8.24498E-003	3.91351E-004	5.25228E-004	-8.90550E-003	5.83759E-004
	25	25	4.98529E-002	-1.31367E-002	0.00000E+000	-6.54901E-004	-1.29441E-001	3.61499E-002	3.27449E+001	11	...........	6.03367E-002	-4.56167E-003	5.75662E-001	6.15856E-001	-2.92249E-002	-3.92376E-002	6.65468E-001	-4.35521E-002	-7.92622E-004	5.99250E-005	-7.56227E-003	-8.09028E-003	3.83917E-004	5.15451E-004	-8.74202E-003	5.72128E-004
	26	26	4.98529E-002	-1.29053E-002	0.00000E+000	-6.43364E-004	-1.27155E-001	3.61631E-002	3.26957E+001	11	...........	6.03742E-002	-4.49319E-003	5.75802E-001	6.15886E-001	-2.92040E-002	-3.92018E-002	6.65215E-001	-4.34085E-002	-7.79145E-004	5.79859E-005	-7.43088E-003	-7.94818E-003	3.76886E-004	5.05910E-004	-8.58477E-003	5.60198E-004
	27	27	4.98535E-002	-1.26646E-002	0.00000E+000	-6.31373E-004	-1.24750E-001	3.61422E-002	3.23428E+001	11	...........	6.03447E-002	-4.49444E-003	5.75812E-001	6.15895E-001	-2.92056E-002	-3.91615E-002	6.65237E-001	-4.33692E-002	-7.64240E-004	5.69202E-005	-7.29241E-003	-7.80005E-003	3.69876E-004	4.95964E-004	-8.42494E-003	5.49252E-004
	28	28	4.98532E-002	-1.23717E-002	0.00000E+000	-6.16768E-004	-1.21834E-001	3.62437E-002	3.23005E+001	11	...........	6.04967E-002	-4.55250E-003	5.75834E-001	6.15937E-001	-2.92187E-002	-3.91583E-002	6.65282E-001	-4.33961E-002	-7.48446E-004	5.63221E-005	-7.12404E-003	-7.62019E-003	3.61485E-004	4.84455E-004	-8.23067E-003	5.36883E-004
	29	29	4.98531E-002	-1.21732E-002	0.00000E+000	-6.06872E-004	-1.19860E-001	3.60852E-002	3.24128E+001	11	...........	6.02576E-002	-4.57403E-003	5.75869E-001	6.15993E-001	-2.92157E-002	-3.91504E-002	6.65401E-001	-4.34054E-002	-7.33528E-004	5.56806E-005	-7.01016E-003	-7.49861E-003	3.55649E-004	4.76586E-004	-8.10006E-003	5.28383E-004
	30	30	4.98539E-002	-1.20378E-002	0.00000E+000	-6.00134E-004	-1.18525E-001	3.62116E-002	3.26059E+001	11	...........	6.04437E-002	-4.45958E-003	5.75823E-001	6.16102E-001	-2.91715E-002	-3.91551E-002	6.65397E-001	-4.33821E-002	-7.27612E-004	5.36838E-005	-6.93167E-003	-7.41654E-003	3.51162E-004	4.71343E-004	-8.00994E-003	5.22227E-004
	31	31	4.98538E-002	-1.18430E-002	0.00000E+000	-5.90420E-004	-1.16575E-001	3.62439E-002	3.30087E+001	11	...........	6.05054E-002	-4.46250E-003	5.75822E-001	6.16228E-001	-2.91589E-002	-3.91778E-002	6.65429E-001	-4.33346E-002	-7.16567E-004	5.28495E-005	-6.81947E-003	-7.29800E-003	3.45329E-004	4.63983E-004	-7.88069E-003	5.13212E-004
	32	32	4.98532E-002	-1.16448E-002	0.00000E+000	-5.80530E-004	-1.14614E-001	3.62758E-002	3.26653E+001	11	...........	6.05286E-002	-4.34014E-003	5.75906E-001	6.16316E-001	-2.91936E-002	-3.91919E-002	6.65306E-001	-4.33750E-002	-7.04842E-004	5.05399E-005	-6.70629E-003	-7.17687E-003	3.39953E-004	4.56381E-004	-7.74734E-003	5.05092E-004
	33	33	4.98550E-002	-1.14668E-002	0.00000E+000	-5.71675E-004	-1.12839E-001	3.61397E-002	3.28397E+001	11	...........	6.05753E-002	-4.32292E-003	5.75650E-001	6.16048E-001	-2.92219E-002	-3.92046E-002	6.65156E-001	-4.33358E-002	-6.94602E-004	4.95698E-005	-6.60083E-003	-7.06407E-003	3.35081E-004	4.49549E-004	-7.62718E-003	4.96921E-004
	34	34	4.98496E-002	-1.12313E-002	0.00000E+000	-5.59874E-004	-1.10498E-001	3.61404E-002	3.28582E+001	11	...........	6.03492E-002	-4.47486E-003	5.75676E-001	6.16142E-001	-2.92044E-002	-3.91960E-002	6.65267E-001	-4.34014E-002	-6.77798E-004	5.02584E-005	-6.46557E-003	-6.92006E-003	3.28003E-004	4.40221E-004	-7.47179E-003	4.87453E-004
	35	35	4.98554E-002	-1.09917E-002	0.00000E+000	-5.47995E-004	-1.08111E-001	3.63135E-002	3.22193E+001	11	...........	6.06054E-002	-4.48417E-003	5.75652E-001	6.16354E-001	-2.91682E-002	-3.91872E-002	6.65263E-001	-4.33981E-002	-6.66156E-004	4.92886E-005	-6.32739E-003	-6.77477E-003	3.20608E-004	4.30734E-004	-7.31237E-003	4.77018E-004
	36	36	4.98518E-002	-1.08403E-002	0.00000E+000	-5.40407E-004	-1.06603E-001	3.63023E-002	3.23236E+001	11	...........	6.05915E-002	-4.49194E-003	5.75782E-001	6.16359E-001	-2.91528E-002	-3.92261E-002	6.65430E-001	-4.34043E-002	-6.56829E-004	4.86939E-005	-6.24163E-003	-6.68150E-003	3.16024E-004	4.25222E-004	-7.21344E-003	4.70515E-004
	37	37	4.98575E-002	-1.06893E-002	0.00000E+000	-5.32943E-004	-1.05105E-001	3.62439E-002	3.24329E+001	11	...........	6.05053E-002	-4.50431E-003	5.75822E-001	6.16271E-001	-2.91424E-002	-3.92247E-002	6.65372E-001	-4.34836E-002	-6.46761E-004	4.81480E-005	-6.15515E-003	-6.58752E-003	3.11512E-004	4.19286E-004	-7.11238E-003	4.64811E-004
	38	38	4.98555E-002	-1.05631E-002	0.00000E+000	-5.26628E-004	-1.03855E-001	3.62817E-002	3.26103E+001	11	...........	6.05649E-002	-4.46681E-003	5.75743E-001	6.16148E-001	-2.91607E-002	-3.92143E-002	6.65333E-001	-4.35111E-002	-6.39752E-004	4.71832E-005	-6.08162E-003	-6.50842E-003	3.08027E-004	4.14224E-004	-7.02796E-003	4.59611E-004
	39	39	4.98537E-002	-1.04526E-002	0.00000E+000	-5.21103E-004	-1.02777E-001	3.63681E-002	3.30318E+001	11	...........	6.07312E-002	-4.48125E-003	5.75811E-001	6.16009E-001	-2.91750E-002	-3.91937E-002	6.65359E-001	-4.34026E-002	-6.34801E-004	4.68409E-005	-6.01874E-003	-6.43892E-003	3.04956E-004	4.09678E-004	-6.95475E-003	4.53672E-004
	40	40	4.98539E-002	-1.02961E-002	0.00000E+000	-5.13301E-004	-1.01241E-001	3.63366E-002	3.28633E+001	11	...........	6.06378E-002	-4.49319E-003	5.75796E-001	6.15966E-001	-2.92129E-002	-3.91644E-002	6.65120E-001	-4.34060E-002	-6.24333E-004	4.62624E-005	-5.92846E-003	-6.34205E-003	3.00779E-004	4.03241E-004	-6.84815E-003	4.46913E-004
	41	41	4.98545E-002	-1.00849E-002	0.00000E+000	-5.02776E-004	-9.91307E-002	3.63745E-002	3.23117E+001	11	...........	6.06985E-002	-4.48958E-003	5.75872E-001	6.15897E-001	-2.92153E-002	-3.91410E-002	6.65081E-001	-4.34872E-002	-6.12136E-004	4.52768E-005	-5.80759E-003	-6.21124E-003	2.94632E-004	3.94731E-004	-6.70726E-003	4.38563E-004
	42	42	4.98546E-002	-9.91174E-003	0.00000E+000	-4.94145E-004	-9.74133E-002	3.62700E-002	3.27598E+001	11	...........	6.05451E-002	-4.46306E-003	5.75974E-001	6.15765E-001	-2.91618E-002	-3.91371E-002	6.65132E-001	-4.33719E-002	-6.00108E-004	4.42366E-005	-5.70890E-003	-6.10330E-003	2.89044E-004	3.87916E-004	-6.59261E-003	4.29891E-004
	43	43	4.98550E-002	-9.89026E-003	0.00000E+000	-4.93079E-004	-9.71927E-002	3.64087E-002	3.30189E+001	11	...........	6.07537E-002	-4.58417E-003	5.76035E-001	6.15579E-001	-2.91500E-002	-3.91494E-002	6.65230E-001	-4.34274E-002	-6.00870E-004	4.53386E-005	-5.69713E-003	-6.08823E-003	2.88301E-004	3.87198E-004	-6.57929E-003	4.29508E-004
	44	44	4.98543E-002	-9.71508E-003	0.00000E+000	-4.84339E-004	-9.54473E-002	3.63387E-002	3.28130E+001	11	...........	6.06511E-002	-4.55833E-003	5.76080E-001	6.15547E-001	-2.91387E-002	-3.91764E-002	6.65226E-001	-4.35894E-002	-5.89231E-004	4.42846E-005	-5.59667E-003	-5.98009E-003	2.83085E-004	3.80602E-004	-6.46272E-003	4.23475E-004
	45	45	4.98537E-002	-9.60847E-003	0.00000E+000	-4.79017E-004	-9.43920E-002	3.64683E-002	3.33732E+001	11	...........	6.08707E-002	-4.40181E-003	5.76099E-001	6.15534E-001	-2.91971E-002	-3.91961E-002	6.65111E-001	-4.35050E-002	-5.84874E-004	4.22946E-005	-5.53543E-003	-5.91434E-003	2.80539E-004	3.76615E-004	-6.39070E-003	4.18017E-004
	46	46	4.98531E-002	-9.40724E-003	0.00000E+000	-4.68980E-004	-9.23820E-002	3.63467E-002	3.23225E+001	11	...........	6.06564E-002	-4.56333E-003	5.76074E-001	6.15824E-001	-2.91729E-002	-3.91929E-002	6.65157E-001	-4.34590E-002	-5.70609E-004	4.29284E-005	-5.41926E-003	-5.79320E-003	2.74437E-004	3.68697E-004	-6.25729E-003	4.08829E-004
	47	47	4.98567E-002	-9.29566E-003	0.00000E+000	-4.63451E-004	-9.12780E-002	3.63553E-002	3.26798E+001	11	...........	6.06811E-002	-4.63278E-003	5.75995E-001	6.15557E-001	-2.91385E-002	-3.92039E-002	6.65135E-001	-4.33876E-002	-5.64071E-004	4.30647E-005	-5.35425E-003	-5.72201E-003	2.70861E-004	3.64426E-004	-6.18286E-003	4.03317E-004
	48	48	4.98551E-002	-9.24121E-003	0.00000E+000	-4.60721E-004	-9.07327E-002	3.63966E-002	3.33091E+001	11	...........	6.07300E-002	-4.62764E-003	5.76003E-001	6.15394E-001	-2.91078E-002	-3.92096E-002	6.65232E-001	-4.33292E-002	-5.61218E-004	4.27650E-005	-5.32297E-003	-5.68699E-003	2.68991E-004	3.62344E-004	-6.14755E-003	4.00414E-004
	49	49	4.98534E-002	-9.11786E-003	0.00000E+000	-4.54556E-004	-8.95187E-002	3.64483E-002	3.29616E+001	11	...........	6.08140E-002	-4.62014E-003	5.75901E-001	6.15677E-001	-2.91896E-002	-3.91876E-002	6.65199E-001	-4.33451E-002	-5.54494E-004	4.21258E-005	-5.25098E-003	-5.61366E-003	2.66146E-004	3.57307E-004	-6.06519E-003	3.95215E-004
	50	50	4.98546E-002	-8.93404E-003	0.00000E+000	-4.45403E-004	-8.76813E-002	3.63911E-002	3.32442E+001	11	...........	6.07364E-002	-4.64792E-003	5.75828E-001	6.15795E-001	-2.91586E-002	-3.92075E-002	6.65252E-001	-4.33317E-002	-5.42621E-004	4.15247E-005	-5.14447E-003	-5.50153E-003	2.60504E-004	3.50281E-004	-5.94339E-003	3.87127E-004
	51	51	4.98540E-002	-8.82655E-003	0.00000E+000	-4.40038E-004	-8.66087E-002	3.63852E-002	3.24396E+001	11	...........	6.07149E-002	-4.62875E-003	5.75924E-001	6.15821E-001	-2.92019E-002	-3.92571E-002	6.65318E-001	-4.33221E-002	-5.35902E-004	4.08559E-005	-5.08342E-003	-5.43557E-003	2.57752E-004	3.46504E-004	-5.87246E-003	3.82384E-004
	52	52	4.98569E-002	-8.75095E-003	0.00000E+000	-4.36296E-004	-8.58560E-002	3.64415E-002	3.33857E+001	11	...........	6.08057E-002	-4.56250E-003	5.76192E-001	6.15618E-001	-2.91375E-002	-3.92224E-002	6.65164E-001	-4.33299E-002	-5.32108E-004	3.99262E-005	-5.04223E-003	-5.38725E-003	2.54981E-004	3.43233E-004	-5.82082E-003	3.79178E-004
	53	53	4.98550E-002	-8.65295E-003	0.00000E+000	-4.31393E-004	-8.48827E-002	3.64019E-002	3.31617E+001	11	...........	6.07418E-002	-4.46889E-003	5.76353E-001	6.15622E-001	-2.92008E-002	-3.91449E-002	6.65196E-001	-4.33271E-002	-5.25596E-004	3.86691E-005	-4.98715E-003	-5.32694E-003	2.52673E-004	3.38718E-004	-5.75591E-003	3.74907E-004
	54	54	4.98542E-002	-8.56490E-003	0.00000E+000	-4.26996E-004	-8.40020E-002	3.64602E-002	3.33605E+001	11	...........	6.08194E-002	-4.41889E-003	5.76399E-001	6.15488E-001	-2.91979E-002	-3.91756E-002	6.65268E-001	-4.33401E-002	-5.20913E-004	3.78473E-005	-4.93680E-003	-5.27159E-003	2.50077E-004	3.35535E-004	-5.69795E-003	3.71204E-004
	55	55	4.98550E-002	-8.40941E-003	0.00000E+000	-4.19251E-004	-8.24593E-002	3.64221E-002	3.28511E+001	11	...........	6.08051E-002	-4.46125E-003	5.76444E-001	6.15358E-001	-2.91804E-002	-3.92150E-002	6.65266E-001	-4.33450E-002	-5.11336E-004	3.75165E-005	-4.84756E-003	-5.17480E-003	2.45390E-004	3.29775E-004	-5.59450E-003	3.64506E-004
	56	56	4.98554E-002	-8.34417E-003	0.00000E+000	-4.16002E-004	-8.18093E-002	3.64623E-002	3.35341E+001	11	...........	6.08489E-002	-4.53986E-003	5.76495E-001	6.15336E-001	-2.91485E-002	-3.91615E-002	6.65294E-001	-4.33333E-002	-5.07733E-004	3.78814E-005	-4.81037E-003	-5.13447E-003	2.43220E-004	3.26770E-004	-5.55133E-003	3.61581E-004
	57	57	4.98542E-002	-8.24245E-003	0.00000E+000	-4.10921E-004	-8.08007E-002	3.64278E-002	3.30127E+001	11	...........	6.07835E-002	-4.38931E-003	5.76511E-001	6.15332E-001	-2.92014E-002	-3.91056E-002	6.65305E-001	-4.33447E-002	-5.01005E-004	3.61786E-005	-4.75186E-003	-5.07185E-003	2.40691E-004	3.22326E-004	-5.48375E-003	3.57267E-004
	58	58	4.98549E-002	-8.11376E-003	0.00000E+000	-4.04511E-004	-7.95187E-002	3.64427E-002	3.33141E+001	11	...........	6.08122E-002	-4.51278E-003	5.76439E-001	6.15285E-001	-2.91831E-002	-3.91422E-002	6.65298E-001	-4.33572E-002	-4.93416E-004	3.66156E-005	-4.67709E-003	-4.99228E-003	2.36784E-004	3.17591E-004	-5.39807E-003	3.51790E-004
	59	59	4.98542E-002	-8.02757E-003	0.00000E+000	-4.00208E-004	-7.86527E-002	3.65137E-002	3.33332E+001	11	...........	6.09431E-002	-4.44792E-003	5.76216E-001	6.15313E-001	-2.92101E-002	-3.91803E-002	6.65255E-001	-4.33579E-002	-4.89225E-004	3.57060E-005	-4.62562E-003	-4.93947E-003	2.34487E-004	3.14523E-004	-5.34038E-003	3.48059E-004
	60	60	4.98545E-002	-7.90751E-003	0.00000E+000	-3.94225E-004	-7.74693E-002	3.65092E-002	3.32613E+001	11	...........	6.09194E-002	-4.59778E-003	5.76207E-001	6.15341E-001	-2.91694E-002	-3.91404E-002	6.65232E-001	-4.34246E-002	-4.81721E-004	3.63570E-005	-4.55636E-003	-4.86582E-003	2.30658E-004	3.09503E-004	-5.26033E-003	3.43380E-004
	61	61	4.98552E-002	-7.82750E-003	0.00000E+000	-3.90241E-004	-7.66900E-002	3.64887E-002	3.29632E+001	11	...........	6.08937E-002	-4.55681E-003	5.76214E-001	6.15426E-001	-2.92249E-002	-3.91032E-002	6.65206E-001	-4.33575E-002	-4.76646E-004	3.56684E-005	-4.51031E-003	-4.81724E-003	2.28758E-004	3.06080E-004	-5.20690E-003	3.39381E-004
	62	62	4.98566E-002	-7.76361E-003	0.00000E+000	-3.87067E-004	-7.60653E-002	3.64707E-002	3.34406E+001	11	...........	6.08681E-002	-4.60292E-003	5.76225E-001	6.15523E-001	-2.91910E-002	-3.91419E-002	6.65293E-001	-4.33874E-002	-4.72556E-004	3.57352E-005	-4.47358E-003	-4.77868E-003	2.26627E-004	3.03883E-004	-5.16507E-003	3.36842E-004
	63	63	4.98545E-002	-7.68774E-003	0.00000E+000	-3.83269E-004	-7.52953E-002	3.65062E-002	3.39729E+001	11	...........	6.09147E-002	-4.60250E-003	5.76181E-001	6.15721E-001	-2.91976E-002	-3.91640E-002	6.65297E-001	-4.33594E-002	-4.68296E-004	3.53828E-005	-4.42953E-003	-4.73350E-003	2.24464E-004	3.01083E-004	-5.11463E-003	3.33336E-004
	64	64	4.98536E-002	-7.53329E-003	0.00000E+000	-3.75562E-004	-7.37533E-002	3.65146E-002	3.28239E+001	11	...........	6.09299E-002	-4.63778E-003	5.76233E-001	6.15869E-001	-2.91064E-002	-3.91447E-002	6.65407E-001	-4.33579E-002	-4.59002E-004	3.49377E-005	-4.34093E-003	-4.63952E-003	2.19267E-004	2.94889E-004	-5.01271E-003	3.26628E-004
	65	65	4.98567E-002	-7.40889E-003	0.00000E+000	-3.69383E-004	-7.25127E-002	3.64078E-002	3.22923E+001	11	...........	6.07843E-002	-4.61000E-003	5.76210E-001	6.15629E-001	-2.91369E-002	-3.90965E-002	6.65466E-001	-4.33518E-002	-4.50344E-004	3.41550E-005	-4.26908E-003	-4.56113E-003	2.15872E-004	2.89662E-004	-4.93036E-003	3.21189E-004
	66	66	4.98551E-002	-7.38878E-003	0.00000E+000	-3.68368E-004	-7.23133E-002	3.65186E-002	3.34581E+001	11	...........	6.09467E-002	-4.62125E-003	5.76242E-001	6.15534E-001	-2.91472E-002	-3.90781E-002	6.65384E-001	-4.33319E-002	-4.50322E-004	3.41454E-005	-4.25773E-003	-4.54805E-003	2.15362E-004	2.88739E-004	-4.91637E-003	3.20170E-004
	67	67	4.98549E-002	-7.32686E-003	0.00000E+000	-3.65279E-004	-7.17040E-002	3.65511E-002	3.30511E+001	11	...........	6.10050E-002	-4.51139E-003	5.76226E-001	6.15631E-001	-2.91039E-002	-3.91068E-002	6.65340E-001	-4.33361E-002	-4.46975E-004	3.30543E-005	-4.22193E-003	-4.51064E-003	2.13240E-004	2.86530E-004	-4.87485E-003	3.17518E-004
	68	68	4.98549E-002	-7.19404E-003	0.00000E+000	-3.58658E-004	-7.03807E-002	3.65285E-002	3.34528E+001	11	...........	6.09646E-002	-4.42236E-003	5.76242E-001	6.15601E-001	-2.91428E-002	-3.91076E-002	6.65288E-001	-4.33247E-002	-4.38582E-004	3.18147E-005	-4.14551E-003	-4.42866E-003	2.09654E-004	2.81342E-004	-4.78611E-003	3.11680E-004
	69	69	4.98556E-002	-7.15005E-003	0.00000E+000	-3.56470E-004	-6.99460E-002	3.65836E-002	3.31664E+001	11	...........	6.10599E-002	-4.53625E-003	5.76239E-001	6.15509E-001	-2.91333E-002	-3.91089E-002	6.65269E-001	-4.33451E-002	-4.36581E-004	3.24344E-005	-4.12014E-003	-4.40092E-003	2.08305E-004	2.79631E-004	-4.75671E-003	3.09920E-004
	70	70	4.98553E-002	-7.02316E-003	0.00000E+000	-3.50142E-004	-6.86813E-002	3.64849E-002	3.32732E+001	11	...........	6.08800E-002	-4.41750E-003	5.76297E-001	6.15384E-001	-2.91085E-002	-3.90862E-002	6.65243E-001	-4.34262E-002	-4.27570E-004	3.10248E-005	-4.04742E-003	-4.32194E-003	2.04433E-004	2.74509E-004	-4.67211E-003	3.04989E-004
	71	71	4.98552E-002	-6.99623E-003	0.00000E+000	-3.48798E-004	-6.84160E-002	3.65898E-002	3.35830E+001	11	...........	6.10614E-002	-4.36583E-003	5.76396E-001	6.15491E-001	-2.90979E-002	-3.90936E-002	6.65221E-001	-4.33972E-002	-4.27200E-004	3.05444E-005	-4.03260E-003	-4.30611E-003	2.03576E-004	2.73508E-004	-4.65404E-003	3.03617E-004
	72	72	4.98547E-002	-6.92939E-003	0.00000E+000	-3.45463E-004	-6.77433E-002	3.65844E-002	3.33704E+001	11	...........	6.10618E-002	-4.42542E-003	5.76535E-001	6.15532E-001	-2.90908E-002	-3.90581E-002	6.65216E-001	-4.34615E-002	-4.23121E-004	3.06655E-005	-3.99504E-003	-4.26526E-003	2.01582E-004	2.70649E-004	-4.60954E-003	3.01162E-004
	73	73	4.98550E-002	-6.81907E-003	0.00000E+000	-3.39965E-004	-6.66493E-002	3.65965E-002	3.34342E+001	11	...........	6.10829E-002	-4.56819E-003	5.76494E-001	6.15788E-001	-2.91517E-002	-3.90521E-002	6.65353E-001	-4.35168E-002	-4.16529E-004	3.11508E-005	-3.93116E-003	-4.19910E-003	1.98787E-004	2.66299E-004	-4.53709E-003	2.96744E-004
	74	74	4.98552E-002	-6.70383E-003	0.00000E+000	-3.34221E-004	-6.54967E-002	3.64866E-002	3.22231E+001	11	...........	6.09017E-002	-4.53056E-003	5.76362E-001	6.15794E-001	-2.91950E-002	-3.90281E-002	6.65275E-001	-4.33774E-002	-4.08275E-004	3.03721E-005	-3.86383E-003	-4.12818E-003	1.95718E-004	2.61638E-004	-4.45989E-003	2.90795E-004
	75	75	4.98562E-002	-6.68363E-003	0.00000E+000	-3.33220E-004	-6.53013E-002	3.66342E-002	3.31297E+001	11	...........	6.11506E-002	-4.51056E-003	5.76436E-001	6.15898E-001	-2.91672E-002	-3.90119E-002	6.65161E-001	-4.33976E-002	-4.08708E-004	3.01469E-005	-3.85269E-003	-4.11644E-003	1.94943E-004	2.60742E-004	-4.44569E-003	2.90054E-004
	76	76	4.98553E-002	-6.60993E-003	0.00000E+000	-3.29540E-004	-6.45733E-002	3.65507E-002	3.33440E+001	11	...........	6.10051E-002	-4.59236E-003	5.76656E-001	6.15790E-001	-2.91660E-002	-3.90015E-002	6.65216E-001	-4.34146E-002	-4.03240E-004	3.03552E-005	-3.81166E-003	-4.07033E-003	1.92785E-004	2.57797E-004	-4.39703E-003	2.86967E-004
	77	77	4.98551E-002	-6.55446E-003	0.00000E+000	-3.26773E-004	-6.40333E-002	3.66237E-002	3.35626E+001	11	...........	6.11382E-002	-4.48028E-003	5.76510E-001	6.15541E-001	-2.91562E-002	-3.90043E-002	6.65448E-001	-4.34157E-002	-4.00728E-004	2.93658E-005	-3.77871E-003	-4.03454E-003	1.91103E-004	2.55652E-004	-4.36165E-003	2.84566E-004
	78	78	4.98549E-002	-6.48466E-003	0.00000E+000	-3.23292E-004	-6.33460E-002	3.66274E-002	3.33247E+001	11	...........	6.11362E-002	-4.59069E-003	5.76545E-001	6.15424E-001	-2.91779E-002	-3.89904E-002	6.65356E-001	-4.33592E-002	-3.96448E-004	2.97691E-005	-3.73870E-003	-3.99081E-003	1.89209E-004	2.52839E-004	-4.31460E-003	2.81169E-004
	79	79	4.98548E-002	-6.39814E-003	0.00000E+000	-3.18978E-004	-6.24620E-002	3.65882E-002	3.29085E+001	11	...........	6.10553E-002	-4.46569E-003	5.76648E-001	6.15429E-001	-2.91664E-002	-3.89689E-002	6.65359E-001	-4.35487E-002	-3.90640E-004	2.85721E-005	-3.68948E-003	-3.93760E-003	1.86611E-004	2.49328E-004	-4.25706E-003	2.78631E-004
	80	80	4.98566E-002	-6.33752E-003	0.00000E+000	-3.15967E-004	-6.18607E-002	3.65824E-002	3.32857E+001	11	...........	6.10454E-002	-4.48056E-003	5.76581E-001	6.15482E-001	-2.91954E-002	-3.89767E-002	6.65372E-001	-4.36097E-002	-3.86877E-004	2.83956E-005	-3.65409E-003	-3.90063E-003	1.85027E-004	2.47015E-004	-4.21681E-003	2.76377E-004
	81	81	4.98557E-002	-6.29457E-003	0.00000E+000	-3.13820E-004	-6.14293E-002	3.65728E-002	3.38805E+001	11	...........	6.10704E-002	-4.52958E-003	5.76553E-001	6.15483E-001	-2.92294E-002	-3.90124E-002	6.65393E-001	-4.34587E-002	-3.84412E-004	2.85118E-005	-3.62915E-003	-3.87420E-003	1.83987E-004	2.45566E-004	-4.18836E-003	2.73554E-004
	82	82	4.98549E-002	-6.21763E-003	0.00000E+000	-3.09979E-004	-6.06653E-002	3.66031E-002	3.32649E+001	11	...........	6.10933E-002	-4.40278E-003	5.76395E-001	6.15524E-001	-2.92468E-002	-3.90285E-002	6.65352E-001	-4.34154E-002	-3.79855E-004	2.73748E-005	-3.58381E-003	-3.82710E-003	1.81846E-004	2.42664E-004	-4.13691E-003	2.69941E-004
	83	83	4.98557E-002	-6.13253E-003	0.00000E+000	-3.05741E-004	-5.98160E-002	3.66315E-002	3.36546E+001	11	...........	6.11415E-002	-4.35403E-003	5.76334E-001	6.15403E-001	-2.92569E-002	-3.90544E-002	6.65332E-001	-4.33987E-002	-3.74952E-004	2.67012E-005	-3.53438E-003	-3.77397E-003	1.79419E-004	2.39502E-004	-4.08017E-003	2.66144E-004
	84	84	4.98556E-002	-6.07918E-003	0.00000E+000	-3.03081E-004	-5.92893E-002	3.65683E-002	3.30826E+001	11	...........	6.10272E-002	-4.51292E-003	5.76310E-001	6.15408E-001	-2.92753E-002	-3.90376E-002	6.65361E-001	-4.34744E-002	-3.70995E-004	2.74348E-005	-3.50349E-003	-3.74118E-003	1.77970E-004	2.37317E-004	-4.04485E-003	2.64289E-004
	85	85	4.98555E-002	-6.06019E-003	0.00000E+000	-3.02134E-004	-5.91000E-002	3.66968E-002	3.38173E+001	11	...........	6.12372E-002	-4.60250E-003	5.76499E-001	6.15514E-001	-2.92668E-002	-3.90507E-002	6.65216E-001	-4.36071E-002	-3.71109E-004	2.78920E-005	-3.49369E-003	-3.73013E-003	1.77362E-004	2.36655E-004	-4.03133E-003	2.64267E-004
	86	86	4.98555E-002	-5.97440E-003	0.00000E+000	-2.97857E-004	-5.82433E-002	3.65914E-002	3.30535E+001	11	...........	6.10842E-002	-4.50611E-003	5.76573E-001	6.15584E-001	-2.92729E-002	-3.90767E-002	6.65236E-001	-4.35032E-002	-3.64941E-004	2.69213E-005	-3.44468E-003	-3.67774E-003	1.74888E-004	2.33460E-004	-3.97438E-003	2.59905E-004
	87	87	4.98550E-002	-5.88615E-003	0.00000E+000	-2.93454E-004	-5.73673E-002	3.66373E-002	3.33703E+001	11	...........	6.11511E-002	-4.33833E-003	5.76643E-001	6.15652E-001	-2.92537E-002	-3.90865E-002	6.65307E-001	-4.34258E-002	-3.59945E-004	2.55361E-005	-3.39421E-003	-3.62382E-003	1.72192E-004	2.30069E-004	-3.91610E-003	2.55611E-004
	88	88	4.98556E-002	-5.84757E-003	0.00000E+000	-2.91534E-004	-5.69833E-002	3.65987E-002	3.32268E+001	11	...........	6.10937E-002	-4.46931E-003	5.76675E-001	6.15433E-001	-2.92672E-002	-3.90942E-002	6.65391E-001	-4.34542E-002	-3.57250E-004	2.61346E-005	-3.37215E-003	-3.59879E-003	1.71142E-004	2.28606E-004	-3.89092E-003	2.54101E-004
	89	89	4.98557E-002	-5.80500E-003	0.00000E+000	-2.89412E-004	-5.65573E-002	3.67362E-002	3.37974E+001	11	...........	6.13204E-002	-4.42556E-003	5.76877E-001	6.15439E-001	-2.92462E-002	-3.90968E-002	6.65326E-001	-4.33874E-002	-3.55965E-004	2.56904E-005	-3.34877E-003	-3.57263E-003	1.69775E-004	2.26957E-004	-3.86222E-003	2.51864E-004
	90	90	4.98557E-002	-5.75758E-003	0.00000E+000	-2.87048E-004	-5.60920E-002	3.66067E-002	3.33131E+001	11	...........	6.11069E-002	-4.47153E-003	5.77068E-001	6.15387E-001	-2.92522E-002	-3.91254E-002	6.65253E-001	-4.33761E-002	-3.51828E-004	2.57452E-005	-3.32251E-003	-3.54314E-003	1.68422E-004	2.25268E-004	-3.83025E-003	2.49741E-004
	91	91	4.98550E-002	-5.67655E-003	0.00000E+000	-2.83004E-004	-5.52887E-002	3.66674E-002	3.34122E+001	11	...........	6.11929E-002	-4.44625E-003	5.76992E-001	6.15558E-001	-2.92175E-002	-3.91376E-002	6.65377E-001	-4.35685E-002	-3.47364E-004	2.52393E-005	-3.27532E-003	-3.49424E-003	1.65854E-004	2.22167E-004	-3.77705E-003	2.47318E-004
	92	92	4.98556E-002	-5.62309E-003	0.00000E+000	-2.80342E-004	-5.47480E-002	3.66708E-002	3.29695E+001	11	...........	6.12178E-002	-4.39306E-003	5.77036E-001	6.15912E-001	-2.92343E-002	-3.91018E-002	6.65338E-001	-4.35150E-002	-3.44233E-004	2.47025E-005	-3.24472E-003	-3.46333E-003	1.64387E-004	2.19873E-004	-3.74125E-003	2.44689E-004
	93	93	4.98555E-002	-5.55506E-003	0.00000E+000	-2.76951E-004	-5.40780E-002	3.65848E-002	3.34913E+001	11	...........	6.10737E-002	-4.41542E-003	5.77064E-001	6.16002E-001	-2.92521E-002	-3.91090E-002	6.65349E-001	-4.33954E-002	-3.39268E-004	2.45279E-005	-3.20563E-003	-3.42193E-003	1.62497E-004	2.17253E-004	-3.69605E-003	2.41064E-004
	94	94	4.98564E-002	-5.53399E-003	0.00000E+000	-2.75905E-004	-5.38647E-002	3.67044E-002	3.38317E+001	11	...........	6.12474E-002	-4.51708E-003	5.77097E-001	6.15975E-001	-2.92351E-002	-3.90886E-002	6.65293E-001	-4.34479E-002	-3.38942E-004	2.49975E-005	-3.19365E-003	-3.40880E-003	1.61787E-004	2.16316E-004	-3.68173E-003	2.40440E-004
	95	95	4.98549E-002	-5.47682E-003	0.00000E+000	-2.73046E-004	-5.32933E-002	3.66345E-002	3.34356E+001	11	...........	6.11453E-002	-4.57847E-003	5.77116E-001	6.15991E-001	-2.92615E-002	-3.90614E-002	6.65353E-001	-4.34447E-002	-3.34882E-004	2.50755E-005	-3.16076E-003	-3.37367E-003	1.60260E-004	2.13932E-004	-3.64402E-003	2.37939E-004
	96	96	4.98558E-002	-5.41635E-003	0.00000E+000	-2.70037E-004	-5.26940E-002	3.67826E-002	3.36446E+001	11	...........	6.13921E-002	-4.60778E-003	5.77201E-001	6.15954E-001	-2.92921E-002	-3.90697E-002	6.65510E-001	-4.34158E-002	-3.32521E-004	2.49574E-005	-3.12633E-003	-3.33622E-003	1.58656E-004	2.11615E-004	-3.60464E-003	2.35156E-004
	97	97	4.98553E-002	-5.36564E-003	0.00000E+000	-2.67506E-004	-5.21860E-002	3.65720E-002	3.34568E+001	11	...........	6.10539E-002	-4.56056E-003	5.77357E-001	6.15755E-001	-2.92981E-002	-3.90533E-002	6.65531E-001	-4.33915E-002	-3.27593E-004	2.44703E-005	-3.09789E-003	-3.30392E-003	1.57203E-004	2.09546E-004	-3.57100E-003	2.32823E-004
	98	98	4.98558E-002	-5.33042E-003	0.00000E+000	-2.65752E-004	-5.18333E-002	3.67121E-002	3.33736E+001	11	...........	6.12954E-002	-4.31222E-003	5.77441E-001	6.15850E-001	-2.92707E-002	-3.90410E-002	6.65538E-001	-4.34039E-002	-3.26730E-004	2.29859E-005	-3.07800E-003	-3.28274E-003	1.56025E-004	2.08105E-004	-3.54760E-003	2.31361E-004
	99	99	4.98560E-002	-5.29703E-003	0.00000E+000	-2.64089E-004	-5.15013E-002	3.67495E-002	3.38650E+001	11	...........	6.13162E-002	-4.41833E-003	5.77476E-001	6.15898E-001	-2.92294E-002	-3.90283E-002	6.65537E-001	-4.34364E-002	-3.24794E-004	2.34041E-005	-3.05891E-003	-3.26243E-003	1.54829E-004	2.06734E-004	-3.52537E-003	2.30084E-004
	100	100	4.98548E-002	-5.20968E-003	0.00000E+000	-2.59727E-004	-5.06513E-002	3.66411E-002	3.33116E+001	11	...........	6.11578E-002	-4.61306E-003	5.77390E-001	6.16037E-001	-2.91831E-002	-3.90024E-002	6.65531E-001	-4.34897E-002	-3.18612E-004	2.40325E-005	-3.00802E-003	-3.20935E-003	1.52034E-004	2.03190E-004	-3.46720E-003	2.26567E-004
	101	101	4.98557E-002	-5.15615E-003	0.00000E+000	-2.57063E-004	-5.01180E-002	3.66532E-002	3.29233E+001	11	...........	6.11774E-002	-4.61458E-003	5.77333E-001	6.16093E-001	-2.91339E-002	-3.90006E-002	6.65384E-001	-4.34235E-002	-3.15439E-004	2.37935E-005	-2.97681E-003	-3.17666E-003	1.50219E-004	2.01093E-004	-3.43082E-003	2.23898E-004
	102	102	4.98561E-002	-5.14512E-003	0.00000E+000	-2.56516E-004	-5.00067E-002	3.67942E-002	3.40622E+001	11	...........	6.14321E-002	-4.64264E-003	5.77318E-001	6.16219E-001	-2.91578E-002	-3.89972E-002	6.65399E-001	-4.33718E-002	-3.16075E-004	2.38869E-005	-2.97037E-003	-3.17052E-003	1.50020E-004	2.00645E-004	-3.42356E-003	2.23153E-004
	103	102.557	4.98537E-002	-5.09939E-003	0.00000E+000	-2.54223E-004	-4.95521E-002	3.66799E-002	3.36867E+001	11	...........	6.12547E-002	-4.54291E-003	5.77228E-001	6.16246E-001	-2.91397E-002	-3.90155E-002	6.65472E-001	-4.34054E-002	-3.12362E-004	2.31661E-005	-2.94351E-003	-3.14248E-003	1.48595E-004	1.98955E-004	-3.39350E-003	2.21341E-004
STARTTIMEOFFSET	QUANT	806879.6	Start Time Offset (s)
