EXPLAIN
TAG	PWR800_DISCHARGE
TITLE	LABEL	PWR Discharge	Test Identifier
DATE	LABEL	10/11/2022	Date
TIME	LABEL	9:23:21	Time
NOTES	NOTES	1	Notes...
	
PSTAT	PSTAT	REF3000-21114	Potentiostat
CAPACITY	QUANT	5.30000E-002	Capacity (A-hr)
CELLTYPE	SELECTOR	1	Cell Type
WORKINGCONNECTION	SELECTOR	0	Working Connection
MAXDISCHARGETIME	VARIABLEANDUNITS	7.20000E+003	s	2.00000E+000	hour(s)	Max Discharge Time
DISCHARGEMODE	MULTIPARAM	0	1.00000E-001	Discharge Mode	Constant Current	Amp(s)
VOLTAGEFINISH	TWOPARAM	T	5.00000E-003	7.20000E+003	Voltage Finish	I (A) <	Max Time(s)
SAMPLETIME	QUANT	1.00000E+000	Sample Period (s)
DISCHARGESTOPAT1	MULTIPARAM	1	5.00000E-002	Stop At 1	|Voltage| < Limit	V
DISCHARGESTOPAT2	MULTIPARAM	0	0.00000E+000	Stop At 2	None	N/A
AESELECTOR	AESELECTOR	0x1	T	Set Limits	AE Channels
AESBHCSELECTOR	TOGGLE	F	Save Both Half Cells
IRCOMP	TOGGLE	F	IR Measure
EOC	QUANT	0.5889145	Open Circuit (V)
SEQUENCER	TOGGLE	TRUE	Run as Sequence
PSTATMODEL	IQUANT	5	Pstat Model
PSTATSECTION	LABEL	REF3000-21114	Pstat Section
PSTATSERIALNO	LABEL	21114	Pstat Serial Number
CTRLMODE	IQUANT	0	Control Mode
ELECTROMETER	IQUANT	0	RE=0 or CS=1
IESTAB	IQUANT	0	I/E Stability
CASPEED	IQUANT	4	Control Amp Speed
CONVENTION	IQUANT	1	Current Convention
ICHRANGE	IQUANT	2	Ich Range
ICHRANGEMODE	TOGGLE	T	Ich Auto Range
ICHOFFSETENABLE	TOGGLE	F	Ich Offset Enable
ICHOFFSET	QUANT	0	Ich Offset (V)
ICHFILTER	IQUANT	1	Ich Filter
VCHRANGE	IQUANT	3	Vch Range
VCHRANGEMODE	TOGGLE	T	Vch Auto Range
VCHOFFSETENABLE	TOGGLE	F	Vch Offset Enable
VCHOFFSET	QUANT	0	Vch Offset (V)
VCHFILTER	IQUANT	1	Vch Filter
ACHRANGE	IQUANT	2	Ach Range
ACHOFFSETENABLE	TOGGLE	F	Ach Offset Enable
ACHOFFSET	QUANT	0	Ach Offset (V)
ACHFILTER	IQUANT	1	Ach Filter
IERANGELOWERLIMIT	IQUANT	9	I/E Range Lower Limit
IERANGEMODE	TOGGLE	F	I/E AutoRange
IERANGE	IQUANT	9	I/E Range
POSFEEDENABLE	TOGGLE	F	Positive Feedback IR Comp
POSFEEDRESISTANCE	QUANT	0	Positive Feedback Resistance (ohm)
ACHSELECT	IQUANT	1	Ach Select
SENSECABLEID	IQUANT	13	Sense Cable ID
PWRCABLEID	IQUANT	13	Power Cable ID
DCCALDATE	LABEL		DC Calibration Date
ACCALDATE	LABEL		AC Calibration Date
THERMOSELECT	IQUANT	1	Thermo Select
FRAMEWORKVERSION	LABEL	7.8.6	Framework Version
INSTRUMENTVERSION	LABEL	4.50	Instrument Version
COMPLIANCEVOLTAGE	IQUANT	0	Compliance Voltage
CURVE	TABLE	278
	Pt	T	Vf	Im	Vu	Pwr	Sig	Ach	Temp	IERange	Over	Vf1	Vf2	Vf3	Vf4	Vf5	Vf6	Vf7	Vf8	Pwr1	Pwr2	Pwr3	Pwr4	Pwr5	Pwr6	Pwr7	Pwr8
	#	s	V	A	V	W	V	V	deg C	#	bits	V	V	V	V	V	V	V	V	W	W	W	W	W	W	W	W
	0	1	3.78809E-001	-1.00086E-001	0.00000E+000	-3.79136E-002	-9.94000E-001	3.16666E-002	2.74342E+001	11	...........	5.25074E-002	-3.45208E-003	5.55789E-001	6.87994E-001	-3.09635E-002	-3.94592E-002	6.45706E-001	-4.24982E-002	-5.25527E-003	3.45507E-004	-5.56269E-002	-6.88588E-002	3.09902E-003	3.94933E-003	-6.46264E-002	4.25349E-003
	1	2	2.89493E-001	-1.00086E-001	0.00000E+000	-2.89743E-002	-9.94000E-001	3.17022E-002	2.63348E+001	11	...........	5.25803E-002	-3.47069E-003	5.55870E-001	6.88086E-001	-3.09490E-002	-3.94540E-002	6.45678E-001	-4.24765E-002	-5.26257E-003	3.47369E-004	-5.56350E-002	-6.88680E-002	3.09758E-003	3.94881E-003	-6.46236E-002	4.25132E-003
	2	3	2.26591E-001	-1.00087E-001	0.00000E+000	-2.26789E-002	-9.94000E-001	3.15712E-002	2.61574E+001	11	...........	5.23582E-002	-3.48292E-003	5.55809E-001	6.88083E-001	-3.09714E-002	-3.94343E-002	6.45675E-001	-4.24218E-002	-5.24039E-003	3.48596E-004	-5.56294E-002	-6.88683E-002	3.09984E-003	3.94687E-003	-6.46239E-002	4.24588E-003
	3	4	1.77306E-001	-1.00087E-001	0.00000E+000	-1.77461E-002	-9.94000E-001	3.17661E-002	2.57912E+001	11	...........	5.26751E-002	-3.53319E-003	5.55718E-001	6.88097E-001	-3.09700E-002	-3.94461E-002	6.45729E-001	-4.24625E-002	-5.27211E-003	3.53628E-004	-5.56203E-002	-6.88698E-002	3.09970E-003	3.94805E-003	-6.46293E-002	4.24996E-003
	4	5	1.38208E-001	-1.00087E-001	0.00000E+000	-1.38328E-002	-9.94000E-001	3.16098E-002	2.54275E+001	11	...........	5.24472E-002	-3.47639E-003	5.55530E-001	6.87991E-001	-3.09758E-002	-3.94511E-002	6.45778E-001	-4.25144E-002	-5.24930E-003	3.47942E-004	-5.56015E-002	-6.88592E-002	3.10029E-003	3.94855E-003	-6.46341E-002	4.25515E-003
	5	6	1.06916E-001	-1.00087E-001	0.00000E+000	-1.07009E-002	-9.94000E-001	3.16678E-002	2.51520E+001	11	...........	5.25300E-002	-3.45778E-003	5.55512E-001	6.87948E-001	-3.09710E-002	-3.94461E-002	6.45732E-001	-4.26399E-002	-5.25759E-003	3.46080E-004	-5.55998E-002	-6.88549E-002	3.09980E-003	3.94806E-003	-6.46296E-002	4.26771E-003
	6	7	8.48636E-002	-1.00087E-001	0.00000E+000	-8.49377E-003	-9.94000E-001	3.17089E-002	2.52478E+001	11	...........	5.25894E-002	-3.61778E-003	5.55597E-001	6.87998E-001	-3.09567E-002	-3.94389E-002	6.45715E-001	-4.27258E-002	-5.26354E-003	3.62094E-004	-5.56083E-002	-6.88598E-002	3.09837E-003	3.94733E-003	-6.46278E-002	4.27631E-003
	7	8	6.64233E-002	-1.00087E-001	0.00000E+000	-6.64812E-003	-9.94000E-001	3.18301E-002	2.48623E+001	11	...........	5.27815E-002	-3.59250E-003	5.55617E-001	6.88129E-001	-3.09657E-002	-3.94618E-002	6.45822E-001	-4.26288E-002	-5.28276E-003	3.59563E-004	-5.56102E-002	-6.88730E-002	3.09927E-003	3.94962E-003	-6.46386E-002	4.26659E-003
	8	8.55167	5.52389E-002	-1.00087E-001	0.00000E+000	-5.52869E-003	-9.94000E-001	3.17944E-002	2.50004E+001	11	...........	5.27377E-002	-3.62739E-003	5.55648E-001	6.88074E-001	-3.09736E-002	-3.94748E-002	6.45869E-001	-4.25652E-002	-5.27835E-003	3.63054E-004	-5.56131E-002	-6.88673E-002	3.10005E-003	3.95091E-003	-6.46431E-002	4.26022E-003
	9	9	5.04036E-002	-9.95898E-002	0.00000E+000	-5.01968E-003	-9.89044E-001	3.18621E-002	2.50729E+001	11	...........	5.28271E-002	-3.65613E-003	5.55671E-001	6.88049E-001	-3.09176E-002	-3.95062E-002	6.45916E-001	-4.24926E-002	-5.26104E-003	3.64114E-004	-5.53392E-002	-6.85227E-002	3.07908E-003	3.93442E-003	-6.43267E-002	4.23183E-003
	10	10	4.98688E-002	-9.37348E-002	0.00000E+000	-4.67444E-003	-9.30816E-001	3.20601E-002	2.50456E+001	11	...........	5.31775E-002	-3.60556E-003	5.55659E-001	6.87969E-001	-3.09243E-002	-3.95368E-002	6.45913E-001	-4.24651E-002	-4.98458E-003	3.37966E-004	-5.20846E-002	-6.44866E-002	2.89868E-003	3.70598E-003	-6.05446E-002	3.98046E-003
	11	11	4.99607E-002	-8.95388E-002	0.00000E+000	-4.47342E-003	-8.89109E-001	3.21118E-002	2.51097E+001	11	...........	5.32778E-002	-3.65875E-003	5.55735E-001	6.87969E-001	-3.09431E-002	-3.95451E-002	6.45819E-001	-4.24444E-002	-4.77043E-003	3.27600E-004	-4.97599E-002	-6.15999E-002	2.77060E-003	3.54082E-003	-5.78258E-002	3.80042E-003
	12	12	4.99142E-002	-8.63482E-002	0.00000E+000	-4.31000E-003	-8.57374E-001	3.22189E-002	2.52822E+001	11	...........	5.34533E-002	-3.64431E-003	5.55725E-001	6.87988E-001	-3.09281E-002	-3.95650E-002	6.45840E-001	-4.25578E-002	-4.61560E-003	3.14679E-004	-4.79858E-002	-5.94065E-002	2.67058E-003	3.41637E-003	-5.57671E-002	3.67479E-003
	13	13	4.99744E-002	-8.44106E-002	0.00000E+000	-4.21837E-003	-8.38108E-001	3.22369E-002	2.53400E+001	11	...........	5.34771E-002	-3.75347E-003	5.55618E-001	6.87842E-001	-3.09267E-002	-3.95492E-002	6.45788E-001	-4.26493E-002	-4.51403E-003	3.16833E-004	-4.69000E-002	-5.80612E-002	2.61054E-003	3.33837E-003	-5.45114E-002	3.60005E-003
	14	14	4.99603E-002	-8.11730E-002	0.00000E+000	-4.05543E-003	-8.05925E-001	3.21657E-002	2.56708E+001	11	...........	5.33415E-002	-3.74028E-003	5.55353E-001	6.87953E-001	-3.09342E-002	-3.95474E-002	6.45722E-001	-4.26787E-002	-4.32989E-003	3.03609E-004	-4.50797E-002	-5.58432E-002	2.51102E-003	3.21018E-003	-5.24152E-002	3.46436E-003
	15	15	4.99531E-002	-8.11196E-002	0.00000E+000	-4.05217E-003	-8.05403E-001	3.25285E-002	2.56907E+001	11	...........	5.39558E-002	-3.73444E-003	5.55309E-001	6.88071E-001	-3.08986E-002	-3.95450E-002	6.45783E-001	-4.26518E-002	-4.37688E-003	3.02937E-004	-4.50465E-002	-5.58161E-002	2.50648E-003	3.20787E-003	-5.23856E-002	3.45990E-003
	16	16	4.99283E-002	-7.75617E-002	0.00000E+000	-3.87252E-003	-7.70021E-001	3.23447E-002	2.54999E+001	11	...........	5.36331E-002	-3.64556E-003	5.55391E-001	6.88041E-001	-3.09050E-002	-3.95294E-002	6.45763E-001	-4.26717E-002	-4.15987E-003	2.82755E-004	-4.30770E-002	-5.33656E-002	2.39704E-003	3.06597E-003	-5.00864E-002	3.30969E-003
	17	17	4.99820E-002	-7.77412E-002	0.00000E+000	-3.88566E-003	-7.71809E-001	3.24963E-002	2.59545E+001	11	...........	5.38872E-002	-3.54806E-003	5.55380E-001	6.87933E-001	-3.09160E-002	-3.95226E-002	6.45883E-001	-4.25669E-002	-4.18926E-003	2.75830E-004	-4.31759E-002	-5.34807E-002	2.40345E-003	3.07254E-003	-5.02117E-002	3.30921E-003
	18	18	4.99458E-002	-7.68198E-002	0.00000E+000	-3.83683E-003	-7.62643E-001	3.26250E-002	2.59012E+001	11	...........	5.41168E-002	-3.39958E-003	5.55496E-001	6.87864E-001	-3.09183E-002	-3.95012E-002	6.45954E-001	-4.25112E-002	-4.15724E-003	2.61155E-004	-4.26731E-002	-5.28416E-002	2.37514E-003	3.03448E-003	-4.96221E-002	3.26571E-003
	19	19	5.00018E-002	-7.41716E-002	0.00000E+000	-3.70871E-003	-7.36306E-001	3.24587E-002	2.53948E+001	11	...........	5.38375E-002	-3.33361E-003	5.55379E-001	6.87791E-001	-3.09290E-002	-3.95225E-002	6.45860E-001	-4.23786E-002	-3.99322E-003	2.47259E-004	-4.11934E-002	-5.10146E-002	2.29406E-003	2.93145E-003	-4.79045E-002	3.14329E-003
	20	20	4.99724E-002	-7.52549E-002	0.00000E+000	-3.76067E-003	-7.47077E-001	3.25441E-002	2.60847E+001	11	...........	5.41499E-002	-3.45250E-003	5.55265E-001	6.87879E-001	-3.09531E-002	-3.95278E-002	6.45978E-001	-4.26267E-002	-4.07504E-003	2.59818E-004	-4.17864E-002	-5.17663E-002	2.32937E-003	2.97466E-003	-4.86130E-002	3.20787E-003
	21	21	4.99841E-002	-7.40844E-002	0.00000E+000	-3.70304E-003	-7.35439E-001	3.25524E-002	2.57738E+001	11	...........	5.42817E-002	-3.49333E-003	5.55356E-001	6.87919E-001	-3.09725E-002	-3.94967E-002	6.45960E-001	-4.27481E-002	-4.02142E-003	2.58801E-004	-4.11432E-002	-5.09641E-002	2.29458E-003	2.92609E-003	-4.78556E-002	3.16696E-003
	22	22	4.99740E-002	-7.32192E-002	0.00000E+000	-3.65905E-003	-7.26846E-001	3.23632E-002	2.59754E+001	11	...........	5.39679E-002	-3.40056E-003	5.55350E-001	6.87908E-001	-3.09835E-002	-3.94831E-002	6.45895E-001	-4.26439E-002	-3.95149E-003	2.48986E-004	-4.06623E-002	-5.03681E-002	2.26858E-003	2.89092E-003	-4.72919E-002	3.12235E-003
	23	23	4.99729E-002	-7.31952E-002	0.00000E+000	-3.65778E-003	-7.26597E-001	3.27419E-002	2.58684E+001	11	...........	5.45737E-002	-3.52986E-003	5.55521E-001	6.87880E-001	-3.09812E-002	-3.94896E-002	6.45926E-001	-4.26976E-002	-3.99454E-003	2.58369E-004	-4.06615E-002	-5.03495E-002	2.26768E-003	2.89045E-003	-4.72786E-002	3.12526E-003
	24	24	4.99372E-002	-7.10924E-002	0.00000E+000	-3.55015E-003	-7.05709E-001	3.25152E-002	2.58644E+001	11	...........	5.41981E-002	-3.54181E-003	5.55421E-001	6.87871E-001	-3.09926E-002	-3.95106E-002	6.45968E-001	-4.26478E-002	-3.85307E-003	2.51795E-004	-3.94862E-002	-4.89024E-002	2.20334E-003	2.80890E-003	-4.59234E-002	3.03193E-003
	25	25	4.99650E-002	-7.11373E-002	0.00000E+000	-3.55438E-003	-7.06150E-001	3.27980E-002	2.58671E+001	11	...........	5.46708E-002	-3.55514E-003	5.55320E-001	6.87863E-001	-3.09385E-002	-3.95412E-002	6.45981E-001	-4.26294E-002	-3.88913E-003	2.52903E-004	-3.95040E-002	-4.89327E-002	2.20088E-003	2.81286E-003	-4.59533E-002	3.03254E-003
	26	26	4.99895E-002	-7.04668E-002	0.00000E+000	-3.52260E-003	-6.99494E-001	3.26904E-002	2.58628E+001	11	...........	5.45119E-002	-3.61431E-003	5.55064E-001	6.87919E-001	-3.09232E-002	-3.95612E-002	6.45902E-001	-4.26972E-002	-3.84128E-003	2.54689E-004	-3.91136E-002	-4.84755E-002	2.17906E-003	2.78776E-003	-4.55147E-002	3.00874E-003
	27	27	5.00099E-002	-6.99948E-002	0.00000E+000	-3.50043E-003	-6.94798E-001	3.28097E-002	2.61342E+001	11	...........	5.46949E-002	-3.52681E-003	5.54924E-001	6.87896E-001	-3.08908E-002	-3.95689E-002	6.45971E-001	-4.28153E-002	-3.82836E-003	2.46858E-004	-3.88418E-002	-4.81491E-002	2.16220E-003	2.76962E-003	-4.52146E-002	2.99685E-003
	28	28	4.99538E-002	-6.93697E-002	0.00000E+000	-3.46528E-003	-6.88585E-001	3.27012E-002	2.61635E+001	11	...........	5.45354E-002	-3.58264E-003	5.54952E-001	6.87849E-001	-3.08671E-002	-3.95824E-002	6.45936E-001	-4.27408E-002	-3.78311E-003	2.48527E-004	-3.84968E-002	-4.77159E-002	2.14124E-003	2.74582E-003	-4.48084E-002	2.96492E-003
	29	29	4.99304E-002	-6.80745E-002	0.00000E+000	-3.39899E-003	-6.75698E-001	3.28307E-002	2.61531E+001	11	...........	5.47196E-002	-3.56014E-003	5.55110E-001	6.87883E-001	-3.08746E-002	-3.95856E-002	6.45929E-001	-4.28535E-002	-3.72501E-003	2.42355E-004	-3.77888E-002	-4.68273E-002	2.10177E-003	2.69477E-003	-4.39712E-002	2.91723E-003
	30	30	4.99786E-002	-6.73368E-002	0.00000E+000	-3.36540E-003	-6.68362E-001	3.28512E-002	2.63755E+001	11	...........	5.47533E-002	-3.59792E-003	5.55160E-001	6.88031E-001	-3.08925E-002	-3.95907E-002	6.46045E-001	-4.27561E-002	-3.68691E-003	2.42272E-004	-3.73827E-002	-4.63298E-002	2.08020E-003	2.66591E-003	-4.35026E-002	2.87906E-003
	31	31	4.99649E-002	-6.67615E-002	0.00000E+000	-3.33573E-003	-6.62642E-001	3.28411E-002	2.64694E+001	11	...........	5.47532E-002	-3.67208E-003	5.55065E-001	6.87998E-001	-3.09085E-002	-3.95565E-002	6.46155E-001	-4.26650E-002	-3.65540E-003	2.45154E-004	-3.70570E-002	-4.59318E-002	2.06350E-003	2.64085E-003	-4.31383E-002	2.84838E-003
	32	32	5.00051E-002	-6.67226E-002	0.00000E+000	-3.33647E-003	-6.62250E-001	3.30542E-002	2.61940E+001	11	...........	5.51000E-002	-3.61319E-003	5.55009E-001	6.87928E-001	-3.08721E-002	-3.95696E-002	6.46140E-001	-4.27717E-002	-3.67641E-003	2.41082E-004	-3.70317E-002	-4.59003E-002	2.05987E-003	2.64019E-003	-4.31121E-002	2.85384E-003
	33	33	4.99559E-002	-6.54641E-002	0.00000E+000	-3.27032E-003	-6.49739E-001	3.28420E-002	2.63389E+001	11	...........	5.47633E-002	-3.63569E-003	5.55079E-001	6.87970E-001	-3.08335E-002	-3.95864E-002	6.46100E-001	-4.28658E-002	-3.58503E-003	2.38007E-004	-3.63378E-002	-4.50373E-002	2.01849E-003	2.59149E-003	-4.22964E-002	2.80617E-003
	34	34	4.99679E-002	-6.40395E-002	0.00000E+000	-3.19991E-003	-6.35569E-001	3.30061E-002	2.61562E+001	11	...........	5.50331E-002	-3.66542E-003	5.54900E-001	6.88144E-001	-3.08586E-002	-3.95783E-002	6.46099E-001	-4.27592E-002	-3.52429E-003	2.34731E-004	-3.55355E-002	-4.40684E-002	1.97617E-003	2.53458E-003	-4.13758E-002	2.73827E-003
	35	35	4.99678E-002	-6.44107E-002	0.00000E+000	-3.21847E-003	-6.39261E-001	3.29360E-002	2.65887E+001	11	...........	5.48901E-002	-3.60139E-003	5.54786E-001	6.88225E-001	-3.09021E-002	-3.95539E-002	6.45999E-001	-4.27004E-002	-3.53551E-003	2.31968E-004	-3.57342E-002	-4.43291E-002	1.99043E-003	2.54770E-003	-4.16093E-002	2.75037E-003
	36	36	4.99847E-002	-6.38797E-002	0.00000E+000	-3.19301E-003	-6.33983E-001	3.30948E-002	2.63885E+001	11	...........	5.51803E-002	-3.54681E-003	5.54794E-001	6.88314E-001	-3.09072E-002	-3.95399E-002	6.46054E-001	-4.27531E-002	-3.52490E-003	2.26569E-004	-3.54400E-002	-4.39693E-002	1.97434E-003	2.52579E-003	-4.12697E-002	2.73105E-003
	37	37	4.99651E-002	-6.25257E-002	0.00000E+000	-3.12410E-003	-6.20524E-001	3.29858E-002	2.65443E+001	11	...........	5.49940E-002	-3.51861E-003	5.54884E-001	6.88401E-001	-3.08826E-002	-3.95136E-002	6.46017E-001	-4.28704E-002	-3.43854E-003	2.20004E-004	-3.46945E-002	-4.30428E-002	1.93096E-003	2.47062E-003	-4.03927E-002	2.68050E-003
	38	38	4.99621E-002	-6.27147E-002	0.00000E+000	-3.13336E-003	-6.22396E-001	3.32129E-002	2.63017E+001	11	...........	5.53711E-002	-3.60472E-003	5.54974E-001	6.88342E-001	-3.08725E-002	-3.95342E-002	6.46059E-001	-4.27093E-002	-3.47258E-003	2.26069E-004	-3.48051E-002	-4.31692E-002	1.93616E-003	2.47937E-003	-4.05174E-002	2.67850E-003
	39	39	4.99621E-002	-6.05981E-002	0.00000E+000	-3.02761E-003	-6.01360E-001	3.29357E-002	2.65179E+001	11	...........	5.49153E-002	-3.55292E-003	5.54785E-001	6.88342E-001	-3.08883E-002	-3.95424E-002	6.46058E-001	-4.27265E-002	-3.32776E-003	2.15300E-004	-3.36189E-002	-4.17122E-002	1.87177E-003	2.39619E-003	-3.91499E-002	2.58915E-003
	40	40	4.99698E-002	-6.02606E-002	0.00000E+000	-3.01121E-003	-5.98005E-001	3.32381E-002	2.66772E+001	11	...........	5.53983E-002	-3.54167E-003	5.54874E-001	6.88331E-001	-3.09174E-002	-3.95393E-002	6.46000E-001	-4.26256E-002	-3.33834E-003	2.13423E-004	-3.34370E-002	-4.14792E-002	1.86310E-003	2.38266E-003	-3.89283E-002	2.56864E-003
	41	41	5.00086E-002	-6.06084E-002	0.00000E+000	-3.03094E-003	-6.01461E-001	3.32659E-002	2.68079E+001	11	...........	5.54537E-002	-3.51806E-003	5.54898E-001	6.88211E-001	-3.09165E-002	-3.95453E-002	6.45952E-001	-4.25915E-002	-3.36096E-003	2.13224E-004	-3.36315E-002	-4.17114E-002	1.87380E-003	2.39678E-003	-3.91501E-002	2.58140E-003
	42	42	4.99404E-002	-5.99140E-002	0.00000E+000	-2.99213E-003	-5.94558E-001	3.30695E-002	2.62266E+001	11	...........	5.51362E-002	-3.55861E-003	5.55018E-001	6.88084E-001	-3.09057E-002	-3.95390E-002	6.45937E-001	-4.25021E-002	-3.30343E-003	2.13211E-004	-3.32534E-002	-4.12259E-002	1.85168E-003	2.36894E-003	-3.87007E-002	2.54647E-003
	43	43	5.00015E-002	-5.95569E-002	0.00000E+000	-2.97793E-003	-5.91006E-001	3.32398E-002	2.65149E+001	11	...........	5.54144E-002	-3.58667E-003	5.54952E-001	6.88037E-001	-3.09282E-002	-3.95193E-002	6.45963E-001	-4.24921E-002	-3.30031E-003	2.13611E-004	-3.30512E-002	-4.09773E-002	1.84199E-003	2.35365E-003	-3.84715E-002	2.53070E-003
	44	44	4.99461E-002	-5.85087E-002	0.00000E+000	-2.92228E-003	-5.80589E-001	3.32234E-002	2.64927E+001	11	...........	5.53964E-002	-3.49722E-003	5.55184E-001	6.88096E-001	-3.09228E-002	-3.95029E-002	6.45864E-001	-4.26115E-002	-3.24117E-003	2.04618E-004	-3.24831E-002	-4.02596E-002	1.80925E-003	2.31126E-003	-3.77887E-002	2.49314E-003
	45	45	4.99880E-002	-5.68944E-002	0.00000E+000	-2.84404E-003	-5.64526E-001	3.33318E-002	2.62230E+001	11	...........	5.55635E-002	-3.43639E-003	5.55285E-001	6.88091E-001	-3.09175E-002	-3.95029E-002	6.45830E-001	-4.26143E-002	-3.16125E-003	1.95511E-004	-3.15926E-002	-3.91485E-002	1.75903E-003	2.24749E-003	-3.67441E-002	2.42452E-003
	46	46	4.99637E-002	-5.73302E-002	0.00000E+000	-2.86443E-003	-5.68865E-001	3.33042E-002	2.64080E+001	11	...........	5.55393E-002	-3.52167E-003	5.55444E-001	6.88056E-001	-3.09068E-002	-3.94857E-002	6.46006E-001	-4.26929E-002	-3.18408E-003	2.01898E-004	-3.18437E-002	-3.94464E-002	1.77189E-003	2.26372E-003	-3.70356E-002	2.44759E-003
	47	47	4.99695E-002	-5.68467E-002	0.00000E+000	-2.84060E-003	-5.64051E-001	3.34108E-002	2.65141E+001	11	...........	5.57006E-002	-3.52542E-003	5.55612E-001	6.88101E-001	-3.09067E-002	-3.95047E-002	6.45947E-001	-4.25357E-002	-3.16639E-003	2.00408E-004	-3.15847E-002	-3.91163E-002	1.75694E-003	2.24571E-003	-3.67200E-002	2.41801E-003
	48	48	4.99996E-002	-5.57275E-002	0.00000E+000	-2.78635E-003	-5.52921E-001	3.32555E-002	2.66197E+001	11	...........	5.54518E-002	-3.49208E-003	5.55435E-001	6.88124E-001	-3.09025E-002	-3.94953E-002	6.45837E-001	-4.25125E-002	-3.09019E-003	1.94605E-004	-3.09530E-002	-3.83474E-002	1.72212E-003	2.20097E-003	-3.59908E-002	2.36911E-003
	49	49	4.99495E-002	-5.55207E-002	0.00000E+000	-2.77323E-003	-5.50862E-001	3.35105E-002	2.67340E+001	11	...........	5.58493E-002	-3.51861E-003	5.55392E-001	6.88130E-001	-3.08975E-002	-3.94675E-002	6.45787E-001	-4.25390E-002	-3.10079E-003	1.95356E-004	-3.08357E-002	-3.82054E-002	1.71545E-003	2.19126E-003	-3.58546E-002	2.36180E-003
	50	50	4.99516E-002	-5.41206E-002	0.00000E+000	-2.70341E-003	-5.36947E-001	3.32232E-002	2.67169E+001	11	...........	5.53683E-002	-3.48097E-003	5.55567E-001	6.88076E-001	-3.08847E-002	-3.94792E-002	6.45787E-001	-4.25125E-002	-2.99657E-003	1.88392E-004	-3.00676E-002	-3.72391E-002	1.67150E-003	2.13664E-003	-3.49504E-002	2.30080E-003
	51	51	4.99898E-002	-5.47566E-002	0.00000E+000	-2.73727E-003	-5.43269E-001	3.36938E-002	2.69000E+001	11	...........	5.61764E-002	-3.61528E-003	5.55685E-001	6.88083E-001	-3.08646E-002	-3.95136E-002	6.45889E-001	-4.25683E-002	-3.07603E-003	1.97960E-004	-3.04274E-002	-3.76771E-002	1.69004E-003	2.16363E-003	-3.53667E-002	2.33090E-003
	52	52	4.99539E-002	-5.33428E-002	0.00000E+000	-2.66468E-003	-5.29205E-001	3.34170E-002	2.67507E+001	11	...........	5.57160E-002	-3.59181E-003	5.55773E-001	6.88123E-001	-3.08840E-002	-3.95060E-002	6.45899E-001	-4.26262E-002	-2.97204E-003	1.91597E-004	-2.96465E-002	-3.67064E-002	1.64744E-003	2.10736E-003	-3.44540E-002	2.27380E-003
	53	53	4.99772E-002	-5.31304E-002	0.00000E+000	-2.65531E-003	-5.27093E-001	3.35525E-002	2.66826E+001	11	...........	5.59506E-002	-3.62681E-003	5.55800E-001	6.88180E-001	-3.09258E-002	-3.95056E-002	6.45778E-001	-4.25796E-002	-2.97268E-003	1.92694E-004	-2.95299E-002	-3.65633E-002	1.64310E-003	2.09895E-003	-3.43105E-002	2.26227E-003
	54	54	4.99696E-002	-5.20769E-002	0.00000E+000	-2.60227E-003	-5.16623E-001	3.34722E-002	2.68381E+001	11	...........	5.58171E-002	-3.59333E-003	5.55754E-001	6.88097E-001	-3.09451E-002	-3.95099E-002	6.45674E-001	-4.25612E-002	-2.90678E-003	1.87130E-004	-2.89419E-002	-3.58340E-002	1.61153E-003	2.05755E-003	-3.36247E-002	2.21646E-003
	55	55	4.99915E-002	-5.22208E-002	0.00000E+000	-2.61059E-003	-5.18052E-001	3.35607E-002	2.67059E+001	11	...........	5.59611E-002	-3.57792E-003	5.55835E-001	6.87955E-001	-3.09440E-002	-3.95328E-002	6.45813E-001	-4.24132E-002	-2.92233E-003	1.86842E-004	-2.90262E-002	-3.59255E-002	1.61592E-003	2.06443E-003	-3.37248E-002	2.21485E-003
	56	56	4.99763E-002	-5.19239E-002	0.00000E+000	-2.59497E-003	-5.15109E-001	3.36327E-002	2.71890E+001	11	...........	5.60821E-002	-3.61333E-003	5.55816E-001	6.88023E-001	-3.09537E-002	-3.95415E-002	6.45852E-001	-4.24203E-002	-2.91200E-003	1.87618E-004	-2.88601E-002	-3.57249E-002	1.60724E-003	2.05315E-003	-3.35352E-002	2.20263E-003
	57	57	4.99692E-002	-5.01662E-002	0.00000E+000	-2.50677E-003	-4.97651E-001	3.35406E-002	2.66740E+001	11	...........	5.59103E-002	-3.55431E-003	5.55677E-001	6.87989E-001	-3.09583E-002	-3.95510E-002	6.45816E-001	-4.24278E-002	-2.80481E-003	1.78306E-004	-2.78762E-002	-3.45138E-002	1.55306E-003	1.98412E-003	-3.23982E-002	2.12844E-003
	58	58	4.99577E-002	-4.98301E-002	0.00000E+000	-2.48939E-003	-4.94308E-001	3.36678E-002	2.70917E+001	11	...........	5.61250E-002	-3.53819E-003	5.55746E-001	6.88105E-001	-3.09572E-002	-3.95506E-002	6.45876E-001	-4.23656E-002	-2.79671E-003	1.76308E-004	-2.76929E-002	-3.42883E-002	1.54260E-003	1.97081E-003	-3.21841E-002	2.11108E-003
	59	59	4.99859E-002	-5.00809E-002	0.00000E+000	-2.50334E-003	-4.96799E-001	3.37770E-002	2.67193E+001	11	...........	5.63186E-002	-3.53472E-003	5.55724E-001	6.88234E-001	-3.09483E-002	-3.95458E-002	6.45877E-001	-4.23654E-002	-2.82049E-003	1.77022E-004	-2.78312E-002	-3.44674E-002	1.54992E-003	1.98049E-003	-3.23461E-002	2.12170E-003
	60	60	4.99636E-002	-4.93378E-002	0.00000E+000	-2.46509E-003	-4.89412E-001	3.35942E-002	2.67858E+001	11	...........	5.60214E-002	-3.46250E-003	5.55479E-001	6.88306E-001	-3.09408E-002	-3.95486E-002	6.45973E-001	-4.24019E-002	-2.76397E-003	1.70832E-004	-2.74061E-002	-3.39595E-002	1.52655E-003	1.95124E-003	-3.18709E-002	2.09202E-003
	61	61	4.99875E-002	-4.81687E-002	0.00000E+000	-2.40783E-003	-4.77785E-001	3.37000E-002	2.69077E+001	11	...........	5.61883E-002	-3.40181E-003	5.55471E-001	6.88387E-001	-3.09256E-002	-3.95628E-002	6.45847E-001	-4.23362E-002	-2.70652E-003	1.63861E-004	-2.67563E-002	-3.31587E-002	1.48964E-003	1.90569E-003	-3.11096E-002	2.03928E-003
	62	62	4.99642E-002	-4.84570E-002	0.00000E+000	-2.42112E-003	-4.80649E-001	3.37630E-002	2.67343E+001	11	...........	5.63046E-002	-3.42375E-003	5.55607E-001	6.88481E-001	-3.09000E-002	-3.95683E-002	6.45810E-001	-4.24693E-002	-2.72835E-003	1.65905E-004	-2.69231E-002	-3.33618E-002	1.49732E-003	1.91736E-003	-3.12940E-002	2.05794E-003
	63	63	4.99603E-002	-4.77911E-002	0.00000E+000	-2.38766E-003	-4.74025E-001	3.38018E-002	2.68681E+001	11	...........	5.63687E-002	-3.50194E-003	5.55606E-001	6.88440E-001	-3.09011E-002	-3.95453E-002	6.45643E-001	-4.24637E-002	-2.69392E-003	1.67362E-004	-2.65530E-002	-3.29013E-002	1.47680E-003	1.88991E-003	-3.08560E-002	2.02939E-003
	64	64	4.99873E-002	-4.77839E-002	0.00000E+000	-2.38859E-003	-4.73954E-001	3.38382E-002	2.67239E+001	11	...........	5.64200E-002	-3.49222E-003	5.55532E-001	6.88382E-001	-3.09107E-002	-3.95496E-002	6.45884E-001	-4.25160E-002	-2.69597E-003	1.66872E-004	-2.65455E-002	-3.28936E-002	1.47703E-003	1.88984E-003	-3.08629E-002	2.03158E-003
	65	65	4.99685E-002	-4.57753E-002	0.00000E+000	-2.28732E-003	-4.53979E-001	3.38972E-002	2.67811E+001	11	...........	5.65075E-002	-3.54653E-003	5.55410E-001	6.88271E-001	-3.09235E-002	-3.95401E-002	6.45967E-001	-4.25471E-002	-2.58665E-003	1.62343E-004	-2.54240E-002	-3.15058E-002	1.41553E-003	1.80996E-003	-2.95694E-002	1.94761E-003
	66	66	4.99796E-002	-4.59091E-002	0.00000E+000	-2.29452E-003	-4.55310E-001	3.35470E-002	2.68203E+001	11	...........	5.59428E-002	-3.57847E-003	5.55449E-001	6.88098E-001	-3.09256E-002	-3.95181E-002	6.45901E-001	-4.24785E-002	-2.56828E-003	1.64284E-004	-2.55002E-002	-3.15899E-002	1.41976E-003	1.81424E-003	-2.96527E-002	1.95015E-003
	67	67	4.99592E-002	-4.60774E-002	0.00000E+000	-2.30199E-003	-4.56986E-001	3.41557E-002	2.70913E+001	11	...........	5.69379E-002	-3.55222E-003	5.55394E-001	6.88038E-001	-3.09018E-002	-3.95550E-002	6.45942E-001	-4.25979E-002	-2.62355E-003	1.63677E-004	-2.55911E-002	-3.17030E-002	1.42388E-003	1.82259E-003	-2.97633E-002	1.96280E-003
	68	68	4.99627E-002	-4.42743E-002	0.00000E+000	-2.21206E-003	-4.39052E-001	3.38033E-002	2.66325E+001	11	...........	5.63481E-002	-3.47083E-003	5.55097E-001	6.87963E-001	-3.09067E-002	-3.95576E-002	6.46038E-001	-4.25632E-002	-2.49477E-003	1.53669E-004	-2.45765E-002	-3.04591E-002	1.36837E-003	1.75139E-003	-2.86029E-002	1.88445E-003
	69	69	4.99765E-002	-4.40786E-002	0.00000E+000	-2.20289E-003	-4.37108E-001	3.38272E-002	2.65493E+001	11	...........	5.63967E-002	-3.54167E-003	5.55066E-001	6.87995E-001	-3.08962E-002	-3.95501E-002	6.46041E-001	-4.25428E-002	-2.48588E-003	1.56112E-004	-2.44665E-002	-3.03258E-002	1.36186E-003	1.74331E-003	-2.84766E-002	1.87522E-003
	70	70	4.99970E-002	-4.41597E-002	0.00000E+000	-2.20785E-003	-4.37911E-001	3.39911E-002	2.71490E+001	11	...........	5.66600E-002	-3.52722E-003	5.54996E-001	6.87974E-001	-3.08737E-002	-3.95608E-002	6.46061E-001	-4.26082E-002	-2.50209E-003	1.55761E-004	-2.45085E-002	-3.03807E-002	1.36338E-003	1.74700E-003	-2.85299E-002	1.88157E-003
	71	71	4.99631E-002	-4.30778E-002	0.00000E+000	-2.15230E-003	-4.27155E-001	3.39400E-002	2.70123E+001	11	...........	5.65851E-002	-3.46847E-003	5.54818E-001	6.87917E-001	-3.08972E-002	-3.95590E-002	6.45946E-001	-4.24635E-002	-2.43756E-003	1.49414E-004	-2.39003E-002	-2.96339E-002	1.33098E-003	1.70412E-003	-2.78259E-002	1.82923E-003
	72	72	4.99612E-002	-4.23680E-002	0.00000E+000	-2.11675E-003	-4.20095E-001	3.39708E-002	2.71057E+001	11	...........	5.66261E-002	-3.50236E-003	5.54813E-001	6.87960E-001	-3.09285E-002	-3.95449E-002	6.45861E-001	-4.25146E-002	-2.39913E-003	1.48388E-004	-2.35063E-002	-2.91475E-002	1.31038E-003	1.67544E-003	-2.73638E-002	1.80126E-003
	73	73	4.99849E-002	-4.24063E-002	0.00000E+000	-2.11968E-003	-4.20482E-001	3.39759E-002	2.72744E+001	11	...........	5.66415E-002	-3.60833E-003	5.54815E-001	6.87953E-001	-3.09242E-002	-3.95533E-002	6.46028E-001	-4.25847E-002	-2.40196E-003	1.53016E-004	-2.35277E-002	-2.91736E-002	1.31138E-003	1.67731E-003	-2.73957E-002	1.80586E-003
	74	74	4.99606E-002	-4.22463E-002	0.00000E+000	-2.11065E-003	-4.18892E-001	3.40784E-002	2.72836E+001	11	...........	5.68185E-002	-3.64333E-003	5.54725E-001	6.87881E-001	-3.09274E-002	-3.95411E-002	6.45966E-001	-4.25714E-002	-2.40037E-003	1.53917E-004	-2.34351E-002	-2.90604E-002	1.30657E-003	1.67046E-003	-2.72897E-002	1.79848E-003
	75	75	4.99930E-002	-4.10348E-002	0.00000E+000	-2.05145E-003	-4.06856E-001	3.40925E-002	2.69688E+001	11	...........	5.68261E-002	-3.68931E-003	5.54814E-001	6.87838E-001	-3.09076E-002	-3.95461E-002	6.45918E-001	-4.25128E-002	-2.33185E-003	1.51390E-004	-2.27667E-002	-2.82253E-002	1.26829E-003	1.62277E-003	-2.65051E-002	1.74450E-003
	76	76	4.99411E-002	-4.08891E-002	0.00000E+000	-2.04205E-003	-4.05410E-001	3.39088E-002	2.70772E+001	11	...........	5.65914E-002	-3.56264E-003	5.54873E-001	6.87696E-001	-3.08849E-002	-3.95751E-002	6.46066E-001	-4.25469E-002	-2.31397E-003	1.45673E-004	-2.26882E-002	-2.81193E-002	1.26285E-003	1.61819E-003	-2.64171E-002	1.73971E-003
	77	77	4.99820E-002	-3.99341E-002	0.00000E+000	-1.99599E-003	-3.95916E-001	3.41943E-002	2.72496E+001	11	...........	5.70051E-002	-3.53792E-003	5.54981E-001	6.87724E-001	-3.08976E-002	-3.95711E-002	6.46071E-001	-4.25675E-002	-2.27645E-003	1.41284E-004	-2.21627E-002	-2.74636E-002	1.23387E-003	1.58024E-003	-2.58003E-002	1.69990E-003
	78	78	4.99806E-002	-3.97590E-002	0.00000E+000	-1.98718E-003	-3.94178E-001	3.40688E-002	2.73823E+001	11	...........	5.68042E-002	-3.53556E-003	5.55061E-001	6.87842E-001	-3.08656E-002	-3.95862E-002	6.46107E-001	-4.25842E-002	-2.25848E-003	1.40570E-004	-2.20687E-002	-2.73479E-002	1.22718E-003	1.57391E-003	-2.56886E-002	1.69310E-003
	79	79	4.99859E-002	-3.98601E-002	0.00000E+000	-1.99244E-003	-3.95183E-001	3.41645E-002	2.75296E+001	11	...........	5.69576E-002	-3.69250E-003	5.55223E-001	6.87982E-001	-3.08726E-002	-3.95682E-002	6.46100E-001	-4.25862E-002	-2.27034E-003	1.47183E-004	-2.21312E-002	-2.74230E-002	1.23059E-003	1.57719E-003	-2.57536E-002	1.69749E-003
	80	80	4.99737E-002	-3.84698E-002	0.00000E+000	-1.92248E-003	-3.81362E-001	3.41082E-002	2.70954E+001	11	...........	5.68628E-002	-3.75611E-003	5.55239E-001	6.87974E-001	-3.09117E-002	-3.95406E-002	6.45989E-001	-4.25912E-002	-2.18750E-003	1.44497E-004	-2.13600E-002	-2.64662E-002	1.18917E-003	1.52112E-003	-2.48511E-002	1.63848E-003
	81	81	4.99919E-002	-3.85555E-002	0.00000E+000	-1.92746E-003	-3.82209E-001	3.40274E-002	2.73248E+001	11	...........	5.67346E-002	-3.74056E-003	5.55226E-001	6.88027E-001	-3.09483E-002	-3.95232E-002	6.46056E-001	-4.26665E-002	-2.18743E-003	1.44219E-004	-2.14070E-002	-2.65272E-002	1.19323E-003	1.52384E-003	-2.49090E-002	1.64503E-003
	82	82	4.99482E-002	-3.84384E-002	0.00000E+000	-1.91993E-003	-3.81046E-001	3.43373E-002	2.74581E+001	11	...........	5.72521E-002	-3.67694E-003	5.55395E-001	6.88000E-001	-3.09690E-002	-3.95003E-002	6.46237E-001	-4.26437E-002	-2.20068E-003	1.41336E-004	-2.13485E-002	-2.64456E-002	1.19040E-003	1.51833E-003	-2.48403E-002	1.63916E-003
	83	83	4.99792E-002	-3.78243E-002	0.00000E+000	-1.89043E-003	-3.74942E-001	3.42077E-002	2.73118E+001	11	...........	5.70240E-002	-3.71361E-003	5.55492E-001	6.87972E-001	-3.09812E-002	-3.94793E-002	6.46191E-001	-4.25925E-002	-2.15690E-003	1.40465E-004	-2.10111E-002	-2.60221E-002	1.17184E-003	1.49328E-003	-2.44417E-002	1.61103E-003
	84	84	4.99719E-002	-3.77081E-002	0.00000E+000	-1.88435E-003	-3.73783E-001	3.42987E-002	2.70732E+001	11	...........	5.71737E-002	-3.59639E-003	5.55365E-001	6.88043E-001	-3.09796E-002	-3.94697E-002	6.45899E-001	-4.25967E-002	-2.15592E-003	1.35613E-004	-2.09418E-002	-2.59448E-002	1.16818E-003	1.48833E-003	-2.43556E-002	1.60624E-003
	85	85	4.99750E-002	-3.67366E-002	0.00000E+000	-1.83591E-003	-3.64116E-001	3.42209E-002	2.71208E+001	11	...........	5.70586E-002	-3.49486E-003	5.55405E-001	6.87953E-001	-3.09919E-002	-3.94560E-002	6.45942E-001	-4.27503E-002	-2.09614E-003	1.28389E-004	-2.04037E-002	-2.52730E-002	1.13854E-003	1.44948E-003	-2.37297E-002	1.57050E-003
	86	86	4.99660E-002	-3.70101E-002	0.00000E+000	-1.84925E-003	-3.66840E-001	3.42761E-002	2.73913E+001	11	...........	5.71456E-002	-3.49681E-003	5.55330E-001	6.87898E-001	-3.10096E-002	-3.94539E-002	6.45923E-001	-4.26853E-002	-2.11497E-003	1.29417E-004	-2.05528E-002	-2.54592E-002	1.14767E-003	1.46019E-003	-2.39057E-002	1.57979E-003
	87	87	4.99730E-002	-3.60502E-002	0.00000E+000	-1.80153E-003	-3.57294E-001	3.43350E-002	2.76764E+001	11	...........	5.72304E-002	-3.54931E-003	5.55320E-001	6.88041E-001	-3.09992E-002	-3.94558E-002	6.45781E-001	-4.27303E-002	-2.06317E-003	1.27953E-004	-2.00194E-002	-2.48040E-002	1.11753E-003	1.42239E-003	-2.32805E-002	1.54043E-003
	88	88	4.99740E-002	-3.59668E-002	0.00000E+000	-1.79740E-003	-3.56464E-001	3.41831E-002	2.73774E+001	11	...........	5.69868E-002	-3.60347E-003	5.55367E-001	6.88164E-001	-3.10003E-002	-3.94840E-002	6.45881E-001	-4.27254E-002	-2.04963E-003	1.29605E-004	-1.99748E-002	-2.47511E-002	1.11498E-003	1.42012E-003	-2.32303E-002	1.53670E-003
	89	89	4.99898E-002	-3.43861E-002	0.00000E+000	-1.71895E-003	-3.40745E-001	3.43402E-002	2.76860E+001	11	...........	5.72551E-002	-3.64875E-003	5.55346E-001	6.87986E-001	-3.09982E-002	-3.95112E-002	6.45849E-001	-4.27040E-002	-1.96878E-003	1.25466E-004	-1.90962E-002	-2.36571E-002	1.06591E-003	1.35864E-003	-2.22082E-002	1.46842E-003
	90	90	4.99557E-002	-3.47498E-002	0.00000E+000	-1.73595E-003	-3.44358E-001	3.41253E-002	2.77212E+001	11	...........	5.68914E-002	-3.64069E-003	5.55486E-001	6.88138E-001	-3.10117E-002	-3.95393E-002	6.45833E-001	-4.27899E-002	-1.97697E-003	1.26514E-004	-1.93030E-002	-2.39127E-002	1.07765E-003	1.37398E-003	-2.24426E-002	1.48694E-003
	91	91	4.99858E-002	-3.43563E-002	0.00000E+000	-1.71733E-003	-3.40446E-001	3.46169E-002	2.73800E+001	11	...........	5.77118E-002	-3.56806E-003	5.55409E-001	6.88172E-001	-3.09929E-002	-3.95487E-002	6.45868E-001	-4.26610E-002	-1.98276E-003	1.22585E-004	-1.90818E-002	-2.36430E-002	1.06480E-003	1.35875E-003	-2.21896E-002	1.46567E-003
	92	92	4.99615E-002	-3.33949E-002	0.00000E+000	-1.66846E-003	-3.30889E-001	3.41635E-002	2.74398E+001	11	...........	5.69701E-002	-3.57042E-003	5.55378E-001	6.88170E-001	-3.09781E-002	-3.95442E-002	6.45887E-001	-4.26997E-002	-1.90251E-003	1.19234E-004	-1.85468E-002	-2.29813E-002	1.03451E-003	1.32057E-003	-2.15693E-002	1.42595E-003
	93	93	4.99920E-002	-3.39524E-002	0.00000E+000	-1.69735E-003	-3.36429E-001	3.46619E-002	2.76454E+001	11	...........	5.77939E-002	-3.59806E-003	5.55535E-001	6.88290E-001	-3.09801E-002	-3.95608E-002	6.45948E-001	-4.26675E-002	-1.96224E-003	1.22163E-004	-1.88618E-002	-2.33691E-002	1.05185E-003	1.34319E-003	-2.19315E-002	1.44867E-003
	94	94	4.99481E-002	-3.25443E-002	0.00000E+000	-1.62553E-003	-3.22424E-001	3.41868E-002	2.72823E+001	11	...........	5.69797E-002	-3.58194E-003	5.55514E-001	6.88242E-001	-3.09718E-002	-3.95394E-002	6.46021E-001	-4.26960E-002	-1.85437E-003	1.16572E-004	-1.80788E-002	-2.23984E-002	1.00796E-003	1.28679E-003	-2.10243E-002	1.38951E-003
	95	95	4.99990E-002	-3.25128E-002	0.00000E+000	-1.62561E-003	-3.22109E-001	3.44367E-002	2.75646E+001	11	...........	5.73972E-002	-3.51403E-003	5.55392E-001	6.88260E-001	-3.09715E-002	-3.95457E-002	6.46012E-001	-4.26081E-002	-1.86614E-003	1.14251E-004	-1.80573E-002	-2.23772E-002	1.00697E-003	1.28574E-003	-2.10036E-002	1.38531E-003
	96	96	4.99779E-002	-3.26744E-002	0.00000E+000	-1.63300E-003	-3.23718E-001	3.45481E-002	2.76443E+001	11	...........	5.76001E-002	-3.60361E-003	5.55409E-001	6.88378E-001	-3.09499E-002	-3.95411E-002	6.46014E-001	-4.26493E-002	-1.88205E-003	1.17746E-004	-1.81476E-002	-2.24923E-002	1.01127E-003	1.29198E-003	-2.11081E-002	1.39354E-003
	97	97	4.99595E-002	-3.17182E-002	0.00000E+000	-1.58462E-003	-3.14211E-001	3.42447E-002	2.79744E+001	11	...........	5.70850E-002	-3.59472E-003	5.55483E-001	6.88349E-001	-3.09460E-002	-3.95124E-002	6.45878E-001	-4.25611E-002	-1.81063E-003	1.14018E-004	-1.76189E-002	-2.18332E-002	9.81550E-004	1.25326E-003	-2.04861E-002	1.34996E-003
	98	98	4.99881E-002	-3.16901E-002	0.00000E+000	-1.58413E-003	-3.13927E-001	3.46959E-002	2.80142E+001	11	...........	5.78429E-002	-3.66417E-003	5.55473E-001	6.88307E-001	-3.09443E-002	-3.95260E-002	6.45891E-001	-4.26813E-002	-1.83305E-003	1.16118E-004	-1.76030E-002	-2.18125E-002	9.80629E-004	1.25258E-003	-2.04684E-002	1.35257E-003
	99	99	4.99650E-002	-3.13973E-002	0.00000E+000	-1.56876E-003	-3.11020E-001	3.44283E-002	2.75670E+001	11	...........	5.74014E-002	-3.58000E-003	5.55334E-001	6.88400E-001	-3.09592E-002	-3.95135E-002	6.45830E-001	-4.25979E-002	-1.80225E-003	1.12402E-004	-1.74360E-002	-2.16139E-002	9.72034E-004	1.24062E-003	-2.02773E-002	1.33746E-003
	100	100	4.99693E-002	-3.03656E-002	0.00000E+000	-1.51735E-003	-3.00790E-001	3.45168E-002	2.69241E+001	11	...........	5.75419E-002	-3.46986E-003	5.55339E-001	6.88325E-001	-3.09346E-002	-3.95058E-002	6.45962E-001	-4.25757E-002	-1.74729E-003	1.05364E-004	-1.68632E-002	-2.09014E-002	9.39346E-004	1.19962E-003	-1.96150E-002	1.29283E-003
	101	101	4.99755E-002	-2.95763E-002	0.00000E+000	-1.47809E-003	-2.92935E-001	3.45087E-002	2.76593E+001	11	...........	5.75381E-002	-3.51806E-003	5.55201E-001	6.88361E-001	-3.09492E-002	-3.94796E-002	6.45981E-001	-4.26112E-002	-1.70176E-003	1.04051E-004	-1.64208E-002	-2.03591E-002	9.15360E-004	1.16766E-003	-1.91057E-002	1.26028E-003
	102	102	4.99822E-002	-3.00783E-002	0.00000E+000	-1.50338E-003	-2.97934E-001	3.46648E-002	2.80341E+001	11	...........	5.77876E-002	-3.60028E-003	5.55216E-001	6.88428E-001	-3.09372E-002	-3.94668E-002	6.45952E-001	-4.27989E-002	-1.73815E-003	1.08290E-004	-1.67000E-002	-2.07067E-002	9.30538E-004	1.18709E-003	-1.94291E-002	1.28732E-003
	103	103	4.99725E-002	-2.96692E-002	0.00000E+000	-1.48264E-003	-2.93862E-001	3.43487E-002	2.77397E+001	11	...........	5.72722E-002	-3.65764E-003	5.55325E-001	6.88497E-001	-3.09279E-002	-3.94618E-002	6.45937E-001	-4.27849E-002	-1.69922E-003	1.08519E-004	-1.64761E-002	-2.04271E-002	9.17607E-004	1.17080E-003	-1.91644E-002	1.26939E-003
	104	104	4.99681E-002	-2.92296E-002	0.00000E+000	-1.46055E-003	-2.89492E-001	3.47081E-002	2.78621E+001	11	...........	5.78661E-002	-3.67847E-003	5.55401E-001	6.88565E-001	-3.09210E-002	-3.94875E-002	6.46000E-001	-4.28275E-002	-1.69140E-003	1.07520E-004	-1.62341E-002	-2.01264E-002	9.03806E-004	1.15420E-003	-1.88823E-002	1.25183E-003
	105	105	4.99749E-002	-2.90636E-002	0.00000E+000	-1.45245E-003	-2.87845E-001	3.46099E-002	2.78617E+001	11	...........	5.76986E-002	-3.61972E-003	5.55276E-001	6.88663E-001	-3.09326E-002	-3.95003E-002	6.46141E-001	-4.28319E-002	-1.67693E-003	1.05202E-004	-1.61383E-002	-2.00151E-002	8.99015E-004	1.14802E-003	-1.87792E-002	1.24485E-003
	106	106	4.99910E-002	-2.86085E-002	0.00000E+000	-1.43017E-003	-2.83317E-001	3.46446E-002	2.75265E+001	11	...........	5.77606E-002	-3.59764E-003	5.55186E-001	6.88719E-001	-3.09375E-002	-3.95154E-002	6.46155E-001	-4.28269E-002	-1.65244E-003	1.02923E-004	-1.58830E-002	-1.97032E-002	8.85075E-004	1.13048E-003	-1.84855E-002	1.22521E-003
	107	107	4.99652E-002	-2.83841E-002	0.00000E+000	-1.41822E-003	-2.81086E-001	3.45787E-002	2.79927E+001	11	...........	5.76450E-002	-3.56431E-003	5.55323E-001	6.88474E-001	-3.09383E-002	-3.95189E-002	6.46036E-001	-4.27178E-002	-1.63620E-003	1.01170E-004	-1.57624E-002	-1.95417E-002	8.78158E-004	1.12171E-003	-1.83372E-002	1.21251E-003
	108	108	4.99731E-002	-2.82370E-002	0.00000E+000	-1.41109E-003	-2.79625E-001	3.45302E-002	2.78624E+001	11	...........	5.75704E-002	-3.55069E-003	5.55371E-001	6.88416E-001	-3.09365E-002	-3.95264E-002	6.46010E-001	-4.26617E-002	-1.62562E-003	1.00261E-004	-1.56820E-002	-1.94388E-002	8.73556E-004	1.11611E-003	-1.82414E-002	1.20464E-003
	109	109	4.99944E-002	-2.74628E-002	0.00000E+000	-1.37298E-003	-2.71923E-001	3.47214E-002	2.79869E+001	11	...........	5.79018E-002	-3.48278E-003	5.55292E-001	6.88420E-001	-3.09494E-002	-3.95196E-002	6.46052E-001	-4.26419E-002	-1.59014E-003	9.56467E-005	-1.52498E-002	-1.89059E-002	8.49957E-004	1.08532E-003	-1.77424E-002	1.17107E-003
	110	110	4.99557E-002	-2.71702E-002	0.00000E+000	-1.35730E-003	-2.69013E-001	3.44508E-002	2.83169E+001	11	...........	5.74337E-002	-3.58403E-003	5.55302E-001	6.88467E-001	-3.09504E-002	-3.95385E-002	6.45971E-001	-4.26049E-002	-1.56048E-003	9.73786E-005	-1.50876E-002	-1.87058E-002	8.40927E-004	1.07427E-003	-1.75511E-002	1.15758E-003
	111	111	4.99722E-002	-2.66835E-002	0.00000E+000	-1.33343E-003	-2.64172E-001	3.48478E-002	2.73473E+001	11	...........	5.81049E-002	-3.62556E-003	5.55347E-001	6.88353E-001	-3.09557E-002	-3.95051E-002	6.45964E-001	-4.26503E-002	-1.55044E-003	9.67425E-005	-1.48186E-002	-1.83677E-002	8.26006E-004	1.05414E-003	-1.72366E-002	1.13806E-003
	112	112	4.99759E-002	-2.67391E-002	0.00000E+000	-1.33631E-003	-2.64720E-001	3.44628E-002	2.79470E+001	11	...........	5.74767E-002	-3.65111E-003	5.55380E-001	6.88138E-001	-3.09414E-002	-3.94978E-002	6.45975E-001	-4.26987E-002	-1.53687E-003	9.76273E-005	-1.48503E-002	-1.84002E-002	8.27344E-004	1.05613E-003	-1.72728E-002	1.14172E-003
	113	113	4.99764E-002	-2.61694E-002	0.00000E+000	-1.30785E-003	-2.59061E-001	3.48200E-002	2.78234E+001	11	...........	5.80497E-002	-3.51694E-003	5.55522E-001	6.88098E-001	-3.09361E-002	-3.94787E-002	6.46043E-001	-4.26461E-002	-1.51913E-003	9.20364E-005	-1.45377E-002	-1.80071E-002	8.09580E-004	1.03314E-003	-1.69066E-002	1.11602E-003
	114	114	4.99848E-002	-2.60712E-002	0.00000E+000	-1.30316E-003	-2.58080E-001	3.46805E-002	2.81536E+001	11	...........	5.78189E-002	-3.55625E-003	5.55439E-001	6.87990E-001	-3.09489E-002	-3.94533E-002	6.46083E-001	-4.27176E-002	-1.50741E-003	9.27157E-005	-1.44810E-002	-1.79367E-002	8.06875E-004	1.02860E-003	-1.68442E-002	1.11370E-003
	115	115	4.99765E-002	-2.56990E-002	0.00000E+000	-1.28434E-003	-2.54380E-001	3.46502E-002	2.79106E+001	11	...........	5.77753E-002	-3.55125E-003	5.55297E-001	6.87861E-001	-3.09561E-002	-3.94386E-002	6.46195E-001	-4.28153E-002	-1.48476E-003	9.12634E-005	-1.42706E-002	-1.76773E-002	7.95540E-004	1.01353E-003	-1.66065E-002	1.10031E-003
	116	116	4.99763E-002	-2.57551E-002	0.00000E+000	-1.28715E-003	-2.54935E-001	3.48392E-002	2.82038E+001	11	...........	5.80972E-002	-3.57306E-003	5.54953E-001	6.87895E-001	-3.09375E-002	-3.94765E-002	6.46156E-001	-4.27135E-002	-1.49630E-003	9.20245E-005	-1.42929E-002	-1.77168E-002	7.96799E-004	1.01672E-003	-1.66418E-002	1.10009E-003
	117	117	4.99666E-002	-2.48388E-002	0.00000E+000	-1.24111E-003	-2.45825E-001	3.47900E-002	2.82365E+001	11	...........	5.79896E-002	-3.53486E-003	5.54944E-001	6.87955E-001	-3.09147E-002	-3.94932E-002	6.46072E-001	-4.25244E-002	-1.44039E-003	8.78016E-005	-1.37841E-002	-1.70880E-002	7.67884E-004	9.80962E-004	-1.60476E-002	1.05625E-003
	118	118	4.99838E-002	-2.46223E-002	0.00000E+000	-1.23072E-003	-2.43674E-001	3.46375E-002	2.84523E+001	11	...........	5.77575E-002	-3.53403E-003	5.54636E-001	6.87941E-001	-3.09008E-002	-3.94946E-002	6.45956E-001	-4.26374E-002	-1.42212E-003	8.70159E-005	-1.36564E-002	-1.69387E-002	7.60850E-004	9.72448E-004	-1.59049E-002	1.04983E-003
	119	119	4.99723E-002	-2.45244E-002	0.00000E+000	-1.22554E-003	-2.42698E-001	3.49926E-002	2.78205E+001	11	...........	5.83418E-002	-3.71181E-003	5.54618E-001	6.88056E-001	-3.09142E-002	-3.95158E-002	6.45948E-001	-4.26118E-002	-1.43080E-003	9.10300E-005	-1.36017E-002	-1.68742E-002	7.58153E-004	9.69104E-004	-1.58415E-002	1.04503E-003
	120	120	4.99758E-002	-2.38775E-002	0.00000E+000	-1.19329E-003	-2.36266E-001	3.45661E-002	2.79800E+001	11	...........	5.76382E-002	-3.69792E-003	5.54588E-001	6.88107E-001	-3.09110E-002	-3.94964E-002	6.45784E-001	-4.25667E-002	-1.37625E-003	8.82968E-005	-1.32422E-002	-1.64302E-002	7.38075E-004	9.43073E-004	-1.54197E-002	1.01638E-003
	121	121	4.99636E-002	-2.38027E-002	0.00000E+000	-1.18927E-003	-2.35528E-001	3.49323E-002	2.79926E+001	11	...........	5.82354E-002	-3.76208E-003	5.54691E-001	6.88273E-001	-3.09082E-002	-3.94750E-002	6.45922E-001	-4.27022E-002	-1.38616E-003	8.95478E-005	-1.32032E-002	-1.63828E-002	7.35699E-004	9.39612E-004	-1.53747E-002	1.01643E-003
	122	122	4.99795E-002	-2.37394E-002	0.00000E+000	-1.18648E-003	-2.34898E-001	3.50673E-002	2.83378E+001	11	...........	5.84671E-002	-3.74292E-003	5.54813E-001	6.88336E-001	-3.09072E-002	-3.94567E-002	6.45856E-001	-4.26728E-002	-1.38797E-003	8.88547E-005	-1.31709E-002	-1.63407E-002	7.33720E-004	9.36678E-004	-1.53323E-002	1.01303E-003
	123	123	4.99652E-002	-2.28881E-002	0.00000E+000	-1.14361E-003	-2.26430E-001	3.45277E-002	2.78323E+001	11	...........	5.75708E-002	-3.62792E-003	5.54822E-001	6.88323E-001	-3.09074E-002	-3.94272E-002	6.45796E-001	-4.26646E-002	-1.31768E-003	8.30359E-005	-1.26988E-002	-1.57544E-002	7.07409E-004	9.02412E-004	-1.47810E-002	9.76509E-004
	124	124	4.99840E-002	-2.26275E-002	0.00000E+000	-1.13101E-003	-2.23842E-001	3.49546E-002	2.79755E+001	11	...........	5.82840E-002	-3.61306E-003	5.55080E-001	6.88299E-001	-3.08803E-002	-3.94239E-002	6.45911E-001	-4.27347E-002	-1.31882E-003	8.17543E-005	-1.25601E-002	-1.55745E-002	6.98743E-004	8.92063E-004	-1.46153E-002	9.66979E-004
	125	125	4.99820E-002	-2.28751E-002	0.00000E+000	-1.14334E-003	-2.26301E-001	3.50287E-002	2.78949E+001	11	...........	5.83985E-002	-3.66694E-003	5.55162E-001	6.88184E-001	-3.08908E-002	-3.94190E-002	6.46048E-001	-4.27832E-002	-1.33587E-003	8.38819E-005	-1.26994E-002	-1.57423E-002	7.06632E-004	9.01716E-004	-1.47784E-002	9.78671E-004
	126	126	4.99739E-002	-2.20885E-002	0.00000E+000	-1.10385E-003	-2.18475E-001	3.46829E-002	2.79667E+001	11	...........	5.78219E-002	-3.73375E-003	5.55266E-001	6.88097E-001	-3.08796E-002	-3.93957E-002	6.46157E-001	-4.27162E-002	-1.27720E-003	8.24729E-005	-1.22650E-002	-1.51990E-002	6.82083E-004	8.70191E-004	-1.42726E-002	9.43538E-004
	127	127	4.99823E-002	-2.21688E-002	0.00000E+000	-1.10805E-003	-2.19273E-001	3.49000E-002	2.80774E+001	11	...........	5.81846E-002	-3.71278E-003	5.55318E-001	6.88012E-001	-3.09040E-002	-3.93717E-002	6.46010E-001	-4.26007E-002	-1.28988E-003	8.23077E-005	-1.23107E-002	-1.52524E-002	6.85104E-004	8.72821E-004	-1.43212E-002	9.44405E-004
	128	128	4.99729E-002	-2.19025E-002	0.00000E+000	-1.09453E-003	-2.16625E-001	3.50712E-002	2.85624E+001	11	...........	5.84668E-002	-3.69264E-003	5.55286E-001	6.87896E-001	-3.09133E-002	-3.93793E-002	6.46060E-001	-4.25626E-002	-1.28057E-003	8.08781E-005	-1.21622E-002	-1.50667E-002	6.77080E-004	8.62506E-004	-1.41503E-002	9.32229E-004
	129	129	4.99738E-002	-2.15108E-002	0.00000E+000	-1.07498E-003	-2.12728E-001	3.48791E-002	2.77108E+001	11	...........	5.81562E-002	-3.66792E-003	5.55334E-001	6.87903E-001	-3.09375E-002	-3.93628E-002	6.45984E-001	-4.26139E-002	-1.25099E-003	7.88998E-005	-1.19457E-002	-1.47973E-002	6.65491E-004	8.46725E-004	-1.38956E-002	9.16659E-004
	130	130	4.99639E-002	-2.12266E-002	0.00000E+000	-1.06056E-003	-2.09907E-001	3.48004E-002	2.84478E+001	11	...........	5.80243E-002	-3.66181E-003	5.55332E-001	6.87802E-001	-3.08906E-002	-3.93861E-002	6.45915E-001	-4.26724E-002	-1.23166E-003	7.77277E-005	-1.17878E-002	-1.45997E-002	6.55701E-004	8.36033E-004	-1.37106E-002	9.05789E-004
	131	131	4.99868E-002	-2.09817E-002	0.00000E+000	-1.04881E-003	-2.07473E-001	3.50275E-002	2.79526E+001	11	...........	5.84047E-002	-3.64958E-003	5.55396E-001	6.87835E-001	-3.08537E-002	-3.94044E-002	6.45863E-001	-4.26457E-002	-1.22543E-003	7.65746E-005	-1.16532E-002	-1.44320E-002	6.47366E-004	8.26774E-004	-1.35513E-002	8.94781E-004
	132	132	4.99709E-002	-2.05124E-002	0.00000E+000	-1.02502E-003	-2.02808E-001	3.49577E-002	2.79695E+001	11	...........	5.82772E-002	-3.54944E-003	5.55572E-001	6.88109E-001	-3.08621E-002	-3.94244E-002	6.45949E-001	-4.27446E-002	-1.19541E-003	7.28076E-005	-1.13961E-002	-1.41148E-002	6.33055E-004	8.08690E-004	-1.32500E-002	8.76794E-004
	133	133	4.99873E-002	-2.02000E-002	0.00000E+000	-1.00974E-003	-1.99710E-001	3.50761E-002	2.80555E+001	11	...........	5.84811E-002	-3.53917E-003	5.55625E-001	6.88036E-001	-3.08876E-002	-3.94392E-002	6.45912E-001	-4.27939E-002	-1.18132E-003	7.14912E-005	-1.12236E-002	-1.38983E-002	6.23931E-004	7.96672E-004	-1.30474E-002	8.64437E-004
	134	134	4.99691E-002	-1.99872E-002	0.00000E+000	-9.98743E-004	-1.97588E-001	3.48101E-002	2.81042E+001	11	...........	5.80410E-002	-3.59472E-003	5.55729E-001	6.87963E-001	-3.08735E-002	-3.94667E-002	6.45905E-001	-4.26119E-002	-1.16008E-003	7.18485E-005	-1.11075E-002	-1.37505E-002	6.17075E-004	7.88829E-004	-1.29098E-002	8.51694E-004
	135	135	4.99703E-002	-2.00583E-002	0.00000E+000	-1.00232E-003	-1.98296E-001	3.49617E-002	2.78513E+001	11	...........	5.82958E-002	-3.57736E-003	5.55844E-001	6.87899E-001	-3.08683E-002	-3.94657E-002	6.45900E-001	-4.25731E-002	-1.16932E-003	7.17559E-005	-1.11493E-002	-1.37981E-002	6.19167E-004	7.91616E-004	-1.29557E-002	8.53944E-004
	136	136	4.99857E-002	-1.97295E-002	0.00000E+000	-9.86195E-004	-1.95029E-001	3.50693E-002	2.79651E+001	11	...........	5.84575E-002	-3.52750E-003	5.56020E-001	6.87704E-001	-3.08515E-002	-3.94631E-002	6.45854E-001	-4.25590E-002	-1.15334E-003	6.95959E-005	-1.09700E-002	-1.35681E-002	6.08686E-004	7.78587E-004	-1.27424E-002	8.39669E-004
	137	137	4.99863E-002	-1.96163E-002	0.00000E+000	-9.80545E-004	-1.93900E-001	3.50446E-002	2.80873E+001	11	...........	5.84225E-002	-3.52889E-003	5.56017E-001	6.87592E-001	-3.08832E-002	-3.94328E-002	6.45874E-001	-4.26758E-002	-1.14603E-003	6.92237E-005	-1.09070E-002	-1.34880E-002	6.05813E-004	7.73524E-004	-1.26696E-002	8.37141E-004
	138	138	4.99669E-002	-1.95191E-002	0.00000E+000	-9.75309E-004	-1.92929E-001	3.47942E-002	2.85926E+001	11	...........	5.80336E-002	-3.58847E-003	5.55960E-001	6.87589E-001	-3.09231E-002	-3.94244E-002	6.45971E-001	-4.26621E-002	-1.13276E-003	7.00437E-005	-1.08518E-002	-1.34211E-002	6.03590E-004	7.69529E-004	-1.26088E-002	8.32725E-004
	139	139	4.99703E-002	-1.91060E-002	0.00000E+000	-9.54734E-004	-1.88826E-001	3.53634E-002	2.80780E+001	11	...........	5.89590E-002	-3.64931E-003	5.55971E-001	6.87770E-001	-3.09485E-002	-3.94514E-002	6.46028E-001	-4.27074E-002	-1.12647E-003	6.97238E-005	-1.06224E-002	-1.31406E-002	5.91303E-004	7.53760E-004	-1.23430E-002	8.15968E-004
	140	140	4.99813E-002	-1.86947E-002	0.00000E+000	-9.34385E-004	-1.84731E-001	3.48121E-002	2.86168E+001	11	...........	5.80371E-002	-3.53958E-003	5.55764E-001	6.87627E-001	-3.09569E-002	-3.94561E-002	6.45905E-001	-4.26815E-002	-1.08499E-003	6.61714E-005	-1.03898E-002	-1.28550E-002	5.78731E-004	7.37620E-004	-1.20750E-002	7.97918E-004
	141	141	4.99706E-002	-1.85716E-002	0.00000E+000	-9.28032E-004	-1.83514E-001	3.50877E-002	2.75945E+001	11	...........	5.85056E-002	-3.56556E-003	5.55850E-001	6.87671E-001	-3.09807E-002	-3.94533E-002	6.45878E-001	-4.26968E-002	-1.08654E-003	6.62179E-005	-1.03230E-002	-1.27711E-002	5.75360E-004	7.32710E-004	-1.19950E-002	7.92946E-004
	142	142	4.99863E-002	-1.83817E-002	0.00000E+000	-9.18834E-004	-1.81627E-001	3.50928E-002	2.87682E+001	11	...........	5.85007E-002	-3.57500E-003	5.55783E-001	6.87774E-001	-3.09783E-002	-3.94599E-002	6.46031E-001	-4.27053E-002	-1.07534E-003	6.57147E-005	-1.02163E-002	-1.26425E-002	5.69435E-004	7.25340E-004	-1.18752E-002	7.84997E-004
	143	143	4.99739E-002	-1.81441E-002	0.00000E+000	-9.06732E-004	-1.79263E-001	3.51552E-002	2.80679E+001	11	...........	5.86074E-002	-3.63750E-003	5.55787E-001	6.87811E-001	-3.09454E-002	-3.94522E-002	6.46136E-001	-4.27081E-002	-1.06338E-003	6.59992E-005	-1.00843E-002	-1.24797E-002	5.61477E-004	7.15825E-004	-1.17236E-002	7.74899E-004
	144	144	4.99780E-002	-1.78302E-002	0.00000E+000	-8.91118E-004	-1.76139E-001	3.51050E-002	2.78202E+001	11	...........	5.85321E-002	-3.68403E-003	5.55659E-001	6.87688E-001	-3.09585E-002	-3.94462E-002	6.46144E-001	-4.25965E-002	-1.04364E-003	6.56870E-005	-9.90753E-003	-1.22616E-002	5.51996E-004	7.03335E-004	-1.15209E-002	7.59505E-004
	145	145	4.99767E-002	-1.78992E-002	0.00000E+000	-8.94545E-004	-1.76833E-001	3.50466E-002	2.84121E+001	11	...........	5.84276E-002	-3.57722E-003	5.55530E-001	6.87770E-001	-3.09569E-002	-3.94342E-002	6.45991E-001	-4.26104E-002	-1.04581E-003	6.40295E-005	-9.94356E-003	-1.23106E-002	5.54105E-004	7.05841E-004	-1.15627E-002	7.62694E-004
	146	146	4.99784E-002	-1.73850E-002	0.00000E+000	-8.68877E-004	-1.71706E-001	3.51157E-002	2.79903E+001	11	...........	5.85364E-002	-3.65139E-003	5.55474E-001	6.87753E-001	-3.09596E-002	-3.94386E-002	6.45919E-001	-4.27444E-002	-1.01766E-003	6.34795E-005	-9.65694E-003	-1.19566E-002	5.38234E-004	6.85642E-004	-1.12293E-002	7.43114E-004
	147	147	4.99751E-002	-1.74936E-002	0.00000E+000	-8.74243E-004	-1.72789E-001	3.49382E-002	2.81495E+001	11	...........	5.82497E-002	-3.77125E-003	5.55593E-001	6.87665E-001	-3.10182E-002	-3.94100E-002	6.45982E-001	-4.26178E-002	-1.01900E-003	6.59726E-005	-9.71931E-003	-1.20297E-002	5.42619E-004	6.89421E-004	-1.13005E-002	7.45537E-004
	148	148	4.99792E-002	-1.71057E-002	0.00000E+000	-8.54927E-004	-1.68930E-001	3.51757E-002	2.81988E+001	11	...........	5.86462E-002	-3.75917E-003	5.55490E-001	6.87647E-001	-3.09829E-002	-3.93785E-002	6.45802E-001	-4.25614E-002	-1.00318E-003	6.43030E-005	-9.50201E-003	-1.17627E-002	5.29983E-004	6.73594E-004	-1.10469E-002	7.28040E-004
	149	149	4.99863E-002	-1.71397E-002	0.00000E+000	-8.56752E-004	-1.69269E-001	3.49311E-002	2.89957E+001	11	...........	5.85112E-002	-3.66833E-003	5.55524E-001	6.87689E-001	-3.09786E-002	-3.93737E-002	6.45879E-001	-4.27033E-002	-1.00287E-003	6.28742E-005	-9.52153E-003	-1.17868E-002	5.30965E-004	6.74856E-004	-1.10702E-002	7.31924E-004
	150	150	4.99710E-002	-1.70640E-002	0.00000E+000	-8.52704E-004	-1.68519E-001	3.51667E-002	2.85008E+001	11	...........	5.86297E-002	-3.55139E-003	5.55596E-001	6.87727E-001	-3.09657E-002	-3.93931E-002	6.45963E-001	-4.26207E-002	-1.00046E-003	6.06008E-005	-9.48068E-003	-1.17354E-002	5.28398E-004	6.72202E-004	-1.10227E-002	7.27279E-004
	151	151	4.99695E-002	-1.66137E-002	0.00000E+000	-8.30181E-004	-1.64039E-001	3.51413E-002	2.84550E+001	11	...........	5.85887E-002	-3.53444E-003	5.55566E-001	6.87550E-001	-3.09894E-002	-3.94054E-002	6.45950E-001	-4.25460E-002	-9.73379E-004	5.87204E-005	-9.23003E-003	-1.14228E-002	5.14851E-004	6.54672E-004	-1.07317E-002	7.06848E-004
	152	152	4.99796E-002	-1.67033E-002	0.00000E+000	-8.34822E-004	-1.64931E-001	3.52831E-002	2.88642E+001	11	...........	5.88187E-002	-3.53903E-003	5.55382E-001	6.87471E-001	-3.09931E-002	-3.94300E-002	6.45865E-001	-4.26411E-002	-9.82465E-004	5.91133E-005	-9.27668E-003	-1.14830E-002	5.17685E-004	6.58609E-004	-1.07880E-002	7.12245E-004
	153	153	4.99708E-002	-1.63981E-002	0.00000E+000	-8.19429E-004	-1.61893E-001	3.51517E-002	2.76590E+001	11	...........	5.86067E-002	-3.52208E-003	5.55214E-001	6.87507E-001	-3.10175E-002	-3.94569E-002	6.45960E-001	-4.27104E-002	-9.61041E-004	5.77556E-005	-9.10448E-003	-1.12738E-002	5.08629E-004	6.47021E-004	-1.05925E-002	7.00372E-004
	154	154	4.99779E-002	-1.60370E-002	0.00000E+000	-8.01495E-004	-1.58297E-001	3.50513E-002	2.91286E+001	11	...........	5.84192E-002	-3.57403E-003	5.55204E-001	6.87515E-001	-3.10179E-002	-3.94661E-002	6.45952E-001	-4.26747E-002	-9.36867E-004	5.73166E-005	-8.90379E-003	-1.10257E-002	4.97433E-004	6.32917E-004	-1.03591E-002	6.84373E-004
	155	155	4.99880E-002	-1.58898E-002	0.00000E+000	-7.94297E-004	-1.56835E-001	3.54358E-002	2.81181E+001	11	...........	5.90692E-002	-3.51375E-003	5.55270E-001	6.87726E-001	-3.10719E-002	-3.94547E-002	6.45934E-001	-4.26371E-002	-9.38595E-004	5.58327E-005	-8.82311E-003	-1.09278E-002	4.93726E-004	6.26926E-004	-1.02637E-002	6.77493E-004
	156	156	4.99762E-002	-1.55752E-002	0.00000E+000	-7.78390E-004	-1.53709E-001	3.50214E-002	2.85504E+001	11	...........	5.83990E-002	-3.52389E-003	5.55257E-001	6.87735E-001	-3.11299E-002	-3.94140E-002	6.45837E-001	-4.26692E-002	-9.09578E-004	5.48854E-005	-8.64826E-003	-1.07116E-002	4.84855E-004	6.13882E-004	-1.00591E-002	6.64582E-004
	157	157	4.99696E-002	-1.55889E-002	0.00000E+000	-7.78971E-004	-1.53849E-001	3.52053E-002	2.83821E+001	11	...........	5.87042E-002	-3.57583E-003	5.55363E-001	6.87698E-001	-3.11283E-002	-3.94144E-002	6.45764E-001	-4.27894E-002	-9.15133E-004	5.57433E-005	-8.65749E-003	-1.07204E-002	4.85256E-004	6.14428E-004	-1.00668E-002	6.67040E-004
	158	158	4.99784E-002	-1.51698E-002	0.00000E+000	-7.58164E-004	-1.49677E-001	3.51669E-002	2.87812E+001	11	...........	5.86319E-002	-3.59097E-003	5.55357E-001	6.87603E-001	-3.10882E-002	-3.94186E-002	6.45838E-001	-4.27069E-002	-8.89436E-004	5.44744E-005	-8.42466E-003	-1.04308E-002	4.71602E-004	5.97973E-004	-9.79724E-003	6.47857E-004
	159	159	4.99723E-002	-1.53242E-002	0.00000E+000	-7.65786E-004	-1.51213E-001	3.53101E-002	2.86204E+001	11	...........	5.88687E-002	-3.56056E-003	5.55443E-001	6.87710E-001	-3.10789E-002	-3.94383E-002	6.45912E-001	-4.27265E-002	-9.02116E-004	5.45626E-005	-8.51172E-003	-1.05386E-002	4.76259E-004	6.04360E-004	-9.89808E-003	6.54749E-004
	160	160	4.99785E-002	-1.49172E-002	0.00000E+000	-7.45540E-004	-1.47160E-001	3.53128E-002	2.85697E+001	11	...........	5.88703E-002	-3.43333E-003	5.55486E-001	6.87632E-001	-3.10500E-002	-3.94890E-002	6.45875E-001	-4.27707E-002	-8.78179E-004	5.12157E-005	-8.28630E-003	-1.02575E-002	4.63179E-004	5.89066E-004	-9.63465E-003	6.38019E-004
	161	161	4.99815E-002	-1.48448E-002	0.00000E+000	-7.41962E-004	-1.46436E-001	3.51767E-002	2.83045E+001	11	...........	5.86460E-002	-3.35792E-003	5.55610E-001	6.87531E-001	-3.10749E-002	-3.95100E-002	6.45896E-001	-4.26853E-002	-8.70585E-004	4.98474E-005	-8.24789E-003	-1.02062E-002	4.61299E-004	5.86516E-004	-9.58816E-003	6.33652E-004
	162	162	4.99724E-002	-1.46834E-002	0.00000E+000	-7.33768E-004	-1.44835E-001	3.52789E-002	2.89162E+001	11	...........	5.88167E-002	-3.42403E-003	5.55622E-001	6.87406E-001	-3.10417E-002	-3.94960E-002	6.45999E-001	-4.26511E-002	-8.63631E-004	5.02765E-005	-8.15845E-003	-1.00935E-002	4.55799E-004	5.79937E-004	-9.48550E-003	6.26265E-004
	163	163	4.99785E-002	-1.45739E-002	0.00000E+000	-7.28382E-004	-1.43744E-001	3.53757E-002	2.89353E+001	11	...........	5.89960E-002	-3.49097E-003	5.55486E-001	6.87496E-001	-3.10199E-002	-3.94712E-002	6.45969E-001	-4.26956E-002	-8.59801E-004	5.08771E-005	-8.09560E-003	-1.00195E-002	4.52080E-004	5.75250E-004	-9.41429E-003	6.22241E-004
	164	164	4.99747E-002	-1.42147E-002	0.00000E+000	-7.10376E-004	-1.40171E-001	3.51567E-002	2.88080E+001	11	...........	5.86031E-002	-3.51083E-003	5.55413E-001	6.87507E-001	-3.10340E-002	-3.94551E-002	6.45863E-001	-4.26906E-002	-8.33025E-004	4.99054E-005	-7.89503E-003	-9.77270E-003	4.41139E-004	5.60843E-004	-9.18075E-003	6.06833E-004
	165	165	4.99810E-002	-1.39985E-002	0.00000E+000	-6.99661E-004	-1.38027E-001	3.53749E-002	2.83498E+001	11	...........	5.89539E-002	-3.59542E-003	5.55461E-001	6.87414E-001	-3.10171E-002	-3.94728E-002	6.45986E-001	-4.27076E-002	-8.25268E-004	5.03306E-005	-7.77564E-003	-9.62279E-003	4.34194E-004	5.52561E-004	-9.04286E-003	5.97844E-004
	166	166	4.99779E-002	-1.39194E-002	0.00000E+000	-6.95662E-004	-1.37236E-001	3.52815E-002	2.88275E+001	11	...........	5.88351E-002	-3.59542E-003	5.55454E-001	6.87273E-001	-3.10101E-002	-3.94599E-002	6.46088E-001	-4.27162E-002	-8.18950E-004	5.00460E-005	-7.73159E-003	-9.56643E-003	4.31643E-004	5.49258E-004	-8.99316E-003	5.94585E-004
	167	167	4.99745E-002	-1.38005E-002	0.00000E+000	-6.89671E-004	-1.36051E-001	3.52656E-002	2.85689E+001	11	...........	5.87936E-002	-3.55500E-003	5.55571E-001	6.87129E-001	-3.10132E-002	-3.94565E-002	6.46223E-001	-4.26460E-002	-8.11379E-004	4.90607E-005	-7.66714E-003	-9.48270E-003	4.27997E-004	5.44519E-004	-8.91817E-003	5.88534E-004
	168	168	4.99797E-002	-1.35825E-002	0.00000E+000	-6.78847E-004	-1.33879E-001	3.54002E-002	2.82970E+001	11	...........	5.90183E-002	-3.50861E-003	5.55552E-001	6.87220E-001	-3.10108E-002	-3.94651E-002	6.46290E-001	-4.27325E-002	-8.01614E-004	4.76555E-005	-7.54575E-003	-9.33413E-003	4.21203E-004	5.36033E-004	-8.77820E-003	5.80412E-004
	169	169	4.99751E-002	-1.35767E-002	0.00000E+000	-6.78497E-004	-1.33825E-001	3.52377E-002	2.86614E+001	11	...........	5.87479E-002	-3.57125E-003	5.55588E-001	6.87183E-001	-3.10404E-002	-3.94822E-002	6.46252E-001	-4.27481E-002	-7.97602E-004	4.84857E-005	-7.54305E-003	-9.32967E-003	4.21426E-004	5.36038E-004	-8.77395E-003	5.80377E-004
	170	170	4.99817E-002	-1.30722E-002	0.00000E+000	-6.53373E-004	-1.28808E-001	3.52880E-002	2.83000E+001	11	...........	5.88532E-002	-3.59028E-003	5.55412E-001	6.87190E-001	-3.10256E-002	-3.94756E-002	6.46295E-001	-4.26200E-002	-7.69343E-004	4.69330E-005	-7.26048E-003	-8.98312E-003	4.05573E-004	5.16034E-004	-8.44852E-003	5.57139E-004
	171	171	4.99829E-002	-1.32985E-002	0.00000E+000	-6.64697E-004	-1.31058E-001	3.53273E-002	2.92463E+001	11	...........	5.89022E-002	-3.61569E-003	5.55338E-001	6.87173E-001	-3.10364E-002	-3.94779E-002	6.46359E-001	-4.26962E-002	-7.83310E-004	4.80832E-005	-7.38515E-003	-9.13836E-003	4.12737E-004	5.24996E-004	-8.59559E-003	5.67795E-004
	172	172	4.99651E-002	-1.29248E-002	0.00000E+000	-6.45790E-004	-1.27342E-001	3.52632E-002	2.91386E+001	11	...........	5.87821E-002	-3.57417E-003	5.55263E-001	6.87122E-001	-3.10612E-002	-3.94935E-002	6.46293E-001	-4.25428E-002	-7.59748E-004	4.61954E-005	-7.17667E-003	-8.88093E-003	4.01461E-004	5.10446E-004	-8.35322E-003	5.49857E-004
	173	173	4.99814E-002	-1.27333E-002	0.00000E+000	-6.36430E-004	-1.25450E-001	3.56026E-002	2.79078E+001	11	...........	5.93667E-002	-3.61000E-003	5.55209E-001	6.87033E-001	-3.10739E-002	-3.94986E-002	6.46173E-001	-4.26160E-002	-7.55936E-004	4.59674E-005	-7.06967E-003	-8.74824E-003	3.95675E-004	5.02949E-004	-8.22794E-003	5.42644E-004
	174	174	4.99804E-002	-1.26792E-002	0.00000E+000	-6.33713E-004	-1.24902E-001	3.52795E-002	2.83083E+001	11	...........	5.88222E-002	-3.53153E-003	5.55299E-001	6.87037E-001	-3.10832E-002	-3.94831E-002	6.46202E-001	-4.26285E-002	-7.45820E-004	4.47770E-005	-7.04076E-003	-8.71109E-003	3.94111E-004	5.00615E-004	-8.19334E-003	5.40496E-004
	175	175	4.99722E-002	-1.24230E-002	0.00000E+000	-6.20804E-004	-1.22353E-001	3.52694E-002	2.78080E+001	11	...........	5.88260E-002	-3.64097E-003	5.55385E-001	6.87009E-001	-3.10590E-002	-3.94692E-002	6.46137E-001	-4.27425E-002	-7.30795E-004	4.52318E-005	-6.89955E-003	-8.53471E-003	3.85846E-004	4.90325E-004	-8.02696E-003	5.30990E-004
	176	176	4.99843E-002	-1.25535E-002	0.00000E+000	-6.27479E-004	-1.23657E-001	3.54049E-002	2.91055E+001	11	...........	5.90458E-002	-3.66514E-003	5.55386E-001	6.87061E-001	-3.10550E-002	-3.94710E-002	6.46079E-001	-4.27100E-002	-7.41234E-004	4.60105E-005	-6.97207E-003	-8.62504E-003	3.89850E-004	4.95500E-004	-8.11058E-003	5.36162E-004
	177	177	4.99748E-002	-1.21268E-002	0.00000E+000	-6.06034E-004	-1.19410E-001	3.54389E-002	2.81186E+001	11	...........	5.90801E-002	-3.61208E-003	5.55504E-001	6.87206E-001	-3.10658E-002	-3.94696E-002	6.46103E-001	-4.25929E-002	-7.16453E-004	4.38030E-005	-6.73648E-003	-8.33361E-003	3.76729E-004	4.78640E-004	-7.83516E-003	5.16516E-004
	178	178	4.99762E-002	-1.21683E-002	0.00000E+000	-6.08126E-004	-1.19822E-001	3.53835E-002	2.88201E+001	11	...........	5.89912E-002	-3.55417E-003	5.55427E-001	6.87093E-001	-3.10756E-002	-3.94906E-002	6.46099E-001	-4.26554E-002	-7.17825E-004	4.32482E-005	-6.75862E-003	-8.36077E-003	3.78137E-004	4.80534E-004	-7.86194E-003	5.19045E-004
	179	179	4.99757E-002	-1.20927E-002	0.00000E+000	-6.04341E-004	-1.19066E-001	3.54729E-002	2.86216E+001	11	...........	5.91392E-002	-3.56722E-003	5.55501E-001	6.87056E-001	-3.10279E-002	-3.95010E-002	6.46009E-001	-4.26847E-002	-7.15152E-004	4.31374E-005	-6.71751E-003	-8.30837E-003	3.75211E-004	4.77674E-004	-7.81200E-003	5.16174E-004
	180	180	4.99797E-002	-1.19463E-002	0.00000E+000	-5.97074E-004	-1.17618E-001	3.53990E-002	2.85316E+001	11	...........	5.90212E-002	-3.61972E-003	5.55303E-001	6.87173E-001	-3.10408E-002	-3.94961E-002	6.46012E-001	-4.27339E-002	-7.05087E-004	4.32424E-005	-6.63383E-003	-8.20919E-003	3.70824E-004	4.71833E-004	-7.71747E-003	5.10513E-004
	181	181	4.99772E-002	-1.18568E-002	0.00000E+000	-5.92569E-004	-1.16727E-001	3.53904E-002	2.85862E+001	11	...........	5.90044E-002	-3.47792E-003	5.55327E-001	6.87180E-001	-3.10647E-002	-3.95133E-002	6.45961E-001	-4.27668E-002	-6.99602E-004	4.12369E-005	-6.58439E-003	-8.14773E-003	3.68327E-004	4.68501E-004	-7.65901E-003	5.07076E-004
	182	182	4.99829E-002	-1.17079E-002	0.00000E+000	-5.85196E-004	-1.15245E-001	3.54647E-002	2.88047E+001	11	...........	5.91332E-002	-3.41194E-003	5.55260E-001	6.87122E-001	-3.10636E-002	-3.95026E-002	6.46001E-001	-4.26699E-002	-6.92328E-004	3.99468E-005	-6.50094E-003	-8.04478E-003	3.63691E-004	4.62494E-004	-7.56334E-003	4.99576E-004
	183	183	4.99796E-002	-1.15739E-002	0.00000E+000	-5.78459E-004	-1.13914E-001	3.54548E-002	2.90636E+001	11	...........	5.91097E-002	-3.56000E-003	5.55206E-001	6.87172E-001	-3.10774E-002	-3.95043E-002	6.46168E-001	-4.27014E-002	-6.84130E-004	4.12031E-005	-6.42590E-003	-7.95326E-003	3.59686E-004	4.57219E-004	-7.47868E-003	4.94222E-004
	184	184	4.99762E-002	-1.15201E-002	0.00000E+000	-5.75730E-004	-1.13377E-001	3.54269E-002	2.86423E+001	11	...........	5.90533E-002	-3.54472E-003	5.55254E-001	6.87166E-001	-3.10474E-002	-3.95187E-002	6.46188E-001	-4.26346E-002	-6.80300E-004	4.08356E-005	-6.39658E-003	-7.91622E-003	3.57669E-004	4.55260E-004	-7.44415E-003	4.91155E-004
	185	185	4.99760E-002	-1.14113E-002	0.00000E+000	-5.70290E-004	-1.12298E-001	3.55193E-002	2.85939E+001	11	...........	5.92139E-002	-3.41778E-003	5.55114E-001	6.87093E-001	-3.10124E-002	-3.94950E-002	6.46149E-001	-4.27856E-002	-6.75706E-004	3.90012E-005	-6.33456E-003	-7.84061E-003	3.53891E-004	4.50688E-004	-7.37339E-003	4.88238E-004
	186	186	4.99791E-002	-1.12031E-002	0.00000E+000	-5.59922E-004	-1.10222E-001	3.54188E-002	2.83825E+001	11	...........	5.90451E-002	-3.50903E-003	5.55252E-001	6.87057E-001	-3.10243E-002	-3.94910E-002	6.46075E-001	-4.26643E-002	-6.61489E-004	3.93120E-005	-6.22055E-003	-7.69718E-003	3.47569E-004	4.42422E-004	-7.23805E-003	4.77973E-004
	187	187	4.99753E-002	-1.11265E-002	0.00000E+000	-5.56048E-004	-1.09462E-001	3.54938E-002	2.83352E+001	11	...........	5.91851E-002	-3.63389E-003	5.55280E-001	6.87142E-001	-3.10118E-002	-3.95056E-002	6.46056E-001	-4.26029E-002	-6.58522E-004	4.04324E-005	-6.17831E-003	-7.64547E-003	3.45052E-004	4.39557E-004	-7.18833E-003	4.74020E-004
	188	188	4.99792E-002	-1.09958E-002	0.00000E+000	-5.49562E-004	-1.08158E-001	3.54292E-002	2.88643E+001	11	...........	5.90569E-002	-3.56861E-003	5.55325E-001	6.87091E-001	-3.10056E-002	-3.94975E-002	6.46134E-001	-4.26167E-002	-6.49380E-004	3.92398E-005	-6.10625E-003	-7.55513E-003	3.40932E-004	4.34308E-004	-7.10478E-003	4.68605E-004
	189	189	4.99726E-002	-1.07100E-002	0.00000E+000	-5.35205E-004	-1.05317E-001	3.54296E-002	2.83376E+001	11	...........	5.90576E-002	-3.50236E-003	5.55293E-001	6.87086E-001	-3.10039E-002	-3.95006E-002	6.46270E-001	-4.27406E-002	-6.32506E-004	3.75102E-005	-5.94717E-003	-7.35868E-003	3.32051E-004	4.23050E-004	-6.92154E-003	4.57750E-004
	190	190	4.99822E-002	-1.07775E-002	0.00000E+000	-5.38681E-004	-1.05990E-001	3.56367E-002	2.89967E+001	11	...........	5.94026E-002	-3.62069E-003	5.55383E-001	6.87087E-001	-3.10147E-002	-3.95133E-002	6.46185E-001	-4.28489E-002	-6.40210E-004	3.90219E-005	-5.98561E-003	-7.40506E-003	3.34260E-004	4.25853E-004	-6.96423E-003	4.61802E-004
	191	191	4.99762E-002	-1.06205E-002	0.00000E+000	-5.30773E-004	-1.04425E-001	3.54632E-002	2.88637E+001	11	...........	5.91254E-002	-3.49056E-003	5.55248E-001	6.87000E-001	-3.10169E-002	-3.95283E-002	6.46149E-001	-4.27657E-002	-6.27942E-004	3.70715E-005	-5.89702E-003	-7.29629E-003	3.29416E-004	4.19811E-004	-6.86243E-003	4.54194E-004
	192	192	4.99781E-002	-1.04349E-002	0.00000E+000	-5.21516E-004	-1.02615E-001	3.54767E-002	2.87716E+001	11	...........	5.91571E-002	-3.38903E-003	5.55205E-001	6.87005E-001	-3.10124E-002	-3.95340E-002	6.46050E-001	-4.27296E-002	-6.17298E-004	3.53641E-005	-5.79351E-003	-7.16882E-003	3.23611E-004	4.12533E-004	-6.74146E-003	4.45879E-004
	193	193	4.99785E-002	-1.02297E-002	0.00000E+000	-5.11267E-004	-1.00583E-001	3.55167E-002	2.84097E+001	11	...........	5.92186E-002	-3.29403E-003	5.55151E-001	6.87002E-001	-3.10326E-002	-3.95272E-002	6.46016E-001	-4.27900E-002	-6.05791E-004	3.36970E-005	-5.67905E-003	-7.02785E-003	3.17456E-004	4.04353E-004	-6.60858E-003	4.37730E-004
	194	194	4.99792E-002	-1.02869E-002	0.00000E+000	-5.14132E-004	-1.01145E-001	3.55734E-002	2.81211E+001	11	...........	5.93175E-002	-3.36694E-003	5.55261E-001	6.86972E-001	-3.10167E-002	-3.95144E-002	6.46022E-001	-4.26415E-002	-6.10194E-004	3.46354E-005	-5.71192E-003	-7.06682E-003	3.19066E-004	4.06481E-004	-6.64557E-003	4.38649E-004
	195	195	4.99800E-002	-1.02444E-002	0.00000E+000	-5.12017E-004	-1.00732E-001	3.56011E-002	2.85724E+001	11	...........	5.93444E-002	-3.35875E-003	5.55185E-001	6.86908E-001	-3.10378E-002	-3.94842E-002	6.45959E-001	-4.24814E-002	-6.07951E-004	3.44085E-005	-5.68756E-003	-7.03700E-003	3.17965E-004	4.04494E-004	-6.61750E-003	4.35198E-004
	196	196	4.99833E-002	-1.00264E-002	0.00000E+000	-5.01151E-004	-9.85553E-002	3.53507E-002	2.85378E+001	11	...........	5.89440E-002	-3.48806E-003	5.55141E-001	6.86902E-001	-3.10107E-002	-3.94769E-002	6.45893E-001	-4.24871E-002	-5.90995E-004	3.49725E-005	-5.56605E-003	-6.88714E-003	3.10925E-004	3.95811E-004	-6.47596E-003	4.25991E-004
	197	197	4.99706E-002	-9.89452E-003	0.00000E+000	-4.94435E-004	-9.72437E-002	3.53413E-002	2.81800E+001	11	...........	5.89358E-002	-3.53125E-003	5.55101E-001	6.86947E-001	-3.09976E-002	-3.94554E-002	6.45803E-001	-4.24681E-002	-5.83142E-004	3.49400E-005	-5.49246E-003	-6.79701E-003	3.06707E-004	3.90392E-004	-6.38991E-003	4.20201E-004
	198	198	4.99805E-002	-9.79024E-003	0.00000E+000	-4.89321E-004	-9.62107E-002	3.56237E-002	2.89880E+001	11	...........	5.93992E-002	-3.53056E-003	5.55123E-001	6.86971E-001	-3.09883E-002	-3.94226E-002	6.45934E-001	-4.25404E-002	-5.81532E-004	3.45650E-005	-5.43479E-003	-6.72562E-003	3.03383E-004	3.85957E-004	-6.32385E-003	4.16481E-004
	199	199	4.99753E-002	-9.82048E-003	0.00000E+000	-4.90782E-004	-9.65080E-002	3.56831E-002	2.87244E+001	11	...........	5.94631E-002	-3.56208E-003	5.55076E-001	6.86940E-001	-3.09954E-002	-3.94014E-002	6.45967E-001	-4.24721E-002	-5.83955E-004	3.49813E-005	-5.45111E-003	-6.74607E-003	3.04390E-004	3.86940E-004	-6.34370E-003	4.17096E-004
	200	200	4.99762E-002	-9.61433E-003	0.00000E+000	-4.80488E-004	-9.44543E-002	3.55912E-002	2.84153E+001	11	...........	5.93424E-002	-3.62486E-003	5.55220E-001	6.86950E-001	-3.10301E-002	-3.94129E-002	6.46067E-001	-4.26487E-002	-5.70537E-004	3.48506E-005	-5.33807E-003	-6.60456E-003	2.98334E-004	3.78929E-004	-6.21150E-003	4.10039E-004
	201	201	4.99816E-002	-9.64832E-003	0.00000E+000	-4.82239E-004	-9.47900E-002	3.56932E-002	2.88823E+001	11	...........	5.95233E-002	-3.65861E-003	5.55229E-001	6.87004E-001	-3.10519E-002	-3.94386E-002	6.45904E-001	-4.27364E-002	-5.74300E-004	3.52995E-005	-5.35703E-003	-6.62844E-003	2.99599E-004	3.80516E-004	-6.23189E-003	4.12334E-004
	202	202	4.99782E-002	-9.48244E-003	0.00000E+000	-4.73916E-004	-9.31407E-002	3.54861E-002	2.83528E+001	11	...........	5.91685E-002	-3.61542E-003	5.55313E-001	6.86933E-001	-3.10576E-002	-3.94310E-002	6.45875E-001	-4.26411E-002	-5.61061E-004	3.42830E-005	-5.26572E-003	-6.51380E-003	2.94502E-004	3.73902E-004	-6.12447E-003	4.04342E-004
	203	203	4.99785E-002	-9.39836E-003	0.00000E+000	-4.69716E-004	-9.22987E-002	3.55281E-002	2.90696E+001	11	...........	5.92464E-002	-3.49958E-003	5.55282E-001	6.86930E-001	-3.10568E-002	-3.94547E-002	6.45978E-001	-4.26512E-002	-5.56819E-004	3.28904E-005	-5.21874E-003	-6.45602E-003	2.91883E-004	3.70810E-004	-6.07113E-003	4.00852E-004
	204	204	4.99749E-002	-9.35400E-003	0.00000E+000	-4.67465E-004	-9.18593E-002	3.56197E-002	2.89750E+001	11	...........	5.93778E-002	-3.51681E-003	5.55296E-001	6.86980E-001	-3.10458E-002	-3.94333E-002	6.45986E-001	-4.26196E-002	-5.55419E-004	3.28962E-005	-5.19423E-003	-6.42601E-003	2.90403E-004	3.68859E-004	-6.04255E-003	3.98663E-004
	205	205	4.99732E-002	-9.05603E-003	0.00000E+000	-4.52559E-004	-8.88923E-002	3.55983E-002	2.80426E+001	11	...........	5.93506E-002	-3.56403E-003	5.55278E-001	6.86993E-001	-3.10464E-002	-3.94581E-002	6.45908E-001	-4.24635E-002	-5.37481E-004	3.22760E-005	-5.02862E-003	-6.22143E-003	2.81157E-004	3.57333E-004	-5.84936E-003	3.84551E-004
	206	206	4.99822E-002	-9.04815E-003	0.00000E+000	-4.52247E-004	-8.88207E-002	3.57522E-002	2.83767E+001	11	...........	5.95969E-002	-3.54736E-003	5.55403E-001	6.87067E-001	-3.10207E-002	-3.94383E-002	6.45908E-001	-4.26026E-002	-5.39242E-004	3.20971E-005	-5.02537E-003	-6.21669E-003	2.80680E-004	3.56844E-004	-5.84428E-003	3.85475E-004
	207	207	4.99863E-002	-8.96729E-003	0.00000E+000	-4.48241E-004	-8.80133E-002	3.55463E-002	2.88527E+001	11	...........	5.92418E-002	-3.50681E-003	5.55438E-001	6.87071E-001	-3.10112E-002	-3.94314E-002	6.45901E-001	-4.26851E-002	-5.31238E-004	3.14465E-005	-4.98078E-003	-6.16117E-003	2.78087E-004	3.53593E-004	-5.79198E-003	3.82770E-004
	208	208	4.99743E-002	-8.90173E-003	0.00000E+000	-4.44857E-004	-8.73650E-002	3.55953E-002	2.84429E+001	11	...........	5.93499E-002	-3.52778E-003	5.55690E-001	6.87036E-001	-3.10264E-002	-3.94353E-002	6.45887E-001	-4.27631E-002	-5.28316E-004	3.14033E-005	-4.94660E-003	-6.11580E-003	2.76188E-004	3.51042E-004	-5.74951E-003	3.80665E-004
	209	209	4.99780E-002	-8.71487E-003	0.00000E+000	-4.35552E-004	-8.55027E-002	3.54462E-002	2.82135E+001	11	...........	5.90910E-002	-3.55236E-003	5.55568E-001	6.87117E-001	-3.10057E-002	-3.94371E-002	6.45932E-001	-4.26558E-002	-5.14970E-004	3.09584E-005	-4.84170E-003	-5.98813E-003	2.70211E-004	3.43689E-004	-5.62921E-003	3.71740E-004
	210	210	4.99781E-002	-8.82373E-003	0.00000E+000	-4.40993E-004	-8.65933E-002	3.58595E-002	2.93739E+001	11	...........	5.97907E-002	-3.53597E-003	5.55556E-001	6.87052E-001	-3.10018E-002	-3.94529E-002	6.45860E-001	-4.26535E-002	-5.27577E-004	3.12005E-005	-4.90208E-003	-6.06236E-003	2.73552E-004	3.48122E-004	-5.69890E-003	3.76363E-004
	211	211	4.99741E-002	-8.61659E-003	0.00000E+000	-4.30607E-004	-8.45340E-002	3.57889E-002	2.80916E+001	11	...........	5.96868E-002	-3.56417E-003	5.55510E-001	6.86966E-001	-3.10619E-002	-3.94614E-002	6.45850E-001	-4.26757E-002	-5.14297E-004	3.07110E-005	-4.78660E-003	-5.91931E-003	2.67648E-004	3.40023E-004	-5.56502E-003	3.67719E-004
	212	212	4.99843E-002	-8.56839E-003	0.00000E+000	-4.28285E-004	-8.40450E-002	3.54957E-002	2.85502E+001	11	...........	5.91822E-002	-3.54750E-003	5.55448E-001	6.86899E-001	-3.10644E-002	-3.94389E-002	6.45760E-001	-4.26358E-002	-5.07096E-004	3.03964E-005	-4.75929E-003	-5.88561E-003	2.66172E-004	3.37928E-004	-5.53312E-003	3.65320E-004
	213	213	4.99768E-002	-8.54590E-003	0.00000E+000	-4.27097E-004	-8.38233E-002	3.57147E-002	2.86553E+001	11	...........	5.95447E-002	-3.66472E-003	5.55502E-001	6.87003E-001	-3.10974E-002	-3.94582E-002	6.45888E-001	-4.26065E-002	-5.08863E-004	3.13184E-005	-4.74726E-003	-5.87106E-003	2.65755E-004	3.37206E-004	-5.51969E-003	3.64111E-004
	214	214	4.99760E-002	-8.34747E-003	0.00000E+000	-4.17173E-004	-8.18557E-002	3.56822E-002	2.81534E+001	11	...........	5.94769E-002	-3.63875E-003	5.55426E-001	6.86999E-001	-3.10685E-002	-3.94753E-002	6.45906E-001	-4.25137E-002	-4.96482E-004	3.03743E-005	-4.63640E-003	-5.73470E-003	2.59343E-004	3.29519E-004	-5.39168E-003	3.54882E-004
	215	215	4.99787E-002	-8.21912E-003	0.00000E+000	-4.10780E-004	-8.05760E-002	3.53799E-002	2.85056E+001	11	...........	5.89800E-002	-3.57181E-003	5.55445E-001	6.86975E-001	-3.10356E-002	-3.94494E-002	6.45952E-001	-4.26119E-002	-4.84763E-004	2.93571E-005	-4.56527E-003	-5.64632E-003	2.55085E-004	3.24240E-004	-5.30916E-003	3.50232E-004
	216	216	4.99785E-002	-8.23426E-003	0.00000E+000	-4.11536E-004	-8.07253E-002	3.57823E-002	2.87796E+001	11	...........	5.96553E-002	-3.55569E-003	5.55375E-001	6.86932E-001	-3.10044E-002	-3.94415E-002	6.46047E-001	-4.27561E-002	-4.91217E-004	2.92785E-005	-4.57310E-003	-5.65638E-003	2.55299E-004	3.24772E-004	-5.31972E-003	3.52065E-004
	217	217	4.99818E-002	-8.21620E-003	0.00000E+000	-4.10660E-004	-8.05463E-002	3.57653E-002	2.88143E+001	11	...........	5.96329E-002	-3.50847E-003	5.55292E-001	6.86856E-001	-3.09907E-002	-3.94572E-002	6.46107E-001	-4.27542E-002	-4.89956E-004	2.88263E-005	-4.56239E-003	-5.64335E-003	2.54626E-004	3.24189E-004	-5.30855E-003	3.51277E-004
	218	218	4.99759E-002	-8.07836E-003	0.00000E+000	-4.03723E-004	-7.91743E-002	3.55642E-002	2.88077E+001	11	...........	5.92990E-002	-3.50417E-003	5.55530E-001	6.86937E-001	-3.09833E-002	-3.94561E-002	6.46060E-001	-4.26822E-002	-4.79039E-004	2.83079E-005	-4.48777E-003	-5.54932E-003	2.50294E-004	3.18740E-004	-5.21910E-003	3.44802E-004
	219	219	4.99810E-002	-8.17421E-003	0.00000E+000	-4.08555E-004	-8.01280E-002	3.57009E-002	2.87266E+001	11	...........	5.95360E-002	-3.47625E-003	5.55476E-001	6.86948E-001	-3.09964E-002	-3.94496E-002	6.45878E-001	-4.27725E-002	-4.86660E-004	2.84156E-005	-4.54058E-003	-5.61526E-003	2.53371E-004	3.22469E-004	-5.27955E-003	3.49632E-004
	220	220	4.99772E-002	-8.12031E-003	0.00000E+000	-4.05830E-004	-7.95890E-002	3.57713E-002	2.89409E+001	11	...........	5.96224E-002	-3.46708E-003	5.55479E-001	6.86869E-001	-3.10222E-002	-3.94329E-002	6.45766E-001	-4.26367E-002	-4.84152E-004	2.81538E-005	-4.51066E-003	-5.57758E-003	2.51910E-004	3.20207E-004	-5.24381E-003	3.46223E-004
	221	221	4.99765E-002	-7.80939E-003	0.00000E+000	-3.90286E-004	-7.65020E-002	3.54616E-002	2.76973E+001	11	...........	5.91229E-002	-3.41750E-003	5.55679E-001	6.86999E-001	-3.09919E-002	-3.94444E-002	6.45885E-001	-4.26047E-002	-4.61714E-004	2.66886E-005	-4.33951E-003	-5.36504E-003	2.42028E-004	3.08037E-004	-5.04396E-003	3.32717E-004
	222	222	4.99796E-002	-7.73008E-003	0.00000E+000	-3.86346E-004	-7.57230E-002	3.54697E-002	2.84459E+001	11	...........	5.91350E-002	-3.48139E-003	5.55794E-001	6.87069E-001	-3.10032E-002	-3.94308E-002	6.45892E-001	-4.25904E-002	-4.57118E-004	2.69114E-005	-4.29633E-003	-5.31110E-003	2.39657E-004	3.04803E-004	-4.99280E-003	3.29227E-004
	223	223	4.99827E-002	-7.96052E-003	0.00000E+000	-3.97888E-004	-7.79997E-002	3.60887E-002	2.94131E+001	11	...........	6.01681E-002	-3.44153E-003	5.55761E-001	6.87167E-001	-3.09757E-002	-3.94237E-002	6.46009E-001	-4.25397E-002	-4.78969E-004	2.73964E-005	-4.42415E-003	-5.47021E-003	2.46583E-004	3.13834E-004	-5.14257E-003	3.38638E-004
	224	224	4.99736E-002	-7.67296E-003	0.00000E+000	-3.83445E-004	-7.51557E-002	3.55311E-002	2.84165E+001	11	...........	5.92343E-002	-3.50847E-003	5.55772E-001	6.87254E-001	-3.09619E-002	-3.94317E-002	6.46115E-001	-4.26143E-002	-4.54503E-004	2.69204E-005	-4.26442E-003	-5.27328E-003	2.37570E-004	3.02558E-004	-4.95762E-003	3.26978E-004
	225	225	4.99783E-002	-7.55552E-003	0.00000E+000	-3.77612E-004	-7.39847E-002	3.57190E-002	2.83314E+001	11	...........	5.95540E-002	-3.54667E-003	5.55729E-001	6.87357E-001	-3.09831E-002	-3.94521E-002	6.46126E-001	-4.26957E-002	-4.49962E-004	2.67969E-005	-4.19882E-003	-5.19334E-003	2.34093E-004	2.98081E-004	-4.88182E-003	3.22588E-004
	226	226	4.99807E-002	-7.63512E-003	0.00000E+000	-3.81608E-004	-7.47810E-002	3.58531E-002	2.93582E+001	11	...........	5.97671E-002	-3.45208E-003	5.55729E-001	6.87510E-001	-3.09736E-002	-3.94799E-002	6.46064E-001	-4.27839E-002	-4.56329E-004	2.63571E-005	-4.24305E-003	-5.24922E-003	2.36487E-004	3.01433E-004	-4.93278E-003	3.26660E-004
	227	227	4.99791E-002	-7.57683E-003	0.00000E+000	-3.78683E-004	-7.41957E-002	3.56109E-002	2.83722E+001	11	...........	5.93904E-002	-3.43403E-003	5.55767E-001	6.87488E-001	-3.09592E-002	-3.94649E-002	6.46103E-001	-4.28524E-002	-4.49991E-004	2.60190E-005	-4.21095E-003	-5.20897E-003	2.34572E-004	2.99018E-004	-4.89541E-003	3.24685E-004
	228	228	4.99786E-002	-7.51332E-003	0.00000E+000	-3.75505E-004	-7.35663E-002	3.56537E-002	2.91547E+001	11	...........	5.94550E-002	-3.42306E-003	5.55637E-001	6.87408E-001	-3.09292E-002	-3.94644E-002	6.46053E-001	-4.26621E-002	-4.46704E-004	2.57185E-005	-4.17468E-003	-5.16472E-003	2.32381E-004	2.96509E-004	-4.85400E-003	3.20534E-004
	229	229	4.99773E-002	-7.56186E-003	0.00000E+000	-3.77922E-004	-7.40530E-002	3.57614E-002	2.87660E+001	11	...........	5.96290E-002	-3.47403E-003	5.55577E-001	6.87394E-001	-3.09037E-002	-3.94789E-002	6.46180E-001	-4.25854E-002	-4.50907E-004	2.62701E-005	-4.20120E-003	-5.19798E-003	2.33690E-004	2.98534E-004	-4.88633E-003	3.22025E-004
	230	230	4.99812E-002	-7.32648E-003	0.00000E+000	-3.66186E-004	-7.17003E-002	3.57425E-002	2.81261E+001	11	...........	5.95790E-002	-3.43611E-003	5.55474E-001	6.87519E-001	-3.08929E-002	-3.94624E-002	6.46221E-001	-4.25089E-002	-4.36504E-004	2.51746E-005	-4.06967E-003	-5.03709E-003	2.26336E-004	2.89120E-004	-4.73452E-003	3.11440E-004
	231	231	4.99774E-002	-7.24580E-003	0.00000E+000	-3.62126E-004	-7.08963E-002	3.55536E-002	2.85552E+001	11	...........	5.92803E-002	-3.52750E-003	5.55465E-001	6.87570E-001	-3.09146E-002	-3.94367E-002	6.46308E-001	-4.24731E-002	-4.29533E-004	2.55596E-005	-4.02479E-003	-4.98199E-003	2.24001E-004	2.85750E-004	-4.68302E-003	3.07751E-004
	232	232	4.99766E-002	-7.25481E-003	0.00000E+000	-3.62571E-004	-7.09850E-002	3.58510E-002	2.88153E+001	11	...........	5.97626E-002	-3.55764E-003	5.55485E-001	6.87467E-001	-3.08986E-002	-3.94525E-002	6.46365E-001	-4.24757E-002	-4.33566E-004	2.58100E-005	-4.02994E-003	-4.98744E-003	2.24163E-004	2.86220E-004	-4.68925E-003	3.08153E-004
	233	233	4.99810E-002	-7.03132E-003	0.00000E+000	-3.51433E-004	-6.87633E-002	3.56297E-002	2.80342E+001	11	...........	5.93993E-002	-3.49306E-003	5.55442E-001	6.87378E-001	-3.08756E-002	-3.94543E-002	6.46263E-001	-4.24582E-002	-4.17656E-004	2.45608E-005	-3.90549E-003	-4.83318E-003	2.17096E-004	2.77416E-004	-4.54408E-003	2.98537E-004
	234	234	4.99749E-002	-7.05871E-003	0.00000E+000	-3.52759E-004	-6.90383E-002	3.56228E-002	2.85225E+001	11	...........	5.93942E-002	-3.48833E-003	5.55585E-001	6.87365E-001	-3.08899E-002	-3.94793E-002	6.46063E-001	-4.25433E-002	-4.19246E-004	2.46231E-005	-3.92172E-003	-4.85191E-003	2.18043E-004	2.78673E-004	-4.56037E-003	3.00301E-004
	235	235	4.99809E-002	-7.04338E-003	0.00000E+000	-3.52034E-004	-6.88837E-002	3.61097E-002	2.86992E+001	11	...........	6.01999E-002	-3.51806E-003	5.55651E-001	6.87533E-001	-3.08992E-002	-3.94693E-002	6.46269E-001	-4.26564E-002	-4.24010E-004	2.47790E-005	-3.91366E-003	-4.84256E-003	2.17635E-004	2.77997E-004	-4.55192E-003	3.00445E-004
	236	236	4.99736E-002	-6.92023E-003	0.00000E+000	-3.45829E-004	-6.76600E-002	3.52376E-002	2.81644E+001	11	...........	5.90999E-002	-3.64125E-003	5.55587E-001	6.87497E-001	-3.09251E-002	-3.94943E-002	6.46085E-001	-4.26538E-002	-4.08985E-004	2.51983E-005	-3.84479E-003	-4.75764E-003	2.14009E-004	2.73310E-004	-4.47106E-003	2.95174E-004
	237	237	4.99825E-002	-6.80991E-003	0.00000E+000	-3.40376E-004	-6.65587E-002	3.59688E-002	2.82052E+001	11	...........	5.99582E-002	-3.69583E-003	5.55467E-001	6.87607E-001	-3.09128E-002	-3.95304E-002	6.46069E-001	-4.26286E-002	-4.08310E-004	2.51683E-005	-3.78268E-003	-4.68254E-003	2.10513E-004	2.69198E-004	-4.39967E-003	2.90297E-004
	238	238	4.99805E-002	-6.98337E-003	0.00000E+000	-3.49032E-004	-6.82870E-002	3.56728E-002	2.95610E+001	11	...........	5.94726E-002	-3.65347E-003	5.55404E-001	6.87806E-001	-3.09122E-002	-3.95396E-002	6.46189E-001	-4.26668E-002	-4.15319E-004	2.55135E-005	-3.87859E-003	-4.80320E-003	2.15871E-004	2.76119E-004	-4.51257E-003	2.97958E-004
	239	239	4.99802E-002	-6.78778E-003	0.00000E+000	-3.39255E-004	-6.63407E-002	3.57200E-002	2.86301E+001	11	...........	5.95283E-002	-3.65472E-003	5.55447E-001	6.87949E-001	-3.09074E-002	-3.95636E-002	6.46167E-001	-4.27326E-002	-4.04065E-004	2.48074E-005	-3.77025E-003	-4.66965E-003	2.09792E-004	2.68549E-004	-4.38604E-003	2.90060E-004
	240	240	4.99754E-002	-6.74638E-003	0.00000E+000	-3.37153E-004	-6.59263E-002	3.57008E-002	2.87191E+001	11	...........	5.95094E-002	-3.58083E-003	5.55357E-001	6.88016E-001	-3.08914E-002	-3.95467E-002	6.46132E-001	-4.27286E-002	-4.01473E-004	2.41576E-005	-3.74665E-003	-4.64161E-003	2.08405E-004	2.66797E-004	-4.35905E-003	2.88263E-004
	241	241	4.99812E-002	-6.69135E-003	0.00000E+000	-3.34442E-004	-6.53757E-002	3.57703E-002	2.82700E+001	11	...........	5.96137E-002	-3.64500E-003	5.55224E-001	6.88040E-001	-3.09072E-002	-3.95487E-002	6.46212E-001	-4.28047E-002	-3.98896E-004	2.43900E-005	-3.71520E-003	-4.60391E-003	2.06811E-004	2.64634E-004	-4.32403E-003	2.86421E-004
	242	242	4.99809E-002	-6.75502E-003	0.00000E+000	-3.37622E-004	-6.60110E-002	3.59749E-002	2.84292E+001	11	...........	5.99885E-002	-3.53806E-003	5.55344E-001	6.87942E-001	-3.09010E-002	-3.95351E-002	6.46062E-001	-4.27708E-002	-4.05223E-004	2.38996E-005	-3.75136E-003	-4.64706E-003	2.08737E-004	2.67060E-004	-4.36416E-003	2.88918E-004
	243	243	4.99754E-002	-6.68324E-003	0.00000E+000	-3.33998E-004	-6.53000E-002	3.57110E-002	2.84666E+001	11	...........	5.95544E-002	-3.50194E-003	5.55264E-001	6.87724E-001	-3.09162E-002	-3.95367E-002	6.45990E-001	-4.27550E-002	-3.98017E-004	2.34043E-005	-3.71096E-003	-4.59622E-003	2.06621E-004	2.64233E-004	-4.31730E-003	2.85742E-004
	244	244	4.99783E-002	-6.53577E-003	0.00000E+000	-3.26647E-004	-6.38330E-002	3.56374E-002	2.81860E+001	11	...........	5.93910E-002	-3.48875E-003	5.55331E-001	6.87674E-001	-3.09217E-002	-3.95099E-002	6.46103E-001	-4.28443E-002	-3.88166E-004	2.28017E-005	-3.62952E-003	-4.49448E-003	2.02097E-004	2.58227E-004	-4.22278E-003	2.80021E-004
	245	245	4.99804E-002	-6.57598E-003	0.00000E+000	-3.28670E-004	-6.42267E-002	3.59557E-002	2.92523E+001	11	...........	5.99312E-002	-3.52611E-003	5.55321E-001	6.87507E-001	-3.09068E-002	-3.95158E-002	6.46097E-001	-4.26556E-002	-3.94107E-004	2.31876E-005	-3.65178E-003	-4.52103E-003	2.03242E-004	2.59855E-004	-4.24872E-003	2.80502E-004
	246	246	4.99797E-002	-6.50369E-003	0.00000E+000	-3.25053E-004	-6.35100E-002	3.58530E-002	2.91138E+001	11	...........	5.97781E-002	-3.57181E-003	5.55205E-001	6.87406E-001	-3.08772E-002	-3.94882E-002	6.46240E-001	-4.26693E-002	-3.88778E-004	2.32299E-005	-3.61089E-003	-4.47068E-003	2.00816E-004	2.56819E-004	-4.20295E-003	2.77508E-004
	247	247	4.99764E-002	-6.33243E-003	0.00000E+000	-3.16472E-004	-6.18140E-002	3.57046E-002	2.75872E+001	11	...........	5.95311E-002	-3.53361E-003	5.55003E-001	6.87421E-001	-3.09082E-002	-3.94694E-002	6.46299E-001	-4.28140E-002	-3.76977E-004	2.23764E-005	-3.51452E-003	-4.35305E-003	1.95724E-004	2.49938E-004	-4.09265E-003	2.71117E-004
	248	248	4.99792E-002	-6.41525E-003	0.00000E+000	-3.20629E-004	-6.26397E-002	3.57257E-002	2.87401E+001	11	...........	5.95657E-002	-3.59931E-003	5.55103E-001	6.87570E-001	-3.09287E-002	-3.94536E-002	6.46174E-001	-4.29122E-002	-3.82129E-004	2.30905E-005	-3.56113E-003	-4.41094E-003	1.98416E-004	2.53105E-004	-4.14537E-003	2.75293E-004
	249	249	4.99784E-002	-6.27580E-003	0.00000E+000	-3.13655E-004	-6.12533E-002	3.59327E-002	2.78885E+001	11	...........	5.98985E-002	-3.61347E-003	5.55174E-001	6.87727E-001	-3.09700E-002	-3.94357E-002	6.46246E-001	-4.28982E-002	-3.75911E-004	2.26774E-005	-3.48416E-003	-4.31604E-003	1.94362E-004	2.47491E-004	-4.05571E-003	2.69221E-004
	250	250	4.99790E-002	-6.29179E-003	0.00000E+000	-3.14457E-004	-6.14093E-002	3.55524E-002	2.90051E+001	11	...........	5.92711E-002	-3.59958E-003	5.55329E-001	6.87710E-001	-3.09346E-002	-3.94532E-002	6.46289E-001	-4.28281E-002	-3.72921E-004	2.26478E-005	-3.49401E-003	-4.32693E-003	1.94634E-004	2.48231E-004	-4.06632E-003	2.69465E-004
	251	251	4.99770E-002	-6.26283E-003	0.00000E+000	-3.12997E-004	-6.11247E-002	3.59179E-002	2.83903E+001	11	...........	5.98840E-002	-3.63194E-003	5.55433E-001	6.87735E-001	-3.09039E-002	-3.94261E-002	6.46105E-001	-4.28396E-002	-3.75043E-004	2.27462E-005	-3.47858E-003	-4.30716E-003	1.93546E-004	2.46919E-004	-4.04644E-003	2.68297E-004
	252	252	4.99797E-002	-6.15198E-003	0.00000E+000	-3.07474E-004	-6.00197E-002	3.58767E-002	2.82835E+001	11	...........	5.98232E-002	-3.71764E-003	5.55486E-001	6.87763E-001	-3.08969E-002	-3.94158E-002	6.46077E-001	-4.27524E-002	-3.68031E-004	2.28708E-005	-3.41734E-003	-4.23110E-003	1.90077E-004	2.42485E-004	-3.97465E-003	2.63012E-004
	253	253	4.99773E-002	-6.14877E-003	0.00000E+000	-3.07299E-004	-5.99867E-002	3.58350E-002	2.87788E+001	11	...........	5.97439E-002	-3.85611E-003	5.55452E-001	6.87666E-001	-3.09103E-002	-3.94119E-002	6.46306E-001	-4.26011E-002	-3.67352E-004	2.37103E-005	-3.41535E-003	-4.22830E-003	1.90060E-004	2.42335E-004	-3.97399E-003	2.61945E-004
	254	254	4.99826E-002	-6.15101E-003	0.00000E+000	-3.07444E-004	-6.00073E-002	3.60114E-002	2.93916E+001	11	...........	6.00419E-002	-3.75792E-003	5.55403E-001	6.87686E-001	-3.09450E-002	-3.94082E-002	6.46283E-001	-4.26494E-002	-3.69319E-004	2.31150E-005	-3.41629E-003	-4.22996E-003	1.90343E-004	2.42400E-004	-3.97529E-003	2.62337E-004
	255	255	4.99771E-002	-6.06383E-003	0.00000E+000	-3.03053E-004	-5.91393E-002	3.55979E-002	2.85388E+001	11	...........	5.93510E-002	-3.67111E-003	5.55428E-001	6.87570E-001	-3.09281E-002	-3.93971E-002	6.46260E-001	-4.27497E-002	-3.59894E-004	2.22610E-005	-3.36802E-003	-4.16931E-003	1.87542E-004	2.38897E-004	-3.91881E-003	2.59227E-004
	256	256	4.99789E-002	-6.05373E-003	0.00000E+000	-3.02559E-004	-5.90377E-002	3.59133E-002	2.89998E+001	11	...........	5.98897E-002	-3.67403E-003	5.55371E-001	6.87609E-001	-3.09082E-002	-3.93775E-002	6.46143E-001	-4.28474E-002	-3.62556E-004	2.22416E-005	-3.36207E-003	-4.16260E-003	1.87110E-004	2.38381E-004	-3.91158E-003	2.59387E-004
	257	257	4.99791E-002	-5.91465E-003	0.00000E+000	-2.95609E-004	-5.76537E-002	3.58978E-002	2.81016E+001	11	...........	5.98542E-002	-3.63458E-003	5.55347E-001	6.87641E-001	-3.09296E-002	-3.93833E-002	6.46110E-001	-4.28581E-002	-3.54017E-004	2.14973E-005	-3.28468E-003	-4.06716E-003	1.82938E-004	2.32939E-004	-3.82152E-003	2.53491E-004
	258	258	4.99799E-002	-5.81982E-003	0.00000E+000	-2.90874E-004	-5.67093E-002	3.54447E-002	2.85905E+001	11	...........	5.91164E-002	-3.69222E-003	5.55163E-001	6.87671E-001	-3.09318E-002	-3.94035E-002	6.45982E-001	-4.28067E-002	-3.44047E-004	2.14881E-005	-3.23095E-003	-4.00212E-003	1.80018E-004	2.29321E-004	-3.75950E-003	2.49127E-004
	259	259	4.99751E-002	-5.96671E-003	0.00000E+000	-2.98187E-004	-5.81733E-002	3.60973E-002	2.90819E+001	11	...........	6.01829E-002	-3.74444E-003	5.55262E-001	6.87596E-001	-3.09278E-002	-3.93794E-002	6.46132E-001	-4.27642E-002	-3.59094E-004	2.23420E-005	-3.31309E-003	-4.10269E-003	1.84537E-004	2.34966E-004	-3.85529E-003	2.55162E-004
	260	260	4.99815E-002	-5.71569E-003	0.00000E+000	-2.85678E-004	-5.56750E-002	3.59317E-002	2.81236E+001	11	...........	5.99092E-002	-3.75833E-003	5.55462E-001	6.87556E-001	-3.09283E-002	-3.93551E-002	6.46120E-001	-4.28158E-002	-3.42422E-004	2.14815E-005	-3.17485E-003	-3.92985E-003	1.76777E-004	2.24942E-004	-3.69302E-003	2.44722E-004
	261	261	4.99772E-002	-5.77730E-003	0.00000E+000	-2.88733E-004	-5.62860E-002	3.55266E-002	2.90097E+001	11	...........	5.92311E-002	-3.70167E-003	5.55361E-001	6.87714E-001	-3.09392E-002	-3.93490E-002	6.45852E-001	-4.27829E-002	-3.42196E-004	2.13856E-005	-3.20849E-003	-3.97313E-003	1.78745E-004	2.27331E-004	-3.73128E-003	2.47170E-004
	262	262	4.99796E-002	-5.75330E-003	0.00000E+000	-2.87548E-004	-5.60483E-002	3.62508E-002	2.85473E+001	11	...........	6.04251E-002	-3.58042E-003	5.55267E-001	6.87742E-001	-3.09265E-002	-3.93561E-002	6.46003E-001	-4.28294E-002	-3.47644E-004	2.05992E-005	-3.19462E-003	-3.95679E-003	1.77930E-004	2.26428E-004	-3.71665E-003	2.46411E-004
	263	263	4.99797E-002	-5.69848E-003	0.00000E+000	-2.84808E-004	-5.55010E-002	3.57245E-002	2.92141E+001	11	...........	5.95662E-002	-3.54139E-003	5.55129E-001	6.87746E-001	-3.09419E-002	-3.93519E-002	6.45929E-001	-4.26342E-002	-3.39437E-004	2.01805E-005	-3.16339E-003	-3.91911E-003	1.76322E-004	2.24246E-004	-3.68081E-003	2.42950E-004
	264	264	4.99791E-002	-5.74589E-003	0.00000E+000	-2.87175E-004	-5.59717E-002	3.59247E-002	2.83283E+001	11	...........	5.99025E-002	-3.56444E-003	5.55205E-001	6.87605E-001	-3.09351E-002	-3.93407E-002	6.46028E-001	-4.25418E-002	-3.44193E-004	2.04809E-005	-3.19015E-003	-3.95090E-003	1.77750E-004	2.26047E-004	-3.71201E-003	2.44441E-004
	265	265	4.99781E-002	-5.65516E-003	0.00000E+000	-2.82634E-004	-5.50720E-002	3.57840E-002	2.82337E+001	11	...........	5.96661E-002	-3.57292E-003	5.55238E-001	6.87466E-001	-3.09576E-002	-3.93239E-002	6.46133E-001	-4.25562E-002	-3.37422E-004	2.02054E-005	-3.13996E-003	-3.88773E-003	1.75070E-004	2.22383E-004	-3.65398E-003	2.40662E-004
	266	266	4.99812E-002	-5.68234E-003	0.00000E+000	-2.84010E-004	-5.53423E-002	3.59712E-002	2.84167E+001	11	...........	5.99799E-002	-3.47208E-003	5.55401E-001	6.87567E-001	-3.09533E-002	-3.93539E-002	6.46135E-001	-4.24722E-002	-3.40826E-004	1.97296E-005	-3.15598E-003	-3.90699E-003	1.75887E-004	2.23622E-004	-3.67156E-003	2.41342E-004
	267	267	4.99771E-002	-5.59953E-003	0.00000E+000	-2.79848E-004	-5.45170E-002	3.57496E-002	2.90231E+001	11	...........	5.96107E-002	-3.44542E-003	5.55490E-001	6.87662E-001	-3.09779E-002	-3.93662E-002	6.46002E-001	-4.23893E-002	-3.33792E-004	1.92927E-005	-3.11048E-003	-3.85059E-003	1.73462E-004	2.20433E-004	-3.61731E-003	2.37360E-004
	268	268	4.99792E-002	-5.45532E-003	0.00000E+000	-2.72653E-004	-5.30790E-002	3.59965E-002	2.77419E+001	11	...........	6.00165E-002	-3.52083E-003	5.55454E-001	6.87585E-001	-3.09861E-002	-3.93908E-002	6.46042E-001	-4.24956E-002	-3.27409E-004	1.92073E-005	-3.03018E-003	-3.75100E-003	1.69039E-004	2.14890E-004	-3.52437E-003	2.31827E-004
	269	269	4.99809E-002	-5.50926E-003	0.00000E+000	-2.75358E-004	-5.36163E-002	3.56610E-002	2.88610E+001	11	...........	5.94375E-002	-3.52931E-003	5.55391E-001	6.87569E-001	-3.09606E-002	-3.93933E-002	6.46243E-001	-4.23326E-002	-3.27457E-004	1.94439E-005	-3.05979E-003	-3.78800E-003	1.70570E-004	2.17028E-004	-3.56032E-003	2.33222E-004
	270	270	4.99770E-002	-5.45449E-003	0.00000E+000	-2.72599E-004	-5.30773E-002	3.59130E-002	2.83284E+001	11	...........	5.98678E-002	-3.51444E-003	5.55389E-001	6.87571E-001	-3.09508E-002	-3.93817E-002	6.46159E-001	-4.23292E-002	-3.26548E-004	1.91695E-005	-3.02936E-003	-3.75035E-003	1.68821E-004	2.14807E-004	-3.52447E-003	2.30884E-004
	271	271	4.99790E-002	-5.43859E-003	0.00000E+000	-2.71815E-004	-5.29163E-002	3.59337E-002	2.86133E+001	11	...........	5.99303E-002	-3.56069E-003	5.55523E-001	6.87550E-001	-3.09276E-002	-3.93918E-002	6.46009E-001	-4.23947E-002	-3.25936E-004	1.93652E-005	-3.02126E-003	-3.73931E-003	1.68203E-004	2.14236E-004	-3.51338E-003	2.30568E-004
	272	272	4.99794E-002	-5.44969E-003	0.00000E+000	-2.72373E-004	-5.30240E-002	3.60480E-002	2.89753E+001	11	...........	6.00815E-002	-3.55444E-003	5.55487E-001	6.87604E-001	-3.09429E-002	-3.93976E-002	6.46020E-001	-4.24215E-002	-3.27426E-004	1.93706E-005	-3.02723E-003	-3.74723E-003	1.68629E-004	2.14705E-004	-3.52061E-003	2.31184E-004
	273	273	4.99787E-002	-5.28645E-003	0.00000E+000	-2.64210E-004	-5.14083E-002	3.58009E-002	2.77494E+001	11	...........	5.96754E-002	-3.55167E-003	5.55434E-001	6.87470E-001	-3.09335E-002	-3.93617E-002	6.46155E-001	-4.24386E-002	-3.15471E-004	1.87757E-005	-2.93627E-003	-3.63427E-003	1.63528E-004	2.08084E-004	-3.41587E-003	2.24350E-004
	274	274	4.99780E-002	-5.35844E-003	0.00000E+000	-2.67804E-004	-5.21153E-002	3.57428E-002	2.85356E+001	11	...........	5.95878E-002	-3.48444E-003	5.55552E-001	6.87571E-001	-3.09079E-002	-3.93578E-002	6.46224E-001	-4.26918E-002	-3.19298E-004	1.86712E-005	-2.97689E-003	-3.68431E-003	1.65618E-004	2.10896E-004	-3.46275E-003	2.28761E-004
	275	275	4.99776E-002	-5.31047E-003	0.00000E+000	-2.65404E-004	-5.16460E-002	3.61467E-002	2.84252E+001	11	...........	6.02756E-002	-3.54472E-003	5.55619E-001	6.87692E-001	-3.08699E-002	-3.93789E-002	6.46152E-001	-4.26668E-002	-3.20091E-004	1.88241E-005	-2.95059E-003	-3.65196E-003	1.63933E-004	2.09120E-004	-3.43137E-003	2.26581E-004
	276	276	4.99801E-002	-5.26591E-003	0.00000E+000	-2.63191E-004	-5.12070E-002	3.59954E-002	2.88625E+001	11	...........	6.00169E-002	-3.54750E-003	5.55731E-001	6.87732E-001	-3.08681E-002	-3.93903E-002	6.46214E-001	-4.26135E-002	-3.16044E-004	1.86808E-005	-2.92642E-003	-3.62153E-003	1.62548E-004	2.07426E-004	-3.40290E-003	2.24399E-004
	277	276.395	4.99744E-002	-5.11788E-003	0.00000E+000	-2.55763E-004	-4.97451E-002	3.54631E-002	2.86209E+001	11	...........	5.91027E-002	-3.57384E-003	5.55829E-001	6.87761E-001	-3.08041E-002	-3.94044E-002	6.46110E-001	-4.24771E-002	-3.02481E-004	1.82905E-005	-2.84467E-003	-3.51988E-003	1.57652E-004	2.01667E-004	-3.30672E-003	2.17393E-004
STARTTIMEOFFSET	QUANT	393246.7	Start Time Offset (s)
