EXPLAIN
TAG	PWR800_DISCHARGE
TITLE	LABEL	PWR Discharge	Test Identifier
DATE	LABEL	10/15/2022	Date
TIME	LABEL	16:37:34	Time
NOTES	NOTES	1	Notes...
	
PSTAT	PSTAT	REF3000-21114	Potentiostat
CAPACITY	QUANT	5.30000E-002	Capacity (A-hr)
CELLTYPE	SELECTOR	1	Cell Type
WORKINGCONNECTION	SELECTOR	0	Working Connection
MAXDISCHARGETIME	VARIABLEANDUNITS	7.20000E+003	s	2.00000E+000	hour(s)	Max Discharge Time
DISCHARGEMODE	MULTIPARAM	0	1.00000E-001	Discharge Mode	Constant Current	Amp(s)
VOLTAGEFINISH	TWOPARAM	T	5.00000E-003	7.20000E+003	Voltage Finish	I (A) <	Max Time(s)
SAMPLETIME	QUANT	1.00000E+000	Sample Period (s)
DISCHARGESTOPAT1	MULTIPARAM	1	5.00000E-002	Stop At 1	|Voltage| < Limit	V
DISCHARGESTOPAT2	MULTIPARAM	0	0.00000E+000	Stop At 2	None	N/A
AESELECTOR	AESELECTOR	0x1	T	Set Limits	AE Channels
AESBHCSELECTOR	TOGGLE	F	Save Both Half Cells
IRCOMP	TOGGLE	F	IR Measure
EOC	QUANT	0.5590298	Open Circuit (V)
SEQUENCER	TOGGLE	TRUE	Run as Sequence
PSTATMODEL	IQUANT	5	Pstat Model
PSTATSECTION	LABEL	REF3000-21114	Pstat Section
PSTATSERIALNO	LABEL	21114	Pstat Serial Number
CTRLMODE	IQUANT	0	Control Mode
ELECTROMETER	IQUANT	0	RE=0 or CS=1
IESTAB	IQUANT	0	I/E Stability
CASPEED	IQUANT	4	Control Amp Speed
CONVENTION	IQUANT	1	Current Convention
ICHRANGE	IQUANT	2	Ich Range
ICHRANGEMODE	TOGGLE	T	Ich Auto Range
ICHOFFSETENABLE	TOGGLE	F	Ich Offset Enable
ICHOFFSET	QUANT	0	Ich Offset (V)
ICHFILTER	IQUANT	1	Ich Filter
VCHRANGE	IQUANT	3	Vch Range
VCHRANGEMODE	TOGGLE	T	Vch Auto Range
VCHOFFSETENABLE	TOGGLE	F	Vch Offset Enable
VCHOFFSET	QUANT	0	Vch Offset (V)
VCHFILTER	IQUANT	1	Vch Filter
ACHRANGE	IQUANT	2	Ach Range
ACHOFFSETENABLE	TOGGLE	F	Ach Offset Enable
ACHOFFSET	QUANT	0	Ach Offset (V)
ACHFILTER	IQUANT	1	Ach Filter
IERANGELOWERLIMIT	IQUANT	9	I/E Range Lower Limit
IERANGEMODE	TOGGLE	F	I/E AutoRange
IERANGE	IQUANT	9	I/E Range
POSFEEDENABLE	TOGGLE	F	Positive Feedback IR Comp
POSFEEDRESISTANCE	QUANT	0	Positive Feedback Resistance (ohm)
ACHSELECT	IQUANT	1	Ach Select
SENSECABLEID	IQUANT	13	Sense Cable ID
PWRCABLEID	IQUANT	13	Power Cable ID
DCCALDATE	LABEL		DC Calibration Date
ACCALDATE	LABEL		AC Calibration Date
THERMOSELECT	IQUANT	1	Thermo Select
FRAMEWORKVERSION	LABEL	7.8.6	Framework Version
INSTRUMENTVERSION	LABEL	4.50	Instrument Version
COMPLIANCEVOLTAGE	IQUANT	0	Compliance Voltage
CURVE	TABLE	170
	Pt	T	Vf	Im	Vu	Pwr	Sig	Ach	Temp	IERange	Over	Vf1	Vf2	Vf3	Vf4	Vf5	Vf6	Vf7	Vf8	Pwr1	Pwr2	Pwr3	Pwr4	Pwr5	Pwr6	Pwr7	Pwr8
	#	s	V	A	V	W	V	V	deg C	#	bits	V	V	V	V	V	V	V	V	W	W	W	W	W	W	W	W
	0	1	3.22286E-001	-1.00093E-001	0.00000E+000	-3.22587E-002	-9.94000E-001	3.59432E-002	3.05838E+001	11	...........	5.95103E-002	-3.69375E-003	5.65321E-001	6.63428E-001	-2.94324E-002	-3.85928E-002	6.38350E-001	-4.24931E-002	-5.95659E-003	3.69720E-004	-5.65849E-002	-6.64048E-002	2.94599E-003	3.86289E-003	-6.38947E-002	4.25328E-003
	1	2	2.30895E-001	-1.00094E-001	0.00000E+000	-2.31113E-002	-9.94000E-001	3.59934E-002	2.97314E+001	11	...........	5.95367E-002	-3.54417E-003	5.65339E-001	6.63342E-001	-2.95808E-002	-3.85879E-002	6.38417E-001	-4.25707E-002	-5.95929E-003	3.54751E-004	-5.65872E-002	-6.63969E-002	2.96087E-003	3.86243E-003	-6.39020E-002	4.26109E-003
	2	3	1.54754E-001	-1.00095E-001	0.00000E+000	-1.54900E-002	-9.94000E-001	3.58045E-002	2.84479E+001	11	...........	5.92690E-002	-3.31278E-003	5.65346E-001	6.63340E-001	-2.94762E-002	-3.85757E-002	6.38515E-001	-4.25875E-002	-5.93251E-003	3.31591E-004	-5.65881E-002	-6.63967E-002	2.95041E-003	3.86122E-003	-6.39119E-002	4.26278E-003
	3	4	8.87778E-002	-1.00095E-001	0.00000E+000	-8.88625E-003	-9.94000E-001	3.58404E-002	2.77980E+001	11	...........	5.93297E-002	-3.41597E-003	5.65458E-001	6.63405E-001	-2.94261E-002	-3.85731E-002	6.38410E-001	-4.25967E-002	-5.93863E-003	3.41923E-004	-5.65997E-002	-6.64037E-002	2.94542E-003	3.86098E-003	-6.39018E-002	4.26373E-003
	4	4.145	5.36042E-002	-1.00095E-001	0.00000E+000	-5.36554E-003	-9.94000E-001	3.55793E-002	2.77440E+001	11	...........	5.89971E-002	-3.46935E-003	5.65523E-001	6.63490E-001	-2.95067E-002	-3.85546E-002	6.38383E-001	-4.25872E-002	-5.90534E-003	3.47266E-004	-5.66062E-002	-6.64123E-002	2.95348E-003	3.85914E-003	-6.38992E-002	4.26278E-003
	5	5	4.95233E-002	-8.50776E-002	0.00000E+000	-4.21333E-003	-8.44708E-001	3.59770E-002	2.81501E+001	11	...........	5.96067E-002	-3.42446E-003	5.65530E-001	6.63477E-001	-2.94126E-002	-3.85988E-002	6.38466E-001	-4.25515E-002	-5.07120E-003	2.91345E-004	-4.81140E-002	-5.64471E-002	2.50235E-003	3.28389E-003	-5.43192E-002	3.62018E-003
	6	6	4.97399E-002	-6.48740E-002	0.00000E+000	-3.22682E-003	-6.43863E-001	3.60628E-002	2.92125E+001	11	...........	5.97526E-002	-3.38861E-003	5.65545E-001	6.63444E-001	-2.94546E-002	-3.85956E-002	6.38490E-001	-4.25832E-002	-3.87639E-003	2.19833E-004	-3.66892E-002	-4.30403E-002	1.91084E-003	2.50385E-003	-4.14214E-002	2.76254E-003
	7	7	4.98319E-002	-5.35548E-002	0.00000E+000	-2.66874E-003	-5.31324E-001	3.61839E-002	3.00706E+001	11	...........	5.99837E-002	-3.46986E-003	5.65701E-001	6.63410E-001	-2.95525E-002	-3.85737E-002	6.38429E-001	-4.25661E-002	-3.21242E-003	1.85828E-004	-3.02960E-002	-3.55288E-002	1.58268E-003	2.06581E-003	-3.41909E-002	2.27962E-003
	8	8	4.98689E-002	-4.65495E-002	0.00000E+000	-2.32137E-003	-4.61687E-001	3.62216E-002	3.03515E+001	11	...........	6.00793E-002	-3.69694E-003	5.65653E-001	6.63462E-001	-2.94246E-002	-3.85556E-002	6.38406E-001	-4.26004E-002	-2.79666E-003	1.72091E-004	-2.63309E-002	-3.08839E-002	1.36970E-003	1.79474E-003	-2.97175E-002	1.98303E-003
	9	9	4.98971E-002	-4.19720E-002	0.00000E+000	-2.09428E-003	-4.16172E-001	3.62806E-002	3.07520E+001	11	...........	6.02299E-002	-3.75472E-003	5.65634E-001	6.63491E-001	-2.94372E-002	-3.85706E-002	6.38316E-001	-4.26068E-002	-2.52797E-003	1.57593E-004	-2.37408E-002	-2.78480E-002	1.23554E-003	1.61888E-003	-2.67914E-002	1.78829E-003
	10	10	4.99119E-002	-3.87418E-002	0.00000E+000	-1.93368E-003	-3.84070E-001	3.63237E-002	3.07553E+001	11	...........	6.03067E-002	-3.70139E-003	5.65615E-001	6.63400E-001	-2.94472E-002	-3.85937E-002	6.38362E-001	-4.26501E-002	-2.33639E-003	1.43399E-004	-2.19130E-002	-2.57013E-002	1.14084E-003	1.49519E-003	-2.47313E-002	1.65234E-003
	11	11	4.99188E-002	-3.66834E-002	0.00000E+000	-1.83119E-003	-3.63600E-001	3.64185E-002	3.11805E+001	11	...........	6.05274E-002	-3.79403E-003	5.65627E-001	6.63400E-001	-2.95425E-002	-3.86014E-002	6.38291E-001	-4.26429E-002	-2.22035E-003	1.39178E-004	-2.07491E-002	-2.43357E-002	1.08372E-003	1.41603E-003	-2.34146E-002	1.56429E-003
	12	12	4.99225E-002	-3.49710E-002	0.00000E+000	-1.74584E-003	-3.46570E-001	3.64082E-002	3.13314E+001	11	...........	6.04468E-002	-3.68931E-003	5.65608E-001	6.63452E-001	-2.96333E-002	-3.85824E-002	6.38387E-001	-4.25689E-002	-2.11388E-003	1.29019E-004	-1.97798E-002	-2.32016E-002	1.03631E-003	1.34926E-003	-2.23250E-002	1.48868E-003
	13	13	4.99232E-002	-3.36163E-002	0.00000E+000	-1.67823E-003	-3.33099E-001	3.65276E-002	3.16633E+001	11	...........	6.07143E-002	-3.75569E-003	5.65580E-001	6.63458E-001	-2.95671E-002	-3.85528E-002	6.38411E-001	-4.26393E-002	-2.04099E-003	1.26252E-004	-1.90127E-002	-2.23030E-002	9.93935E-004	1.29600E-003	-2.14610E-002	1.43337E-003
	14	14	4.99294E-002	-3.23146E-002	0.00000E+000	-1.61345E-003	-3.20150E-001	3.65439E-002	3.10047E+001	11	...........	6.07835E-002	-3.55528E-003	5.65525E-001	6.63410E-001	-2.95096E-002	-3.85506E-002	6.38378E-001	-4.26365E-002	-1.96419E-003	1.14887E-004	-1.82747E-002	-2.14378E-002	9.53589E-004	1.24574E-003	-2.06289E-002	1.37778E-003
	15	15	4.99379E-002	-3.13753E-002	0.00000E+000	-1.56682E-003	-3.10814E-001	3.64734E-002	3.15637E+001	11	...........	6.06446E-002	-3.56903E-003	5.65481E-001	6.63345E-001	-2.94947E-002	-3.85618E-002	6.38370E-001	-4.26268E-002	-1.90274E-003	1.11979E-004	-1.77421E-002	-2.08127E-002	9.25406E-004	1.20989E-003	-2.00290E-002	1.33743E-003
	16	16	4.99264E-002	-3.09232E-002	0.00000E+000	-1.54388E-003	-3.06330E-001	3.66652E-002	3.18067E+001	11	...........	6.09569E-002	-3.52278E-003	5.65468E-001	6.63275E-001	-2.94818E-002	-3.85869E-002	6.38400E-001	-4.25496E-002	-1.88498E-003	1.08935E-004	-1.74861E-002	-2.05106E-002	9.11671E-004	1.19323E-003	-1.97414E-002	1.31577E-003
	17	17	4.99291E-002	-2.99759E-002	0.00000E+000	-1.49667E-003	-2.96916E-001	3.66426E-002	3.18152E+001	11	...........	6.08861E-002	-3.64444E-003	5.65483E-001	6.63423E-001	-2.95178E-002	-3.85771E-002	6.38369E-001	-4.26003E-002	-1.82511E-003	1.09245E-004	-1.69509E-002	-1.98867E-002	8.84821E-004	1.15638E-003	-1.91357E-002	1.27698E-003
	18	18	4.99317E-002	-2.88816E-002	0.00000E+000	-1.44211E-003	-2.86046E-001	3.66336E-002	3.10434E+001	11	...........	6.09014E-002	-3.80764E-003	5.65455E-001	6.63500E-001	-2.96260E-002	-3.85806E-002	6.38347E-001	-4.24853E-002	-1.75893E-003	1.09971E-004	-1.63313E-002	-1.91630E-002	8.55646E-004	1.11427E-003	-1.84365E-002	1.22704E-003
	19	19	4.99482E-002	-2.83700E-002	0.00000E+000	-1.41703E-003	-2.80964E-001	3.65929E-002	3.15306E+001	11	...........	6.08462E-002	-3.59597E-003	5.65408E-001	6.63368E-001	-2.96942E-002	-3.85899E-002	6.38405E-001	-4.24207E-002	-1.72621E-003	1.02018E-004	-1.60407E-002	-1.88198E-002	8.42424E-004	1.09480E-003	-1.81116E-002	1.20348E-003
	20	20	4.99323E-002	-2.83135E-002	0.00000E+000	-1.41376E-003	-2.80388E-001	3.66575E-002	3.16051E+001	11	...........	6.10208E-002	-3.49486E-003	5.65528E-001	6.63310E-001	-2.97093E-002	-3.85697E-002	6.38582E-001	-4.25215E-002	-1.72771E-003	9.89516E-005	-1.60120E-002	-1.87806E-002	8.41173E-004	1.09204E-003	-1.80805E-002	1.20393E-003
	21	21	4.99464E-002	-2.78356E-002	0.00000E+000	-1.39029E-003	-2.75632E-001	3.66142E-002	3.20385E+001	11	...........	6.10662E-002	-3.71736E-003	5.65592E-001	6.63310E-001	-2.96701E-002	-3.85642E-002	6.38679E-001	-4.25971E-002	-1.69982E-003	1.03475E-004	-1.57436E-002	-1.84636E-002	8.25886E-004	1.07346E-003	-1.77780E-002	1.18572E-003
	22	22	4.99397E-002	-2.72695E-002	0.00000E+000	-1.36183E-003	-2.69985E-001	3.66839E-002	3.18094E+001	11	...........	6.11043E-002	-3.82958E-003	5.65660E-001	6.63251E-001	-2.95822E-002	-3.85519E-002	6.38639E-001	-4.26051E-002	-1.66628E-003	1.04431E-004	-1.54253E-002	-1.80865E-002	8.06693E-004	1.05129E-003	-1.74154E-002	1.16182E-003
	23	23	4.99353E-002	-2.67954E-002	0.00000E+000	-1.33804E-003	-2.65295E-001	3.65835E-002	3.18618E+001	11	...........	6.10000E-002	-3.75403E-003	5.65601E-001	6.63218E-001	-2.95253E-002	-3.85546E-002	6.38532E-001	-4.25637E-002	-1.63452E-003	1.00591E-004	-1.51555E-002	-1.77712E-002	7.91143E-004	1.03309E-003	-1.71097E-002	1.14051E-003
	24	24	4.99414E-002	-2.66384E-002	0.00000E+000	-1.33036E-003	-2.63734E-001	3.67491E-002	3.22274E+001	11	...........	6.11957E-002	-3.61000E-003	5.65724E-001	6.63253E-001	-2.95301E-002	-3.85712E-002	6.38627E-001	-4.25849E-002	-1.63016E-003	9.61647E-005	-1.50700E-002	-1.76680E-002	7.86636E-004	1.02748E-003	-1.70120E-002	1.13439E-003
	25	25	4.99339E-002	-2.60134E-002	0.00000E+000	-1.29895E-003	-2.57520E-001	3.66508E-002	3.19165E+001	11	...........	6.10793E-002	-3.66806E-003	5.65787E-001	6.63369E-001	-2.95364E-002	-3.85829E-002	6.38638E-001	-4.25889E-002	-1.58888E-003	9.54187E-005	-1.47181E-002	-1.72565E-002	7.68343E-004	1.00367E-003	-1.66132E-002	1.10788E-003
	26	26	4.99317E-002	-2.56667E-002	0.00000E+000	-1.28158E-003	-2.54074E-001	3.67647E-002	3.21915E+001	11	...........	6.12121E-002	-3.80583E-003	5.65832E-001	6.63493E-001	-2.95456E-002	-3.85856E-002	6.38653E-001	-4.26128E-002	-1.57111E-003	9.76832E-005	-1.45230E-002	-1.70297E-002	7.58337E-004	9.90364E-004	-1.63921E-002	1.09373E-003
	27	27	4.99417E-002	-2.51822E-002	0.00000E+000	-1.25764E-003	-2.49243E-001	3.67008E-002	3.17916E+001	11	...........	6.11608E-002	-3.74125E-003	5.65849E-001	6.63576E-001	-2.95951E-002	-3.86107E-002	6.38586E-001	-4.25772E-002	-1.54016E-003	9.42128E-005	-1.42493E-002	-1.67103E-002	7.45270E-004	9.72301E-004	-1.60810E-002	1.07219E-003
	28	28	4.99466E-002	-2.48517E-002	0.00000E+000	-1.24126E-003	-2.45948E-001	3.66950E-002	3.19752E+001	11	...........	6.11397E-002	-3.75000E-003	5.65932E-001	6.63621E-001	-2.96310E-002	-3.86217E-002	6.38594E-001	-4.25408E-002	-1.51942E-003	9.31937E-005	-1.40644E-002	-1.64921E-002	7.36379E-004	9.59813E-004	-1.58701E-002	1.05721E-003
	29	29	4.99381E-002	-2.47277E-002	0.00000E+000	-1.23486E-003	-2.44718E-001	3.67451E-002	3.25417E+001	11	...........	6.11900E-002	-3.60250E-003	5.66091E-001	6.63507E-001	-2.96482E-002	-3.86396E-002	6.38515E-001	-4.25604E-002	-1.51309E-003	8.90817E-005	-1.39981E-002	-1.64070E-002	7.33133E-004	9.55469E-004	-1.57890E-002	1.05242E-003
	30	30	4.99320E-002	-2.43021E-002	0.00000E+000	-1.21345E-003	-2.40501E-001	3.67746E-002	3.24469E+001	11	...........	6.12583E-002	-3.51972E-003	5.66271E-001	6.63429E-001	-2.96728E-002	-3.86231E-002	6.38540E-001	-4.25929E-002	-1.48871E-003	8.55367E-005	-1.37616E-002	-1.61227E-002	7.21111E-004	9.38621E-004	-1.55179E-002	1.03510E-003
	31	31	4.99412E-002	-2.36802E-002	0.00000E+000	-1.18262E-003	-2.34308E-001	3.67724E-002	3.19903E+001	11	...........	6.12467E-002	-3.60139E-003	5.66348E-001	6.63463E-001	-2.96526E-002	-3.86464E-002	6.38391E-001	-4.25050E-002	-1.45033E-003	8.52816E-005	-1.34112E-002	-1.57109E-002	7.02180E-004	9.15154E-004	-1.51172E-002	1.00653E-003
	32	32	4.99444E-002	-2.35123E-002	0.00000E+000	-1.17431E-003	-2.32642E-001	3.67562E-002	3.21167E+001	11	...........	6.12303E-002	-3.45306E-003	5.66346E-001	6.63469E-001	-2.96272E-002	-3.86282E-002	6.38343E-001	-4.25578E-002	-1.43966E-003	8.11892E-005	-1.33161E-002	-1.55997E-002	6.96604E-004	9.08237E-004	-1.50089E-002	1.00063E-003
	33	33	4.99394E-002	-2.32377E-002	0.00000E+000	-1.16048E-003	-2.29924E-001	3.67717E-002	3.26454E+001	11	...........	6.12564E-002	-3.54472E-003	5.66299E-001	6.63398E-001	-2.96601E-002	-3.86178E-002	6.38421E-001	-4.24612E-002	-1.42346E-003	8.23713E-005	-1.31595E-002	-1.54159E-002	6.89234E-004	8.97389E-004	-1.48355E-002	9.86703E-004
	34	34	4.99409E-002	-2.30164E-002	0.00000E+000	-1.14946E-003	-2.27725E-001	3.68317E-002	3.27734E+001	11	...........	6.13460E-002	-3.58833E-003	5.66330E-001	6.63354E-001	-2.96394E-002	-3.86406E-002	6.38363E-001	-4.25046E-002	-1.41196E-003	8.25906E-005	-1.30349E-002	-1.52680E-002	6.82194E-004	8.89367E-004	-1.46928E-002	9.78303E-004
	35	35	4.99354E-002	-2.26406E-002	0.00000E+000	-1.13057E-003	-2.23973E-001	3.68027E-002	3.27849E+001	11	...........	6.12972E-002	-3.58333E-003	5.66266E-001	6.63540E-001	-2.95679E-002	-3.86304E-002	6.38378E-001	-4.25925E-002	-1.38781E-003	8.11290E-005	-1.28206E-002	-1.50230E-002	6.69437E-004	8.74617E-004	-1.44533E-002	9.64322E-004
	36	36	4.99371E-002	-2.23350E-002	0.00000E+000	-1.11535E-003	-2.20936E-001	3.68154E-002	3.24045E+001	11	...........	6.13392E-002	-3.76486E-003	5.66298E-001	6.63338E-001	-2.95600E-002	-3.86381E-002	6.38288E-001	-4.25010E-002	-1.37001E-003	8.40884E-005	-1.26483E-002	-1.48157E-002	6.60224E-004	8.62983E-004	-1.42562E-002	9.49261E-004
	37	37	4.99455E-002	-2.20722E-002	0.00000E+000	-1.10241E-003	-2.18302E-001	3.68767E-002	3.26566E+001	11	...........	6.14324E-002	-3.82819E-003	5.66355E-001	6.63245E-001	-2.95217E-002	-3.86490E-002	6.38349E-001	-4.25732E-002	-1.35595E-003	8.44968E-005	-1.25007E-002	-1.46393E-002	6.51609E-004	8.53070E-004	-1.40898E-002	9.39685E-004
	38	38	4.99394E-002	-2.17962E-002	0.00000E+000	-1.08849E-003	-2.15580E-001	3.67881E-002	3.28456E+001	11	...........	6.12551E-002	-3.78681E-003	5.66294E-001	6.63132E-001	-2.95057E-002	-3.86387E-002	6.38443E-001	-4.26176E-002	-1.33513E-003	8.25379E-005	-1.23430E-002	-1.44537E-002	6.43111E-004	8.42177E-004	-1.39156E-002	9.28901E-004
	39	39	4.99397E-002	-2.15024E-002	0.00000E+000	-1.07382E-003	-2.12660E-001	3.68890E-002	3.24454E+001	11	...........	6.14547E-002	-3.76597E-003	5.66281E-001	6.63085E-001	-2.95131E-002	-3.86482E-002	6.38472E-001	-4.26129E-002	-1.32142E-003	8.09774E-005	-1.21764E-002	-1.42579E-002	6.34601E-004	8.31028E-004	-1.37287E-002	9.16279E-004
	40	40	4.99382E-002	-2.11499E-002	0.00000E+000	-1.05619E-003	-2.09150E-001	3.68412E-002	3.24196E+001	11	...........	6.13889E-002	-3.71750E-003	5.66178E-001	6.63060E-001	-2.94967E-002	-3.86378E-002	6.38512E-001	-4.26474E-002	-1.29837E-003	7.86247E-005	-1.19746E-002	-1.40236E-002	6.23851E-004	8.17184E-004	-1.35045E-002	9.01986E-004
	41	41	4.99436E-002	-2.10296E-002	0.00000E+000	-1.05029E-003	-2.07952E-001	3.68967E-002	3.30180E+001	11	...........	6.14965E-002	-3.73097E-003	5.66251E-001	6.63042E-001	-2.94922E-002	-3.86162E-002	6.38369E-001	-4.26471E-002	-1.29324E-003	7.84607E-005	-1.19080E-002	-1.39435E-002	6.20208E-004	8.12082E-004	-1.34246E-002	8.96849E-004
	42	42	4.99378E-002	-2.05973E-002	0.00000E+000	-1.02858E-003	-2.03666E-001	3.68302E-002	3.30968E+001	11	...........	6.13476E-002	-3.77694E-003	5.66139E-001	6.63050E-001	-2.94986E-002	-3.86135E-002	6.38331E-001	-4.26422E-002	-1.26360E-003	7.77949E-005	-1.16609E-002	-1.36570E-002	6.07592E-004	7.95333E-004	-1.31479E-002	8.78315E-004
	43	43	4.99418E-002	-2.02927E-002	0.00000E+000	-1.01346E-003	-2.00641E-001	3.68804E-002	3.24042E+001	11	...........	6.14493E-002	-3.65347E-003	5.66260E-001	6.62918E-001	-2.94953E-002	-3.86031E-002	6.38463E-001	-4.25782E-002	-1.24697E-003	7.41390E-005	-1.14910E-002	-1.34524E-002	5.98540E-004	7.83362E-004	-1.29562E-002	8.64028E-004
	44	44	4.99389E-002	-2.00640E-002	0.00000E+000	-1.00198E-003	-1.98358E-001	3.68807E-002	3.27425E+001	11	...........	6.14478E-002	-3.25264E-003	5.66256E-001	6.62914E-001	-2.95281E-002	-3.86153E-002	6.38530E-001	-4.25392E-002	-1.23289E-003	6.52611E-005	-1.13614E-002	-1.33007E-002	5.92452E-004	7.74778E-004	-1.28115E-002	8.53507E-004
	45	45	4.99430E-002	-1.98870E-002	0.00000E+000	-9.93219E-004	-1.96589E-001	3.69097E-002	3.34898E+001	11	...........	6.14824E-002	-3.46681E-003	5.66225E-001	6.62924E-001	-2.96069E-002	-3.86358E-002	6.38399E-001	-4.25653E-002	-1.22270E-003	6.89445E-005	-1.12605E-002	-1.31836E-002	5.88794E-004	7.68352E-004	-1.26959E-002	8.46497E-004
	46	46	4.99375E-002	-1.95578E-002	0.00000E+000	-9.76669E-004	-1.93321E-001	3.68436E-002	3.29863E+001	11	...........	6.13793E-002	-3.62000E-003	5.66252E-001	6.62772E-001	-2.95967E-002	-3.86249E-002	6.38406E-001	-4.25629E-002	-1.20044E-003	7.07993E-005	-1.10747E-002	-1.29624E-002	5.78846E-004	7.55418E-004	-1.24858E-002	8.32437E-004
	47	47	4.99387E-002	-1.92686E-002	0.00000E+000	-9.62252E-004	-1.90438E-001	3.69916E-002	3.24274E+001	11	...........	6.16537E-002	-3.82611E-003	5.66467E-001	6.62702E-001	-2.96765E-002	-3.86233E-002	6.38382E-001	-4.26008E-002	-1.18798E-003	7.37240E-005	-1.09150E-002	-1.27694E-002	5.71827E-004	7.44219E-004	-1.23008E-002	8.20860E-004
	48	48	4.99439E-002	-1.90371E-002	0.00000E+000	-9.50788E-004	-1.88154E-001	3.69479E-002	3.28174E+001	11	...........	6.15881E-002	-3.89792E-003	5.66474E-001	6.62760E-001	-2.96744E-002	-3.86497E-002	6.38502E-001	-4.26129E-002	-1.17246E-003	7.42050E-005	-1.07840E-002	-1.26170E-002	5.64915E-004	7.35779E-004	-1.21552E-002	8.11226E-004
	49	49	4.99402E-002	-1.87934E-002	0.00000E+000	-9.38546E-004	-1.85725E-001	3.69122E-002	3.35677E+001	11	...........	6.15156E-002	-3.90111E-003	5.66451E-001	6.62794E-001	-2.96989E-002	-3.86674E-002	6.38490E-001	-4.26250E-002	-1.15609E-003	7.33152E-005	-1.06456E-002	-1.24562E-002	5.58143E-004	7.26692E-004	-1.19994E-002	8.01069E-004
	50	50	4.99356E-002	-1.86824E-002	0.00000E+000	-9.32916E-004	-1.84619E-001	3.69438E-002	3.30551E+001	11	...........	6.15842E-002	-3.84417E-003	5.66456E-001	6.62709E-001	-2.96940E-002	-3.86768E-002	6.38527E-001	-4.25739E-002	-1.15054E-003	7.18182E-005	-1.05828E-002	-1.23810E-002	5.54755E-004	7.22575E-004	-1.19292E-002	7.95381E-004
	51	51	4.99439E-002	-1.82760E-002	0.00000E+000	-9.12774E-004	-1.80568E-001	3.69673E-002	3.27037E+001	11	...........	6.16307E-002	-3.84944E-003	5.66333E-001	6.62637E-001	-2.96997E-002	-3.86915E-002	6.38490E-001	-4.25682E-002	-1.12636E-003	7.03525E-005	-1.03503E-002	-1.21103E-002	5.42792E-004	7.07126E-004	-1.16691E-002	7.77976E-004
	52	52	4.99385E-002	-1.78995E-002	0.00000E+000	-8.93874E-004	-1.76843E-001	3.68633E-002	3.25506E+001	11	...........	6.14051E-002	-3.82792E-003	5.66273E-001	6.62638E-001	-2.96760E-002	-3.86987E-002	6.38293E-001	-4.26167E-002	-1.09912E-003	6.85177E-005	-1.01360E-002	-1.18609E-002	5.31185E-004	6.92688E-004	-1.14251E-002	7.62816E-004
	53	53	4.99455E-002	-1.79110E-002	0.00000E+000	-8.94575E-004	-1.76960E-001	3.69966E-002	3.29418E+001	11	...........	6.16671E-002	-3.82139E-003	5.66382E-001	6.62583E-001	-2.96643E-002	-3.86982E-002	6.38331E-001	-4.25729E-002	-1.10452E-003	6.84450E-005	-1.01445E-002	-1.18675E-002	5.31318E-004	6.93124E-004	-1.14332E-002	7.62524E-004
	54	54	4.99379E-002	-1.77197E-002	0.00000E+000	-8.84884E-004	-1.75052E-001	3.69597E-002	3.32851E+001	11	...........	6.15822E-002	-3.80097E-003	5.66347E-001	6.62638E-001	-2.96614E-002	-3.87126E-002	6.38382E-001	-4.25560E-002	-1.09122E-003	6.73521E-005	-1.00355E-002	-1.17418E-002	5.25591E-004	6.85976E-004	-1.13119E-002	7.54079E-004
	55	55	4.99404E-002	-1.74513E-002	0.00000E+000	-8.71523E-004	-1.72365E-001	3.70681E-002	3.31977E+001	11	...........	6.17886E-002	-3.84361E-003	5.66422E-001	6.62711E-001	-2.96267E-002	-3.87079E-002	6.38315E-001	-4.25414E-002	-1.07829E-003	6.70759E-005	-9.88479E-003	-1.15651E-002	5.17023E-004	6.75502E-004	-1.11394E-002	7.42401E-004
	56	56	4.99415E-002	-1.71658E-002	0.00000E+000	-8.57287E-004	-1.69525E-001	3.69220E-002	3.26848E+001	11	...........	6.15397E-002	-3.77181E-003	5.66279E-001	6.62769E-001	-2.95728E-002	-3.87101E-002	6.38261E-001	-4.25399E-002	-1.05638E-003	6.47461E-005	-9.72064E-003	-1.13770E-002	5.07641E-004	6.64491E-004	-1.09563E-002	7.30231E-004
	57	57	4.99412E-002	-1.69702E-002	0.00000E+000	-8.47513E-004	-1.67562E-001	3.70418E-002	3.31799E+001	11	...........	6.17353E-002	-3.76861E-003	5.66232E-001	6.62840E-001	-2.95861E-002	-3.87028E-002	6.38171E-001	-4.26222E-002	-1.04766E-003	6.39542E-005	-9.60908E-003	-1.12485E-002	5.02083E-004	6.56795E-004	-1.08299E-002	7.23309E-004
	58	58	4.99406E-002	-1.68132E-002	0.00000E+000	-8.39660E-004	-1.66013E-001	3.69835E-002	3.32849E+001	11	...........	6.16553E-002	-3.80347E-003	5.66183E-001	6.62785E-001	-2.95675E-002	-3.86972E-002	6.38196E-001	-4.26442E-002	-1.03662E-003	6.39485E-005	-9.51933E-003	-1.11435E-002	4.97124E-004	6.50624E-004	-1.07301E-002	7.16984E-004
	59	59	4.99441E-002	-1.65747E-002	0.00000E+000	-8.27809E-004	-1.63666E-001	3.71216E-002	3.30847E+001	11	...........	6.18926E-002	-3.78792E-003	5.65938E-001	6.62817E-001	-2.95251E-002	-3.86926E-002	6.38249E-001	-4.25462E-002	-1.02585E-003	6.27837E-005	-9.38026E-003	-1.09860E-002	4.89371E-004	6.41320E-004	-1.05788E-002	7.05192E-004
	60	60	4.99383E-002	-1.62276E-002	0.00000E+000	-8.10377E-004	-1.60213E-001	3.69440E-002	3.30847E+001	11	...........	6.15654E-002	-3.61986E-003	5.65914E-001	6.62824E-001	-2.95239E-002	-3.86401E-002	6.38464E-001	-4.25837E-002	-9.99058E-004	5.87416E-005	-9.18342E-003	-1.07560E-002	4.79101E-004	6.27036E-004	-1.03607E-002	6.91031E-004
	61	61	4.99355E-002	-1.62392E-002	0.00000E+000	-8.10915E-004	-1.60327E-001	3.71320E-002	3.30464E+001	11	...........	6.19149E-002	-3.72681E-003	5.66068E-001	6.62907E-001	-2.95022E-002	-3.86196E-002	6.38515E-001	-4.26151E-002	-1.00545E-003	6.05205E-005	-9.19251E-003	-1.07651E-002	4.79094E-004	6.27153E-004	-1.03690E-002	6.92038E-004
	62	62	4.99466E-002	-1.59915E-002	0.00000E+000	-7.98721E-004	-1.57864E-001	3.70847E-002	3.33402E+001	11	...........	6.18247E-002	-3.65083E-003	5.66122E-001	6.63081E-001	-2.94987E-002	-3.86137E-002	6.38428E-001	-4.25871E-002	-9.88671E-004	5.83824E-005	-9.05316E-003	-1.06037E-002	4.71730E-004	6.17493E-004	-1.02094E-002	6.81032E-004
	63	63	4.99428E-002	-1.58176E-002	0.00000E+000	-7.89978E-004	-1.56132E-001	3.69722E-002	3.33910E+001	11	...........	6.16182E-002	-3.53486E-003	5.65879E-001	6.62980E-001	-2.95194E-002	-3.86099E-002	6.38415E-001	-4.25708E-002	-9.74655E-004	5.59132E-005	-8.95088E-003	-1.04868E-002	4.66928E-004	6.10717E-004	-1.00982E-002	6.73371E-004
	64	64	4.99366E-002	-1.56876E-002	0.00000E+000	-7.83386E-004	-1.54832E-001	3.71722E-002	3.31553E+001	11	...........	6.19528E-002	-3.76153E-003	5.65897E-001	6.62969E-001	-2.96340E-002	-3.86136E-002	6.38410E-001	-4.26192E-002	-9.71891E-004	5.90094E-005	-8.87756E-003	-1.04004E-002	4.64887E-004	6.05755E-004	-1.00151E-002	6.68593E-004
	65	65	4.99429E-002	-1.54090E-002	0.00000E+000	-7.69570E-004	-1.52067E-001	3.71221E-002	3.35363E+001	11	...........	6.19054E-002	-3.56000E-003	5.65854E-001	6.62975E-001	-2.96667E-002	-3.86422E-002	6.38446E-001	-4.26426E-002	-9.53900E-004	5.48560E-005	-8.71924E-003	-1.02158E-002	4.57134E-004	5.95438E-004	-9.83781E-003	6.57080E-004
	66	66	4.99417E-002	-1.51261E-002	0.00000E+000	-7.55422E-004	-1.49254E-001	3.69730E-002	3.28630E+001	11	...........	6.16317E-002	-3.65139E-003	5.65824E-001	6.62893E-001	-2.96239E-002	-3.86656E-002	6.38315E-001	-4.26394E-002	-9.32245E-004	5.52312E-005	-8.55869E-003	-1.00270E-002	4.48093E-004	5.84858E-004	-9.65520E-003	6.44967E-004
	67	67	4.99443E-002	-1.50930E-002	0.00000E+000	-7.53809E-004	-1.48922E-001	3.71557E-002	3.31876E+001	11	...........	6.19304E-002	-3.78722E-003	5.65901E-001	6.62810E-001	-2.95269E-002	-3.86664E-002	6.38210E-001	-4.26354E-002	-9.34716E-004	5.71605E-005	-8.54115E-003	-1.00038E-002	4.45650E-004	5.83592E-004	-9.63250E-003	6.43496E-004
	68	68	4.99398E-002	-1.48710E-002	0.00000E+000	-7.42653E-004	-1.46703E-001	3.71221E-002	3.38488E+001	11	...........	6.18947E-002	-3.84875E-003	5.66095E-001	6.62697E-001	-2.94974E-002	-3.86229E-002	6.38280E-001	-4.25811E-002	-9.20435E-004	5.72347E-005	-8.41839E-003	-9.85496E-003	4.38655E-004	5.74361E-004	-9.49185E-003	6.33223E-004
	69	69	4.99407E-002	-1.45673E-002	0.00000E+000	-7.27501E-004	-1.43674E-001	3.70905E-002	3.29890E+001	11	...........	6.18299E-002	-3.88764E-003	5.66237E-001	6.62503E-001	-2.95001E-002	-3.85975E-002	6.38275E-001	-4.25875E-002	-9.00694E-004	5.66324E-005	-8.24854E-003	-9.65088E-003	4.29738E-004	5.62262E-004	-9.29795E-003	6.20385E-004
	70	70	4.99436E-002	-1.44729E-002	0.00000E+000	-7.22831E-004	-1.42739E-001	3.71257E-002	3.32572E+001	11	...........	6.18768E-002	-3.77792E-003	5.66079E-001	6.62444E-001	-2.95192E-002	-3.85768E-002	6.38250E-001	-4.25629E-002	-8.95539E-004	5.46775E-005	-8.19283E-003	-9.58751E-003	4.27229E-004	5.58320E-004	-9.23736E-003	6.16010E-004
	71	71	4.99414E-002	-1.44363E-002	0.00000E+000	-7.20969E-004	-1.42369E-001	3.72017E-002	3.40663E+001	11	...........	6.20249E-002	-3.80889E-003	5.66178E-001	6.62334E-001	-2.96528E-002	-3.86197E-002	6.38292E-001	-4.26297E-002	-8.95410E-004	5.49863E-005	-8.17352E-003	-9.56166E-003	4.28076E-004	5.57526E-004	-9.21457E-003	6.15416E-004
	72	72	4.99373E-002	-1.41334E-002	0.00000E+000	-7.05784E-004	-1.39376E-001	3.70776E-002	3.32459E+001	11	...........	6.18168E-002	-3.78694E-003	5.65996E-001	6.62273E-001	-2.96979E-002	-3.86274E-002	6.38222E-001	-4.25987E-002	-8.73683E-004	5.35225E-005	-7.99946E-003	-9.36019E-003	4.19733E-004	5.45937E-004	-9.02025E-003	6.02066E-004
	73	73	4.99384E-002	-1.38336E-002	0.00000E+000	-6.90828E-004	-1.36403E-001	3.71729E-002	3.23147E+001	11	...........	6.19668E-002	-3.83611E-003	5.65959E-001	6.62144E-001	-2.96826E-002	-3.86512E-002	6.38203E-001	-4.25761E-002	-8.57224E-004	5.30672E-005	-7.82925E-003	-9.15984E-003	4.10618E-004	5.34686E-004	-8.82865E-003	5.88981E-004
	74	74	4.99488E-002	-1.37840E-002	0.00000E+000	-6.88495E-004	-1.35906E-001	3.72181E-002	3.34194E+001	11	...........	6.20440E-002	-3.82889E-003	5.65967E-001	6.62090E-001	-2.96001E-002	-3.86557E-002	6.38269E-001	-4.25682E-002	-8.55215E-004	5.27774E-005	-7.80129E-003	-9.12625E-003	4.08009E-004	5.32830E-004	-8.79791E-003	5.86760E-004
	75	75	4.99412E-002	-1.36946E-002	0.00000E+000	-6.83926E-004	-1.35015E-001	3.68604E-002	3.34710E+001	11	...........	6.19025E-002	-3.64792E-003	5.65953E-001	6.62051E-001	-2.95275E-002	-3.86590E-002	6.38511E-001	-4.25533E-002	-8.47731E-004	4.99568E-005	-7.75051E-003	-9.06654E-003	4.04368E-004	5.29420E-004	-8.74416E-003	5.82752E-004
	76	76	4.99404E-002	-1.34715E-002	0.00000E+000	-6.72775E-004	-1.32803E-001	3.71934E-002	3.34653E+001	11	...........	6.20000E-002	-3.22000E-003	5.65972E-001	6.61841E-001	-2.94737E-002	-3.86469E-002	6.38598E-001	-4.25692E-002	-8.35235E-004	4.33784E-005	-7.62451E-003	-8.91602E-003	3.97057E-004	5.20634E-004	-8.60291E-003	5.73472E-004
	77	77	4.99415E-002	-1.33137E-002	0.00000E+000	-6.64906E-004	-1.31229E-001	3.71597E-002	3.34010E+001	11	...........	6.19706E-002	-3.26806E-003	5.66020E-001	6.61971E-001	-2.94818E-002	-3.86331E-002	6.38571E-001	-4.25412E-002	-8.25057E-004	4.35099E-005	-7.53582E-003	-8.81328E-003	3.92512E-004	5.14349E-004	-8.50174E-003	5.66381E-004
	78	78	4.99412E-002	-1.31969E-002	0.00000E+000	-6.59067E-004	-1.30062E-001	3.72262E-002	3.41145E+001	11	...........	6.20658E-002	-3.47444E-003	5.66136E-001	6.62050E-001	-2.95007E-002	-3.86132E-002	6.38586E-001	-4.24308E-002	-8.19074E-004	4.58517E-005	-7.47122E-003	-8.73698E-003	3.89316E-004	5.09573E-004	-8.42732E-003	5.59954E-004
	79	79	4.99389E-002	-1.29788E-002	0.00000E+000	-6.48149E-004	-1.27900E-001	3.72397E-002	3.30019E+001	11	...........	6.20776E-002	-3.68819E-003	5.66242E-001	6.62099E-001	-2.95321E-002	-3.86290E-002	6.38480E-001	-4.25658E-002	-8.05696E-004	4.78685E-005	-7.34917E-003	-8.59329E-003	3.83292E-004	5.01360E-004	-8.28674E-003	5.52456E-004
	80	80	4.99468E-002	-1.28175E-002	0.00000E+000	-6.40195E-004	-1.26306E-001	3.71504E-002	3.34170E+001	11	...........	6.19378E-002	-3.58819E-003	5.66409E-001	6.62096E-001	-2.95982E-002	-3.86344E-002	6.38515E-001	-4.26293E-002	-7.93890E-004	4.59918E-005	-7.25997E-003	-8.48644E-003	3.79376E-004	4.95198E-004	-8.18419E-003	5.46403E-004
	81	81	4.99402E-002	-1.28005E-002	0.00000E+000	-6.39260E-004	-1.26128E-001	3.72380E-002	3.34462E+001	11	...........	6.20721E-002	-3.58403E-003	5.66500E-001	6.62021E-001	-2.96368E-002	-3.86442E-002	6.38396E-001	-4.26372E-002	-7.94555E-004	4.58774E-005	-7.25149E-003	-8.47421E-003	3.79366E-004	4.94665E-004	-8.17180E-003	5.45778E-004
	82	82	4.99427E-002	-1.26128E-002	0.00000E+000	-6.29915E-004	-1.24261E-001	3.72754E-002	3.42439E+001	11	...........	6.21571E-002	-3.65889E-003	5.66552E-001	6.61896E-001	-2.95862E-002	-3.86786E-002	6.38453E-001	-4.26164E-002	-7.83973E-004	4.61487E-005	-7.14579E-003	-8.34834E-003	3.73164E-004	4.87844E-004	-8.05266E-003	5.37511E-004
	83	83	4.99388E-002	-1.23994E-002	0.00000E+000	-6.19211E-004	-1.22138E-001	3.72096E-002	3.32377E+001	11	...........	6.20493E-002	-3.73097E-003	5.66401E-001	6.61754E-001	-2.95428E-002	-3.87126E-002	6.38501E-001	-4.26326E-002	-7.69374E-004	4.62618E-005	-7.02302E-003	-8.20534E-003	3.66312E-004	4.80013E-004	-7.91703E-003	5.28619E-004
	84	84	4.99453E-002	-1.22674E-002	0.00000E+000	-6.12698E-004	-1.20817E-001	3.72560E-002	3.37297E+001	11	...........	6.21246E-002	-3.49264E-003	5.66433E-001	6.61758E-001	-2.94869E-002	-3.86997E-002	6.38437E-001	-4.26419E-002	-7.62105E-004	4.28455E-005	-6.94864E-003	-8.11802E-003	3.61727E-004	4.74744E-004	-7.83195E-003	5.23104E-004
	85	85	4.99413E-002	-1.22145E-002	0.00000E+000	-6.10008E-004	-1.20283E-001	3.72520E-002	3.37729E+001	11	...........	6.20992E-002	-3.48153E-003	5.66403E-001	6.61773E-001	-2.94533E-002	-3.87056E-002	6.38408E-001	-4.26346E-002	-7.58510E-004	4.25251E-005	-6.91833E-003	-8.08323E-003	3.59758E-004	4.72769E-004	-7.79784E-003	5.20760E-004
	86	86	4.99396E-002	-1.19677E-002	0.00000E+000	-5.97661E-004	-1.17826E-001	3.72627E-002	3.38877E+001	11	...........	6.21087E-002	-3.58722E-003	5.66559E-001	6.61934E-001	-2.94267E-002	-3.86878E-002	6.38449E-001	-4.25932E-002	-7.43298E-004	4.29307E-005	-6.78039E-003	-7.92182E-003	3.52169E-004	4.63003E-004	-7.64076E-003	5.09742E-004
	87	87	4.99406E-002	-1.18662E-002	0.00000E+000	-5.92603E-004	-1.16814E-001	3.73763E-002	3.32781E+001	11	...........	6.23179E-002	-3.63556E-003	5.66745E-001	6.61875E-001	-2.94515E-002	-3.86867E-002	6.38399E-001	-4.25646E-002	-7.39475E-004	4.31401E-005	-6.72509E-003	-7.85392E-003	3.49477E-004	4.59062E-004	-7.57535E-003	5.05078E-004
	88	88	4.99449E-002	-1.16846E-002	0.00000E+000	-5.83587E-004	-1.15009E-001	3.72104E-002	3.36254E+001	11	...........	6.20260E-002	-3.74708E-003	5.66672E-001	6.61892E-001	-2.94544E-002	-3.86587E-002	6.38531E-001	-4.24972E-002	-7.24750E-004	4.37832E-005	-6.62135E-003	-7.73396E-003	3.44164E-004	4.51713E-004	-7.46099E-003	4.96564E-004
	89	89	4.99427E-002	-1.16950E-002	0.00000E+000	-5.84078E-004	-1.15089E-001	3.73567E-002	3.40381E+001	11	...........	6.22993E-002	-3.75194E-003	5.66872E-001	6.62015E-001	-2.94433E-002	-3.86544E-002	6.38522E-001	-4.25382E-002	-7.28588E-004	4.38789E-005	-6.62955E-003	-7.74225E-003	3.44339E-004	4.52063E-004	-7.46750E-003	4.97483E-004
	90	90	4.99391E-002	-1.13825E-002	0.00000E+000	-5.68430E-004	-1.12022E-001	3.71992E-002	3.36903E+001	11	...........	6.20208E-002	-3.70403E-003	5.66983E-001	6.62063E-001	-2.94339E-002	-3.86221E-002	6.38380E-001	-4.24853E-002	-7.05949E-004	4.21609E-005	-6.45366E-003	-7.53590E-003	3.35030E-004	4.39614E-004	-7.26633E-003	4.83587E-004
	91	91	4.99418E-002	-1.12109E-002	0.00000E+000	-5.59895E-004	-1.10318E-001	3.72895E-002	3.26564E+001	11	...........	6.21524E-002	-3.72208E-003	5.67141E-001	6.62128E-001	-2.94408E-002	-3.86058E-002	6.38496E-001	-4.25329E-002	-6.96787E-004	4.17281E-005	-6.35819E-003	-7.42308E-003	3.30060E-004	4.32808E-004	-7.15815E-003	4.76834E-004
	92	92	4.99434E-002	-1.11845E-002	0.00000E+000	-5.58592E-004	-1.10059E-001	3.73479E-002	3.36978E+001	11	...........	6.22754E-002	-3.73056E-003	5.67103E-001	6.62294E-001	-2.94428E-002	-3.86153E-002	6.38659E-001	-4.25756E-002	-6.96519E-004	4.17244E-005	-6.34276E-003	-7.40742E-003	3.29302E-004	4.31892E-004	-7.14308E-003	4.76186E-004
	93	93	4.99425E-002	-1.10598E-002	0.00000E+000	-5.52354E-004	-1.08813E-001	3.73716E-002	3.36017E+001	11	...........	6.23035E-002	-3.78014E-003	5.67132E-001	6.62471E-001	-2.94765E-002	-3.86128E-002	6.38521E-001	-4.26067E-002	-6.89064E-004	4.18076E-005	-6.27236E-003	-7.32679E-003	3.26004E-004	4.27049E-004	-7.06191E-003	4.71221E-004
	94	94	4.99410E-002	-1.08183E-002	0.00000E+000	-5.40276E-004	-1.06406E-001	3.72615E-002	3.31075E+001	11	...........	6.21185E-002	-3.68833E-003	5.67149E-001	6.62411E-001	-2.95117E-002	-3.86114E-002	6.38554E-001	-4.25939E-002	-6.72014E-004	3.99014E-005	-6.13557E-003	-7.16614E-003	3.19265E-004	4.17708E-004	-6.90805E-003	4.60792E-004
	95	95	4.99424E-002	-1.07263E-002	0.00000E+000	-5.35697E-004	-1.05495E-001	3.73221E-002	3.34654E+001	11	...........	6.22335E-002	-3.67403E-003	5.67093E-001	6.62385E-001	-2.95672E-002	-3.86004E-002	6.38604E-001	-4.25650E-002	-6.67535E-004	3.94087E-005	-6.08280E-003	-7.10494E-003	3.17147E-004	4.14040E-004	-6.84986E-003	4.56565E-004
	96	96	4.99432E-002	-1.07083E-002	0.00000E+000	-5.34805E-004	-1.05314E-001	3.74321E-002	3.40025E+001	11	...........	6.24133E-002	-3.66222E-003	5.67124E-001	6.62350E-001	-2.95986E-002	-3.85872E-002	6.38621E-001	-4.25843E-002	-6.68338E-004	3.92160E-005	-6.07291E-003	-7.09261E-003	3.16949E-004	4.13202E-004	-6.83852E-003	4.56003E-004
	97	97	4.99410E-002	-1.05588E-002	0.00000E+000	-5.27318E-004	-1.03832E-001	3.73334E-002	3.37885E+001	11	...........	6.22431E-002	-3.57764E-003	5.67252E-001	6.62446E-001	-2.96575E-002	-3.86004E-002	6.38741E-001	-4.25049E-002	-6.57213E-004	3.77756E-005	-5.98951E-003	-6.99465E-003	3.13148E-004	4.07575E-004	-6.74435E-003	4.48801E-004
	98	98	4.99413E-002	-1.03334E-002	0.00000E+000	-5.16061E-004	-1.01615E-001	3.73916E-002	3.30595E+001	11	...........	6.23601E-002	-3.51292E-003	5.67239E-001	6.62479E-001	-2.97129E-002	-3.86239E-002	6.38588E-001	-4.24865E-002	-6.44389E-004	3.63002E-005	-5.86148E-003	-6.84562E-003	3.07034E-004	3.99114E-004	-6.59875E-003	4.39028E-004
	99	99	4.99448E-002	-1.02546E-002	0.00000E+000	-5.12162E-004	-1.00840E-001	3.73192E-002	3.33803E+001	11	...........	6.22315E-002	-3.59528E-003	5.67350E-001	6.62547E-001	-2.97199E-002	-3.86333E-002	6.38456E-001	-4.25922E-002	-6.38158E-004	3.68681E-005	-5.81793E-003	-6.79414E-003	3.04765E-004	3.96168E-004	-6.54710E-003	4.36765E-004
	100	100	4.99422E-002	-1.02253E-002	0.00000E+000	-5.10674E-004	-1.00553E-001	3.74169E-002	3.38249E+001	11	...........	6.23924E-002	-3.78278E-003	5.67380E-001	6.62639E-001	-2.96858E-002	-3.86450E-002	6.38453E-001	-4.26056E-002	-6.37981E-004	3.86801E-005	-5.80163E-003	-6.77568E-003	3.03547E-004	3.95157E-004	-6.52838E-003	4.35655E-004
	101	101	4.99392E-002	-1.01330E-002	0.00000E+000	-5.06036E-004	-9.96300E-002	3.74962E-002	3.35951E+001	11	...........	6.25222E-002	-3.64931E-003	5.67306E-001	6.62520E-001	-2.96076E-002	-3.86500E-002	6.38561E-001	-4.25581E-002	-6.33540E-004	3.69786E-005	-5.74854E-003	-6.71334E-003	3.00015E-004	3.91642E-004	-6.47057E-003	4.31243E-004
	102	102	4.99442E-002	-9.92570E-003	0.00000E+000	-4.95731E-004	-9.75657E-002	3.73297E-002	3.38281E+001	11	...........	6.22464E-002	-3.48375E-003	5.67277E-001	6.62517E-001	-2.95125E-002	-3.86424E-002	6.38502E-001	-4.25283E-002	-6.17839E-004	3.45786E-005	-5.63062E-003	-6.57594E-003	2.92932E-004	3.83552E-004	-6.33758E-003	4.22123E-004
	103	103	4.99406E-002	-9.84261E-003	0.00000E+000	-4.91546E-004	-9.67373E-002	3.73142E-002	3.33520E+001	11	...........	6.22207E-002	-3.33889E-003	5.67314E-001	6.62547E-001	-2.94881E-002	-3.86325E-002	6.38421E-001	-4.25842E-002	-6.12414E-004	3.28634E-005	-5.58385E-003	-6.52119E-003	2.90239E-004	3.80245E-004	-6.28373E-003	4.19139E-004
	104	104	4.99455E-002	-9.80108E-003	0.00000E+000	-4.89520E-004	-9.63163E-002	3.74768E-002	3.41475E+001	11	...........	6.24904E-002	-3.57778E-003	5.67284E-001	6.62531E-001	-2.94889E-002	-3.86222E-002	6.38344E-001	-4.25400E-002	-6.12474E-004	3.50661E-005	-5.55999E-003	-6.49353E-003	2.89023E-004	3.78540E-004	-6.25647E-003	4.16938E-004
	105	105	4.99385E-002	-9.63763E-003	0.00000E+000	-4.81289E-004	-9.46793E-002	3.73528E-002	3.38413E+001	11	...........	6.22689E-002	-3.62403E-003	5.67274E-001	6.62514E-001	-2.94829E-002	-3.86110E-002	6.38441E-001	-4.25732E-002	-6.00125E-004	3.49270E-005	-5.46718E-003	-6.38506E-003	2.84145E-004	3.72118E-004	-6.15306E-003	4.10305E-004
	106	106	4.99427E-002	-9.47184E-003	0.00000E+000	-4.73050E-004	-9.30397E-002	3.73551E-002	3.26585E+001	11	...........	6.22543E-002	-3.59347E-003	5.67312E-001	6.62507E-001	-2.95315E-002	-3.86135E-002	6.38447E-001	-4.26471E-002	-5.89663E-004	3.40368E-005	-5.37349E-003	-6.27516E-003	2.79718E-004	3.65741E-004	-6.04727E-003	4.03946E-004
	107	107	4.99450E-002	-9.42171E-003	0.00000E+000	-4.70567E-004	-9.25380E-002	3.75235E-002	3.34278E+001	11	...........	6.25521E-002	-3.70208E-003	5.67457E-001	6.62423E-001	-2.95875E-002	-3.86517E-002	6.38352E-001	-4.25772E-002	-5.89347E-004	3.48799E-005	-5.34641E-003	-6.24115E-003	2.78765E-004	3.64165E-004	-6.01436E-003	4.01150E-004
	108	108	4.99392E-002	-9.34166E-003	0.00000E+000	-4.66515E-004	-9.17267E-002	3.73497E-002	3.37358E+001	11	...........	6.22821E-002	-3.78000E-003	5.67535E-001	6.62334E-001	-2.96028E-002	-3.86747E-002	6.38400E-001	-4.24786E-002	-5.81818E-004	3.53115E-005	-5.30172E-003	-6.18730E-003	2.76539E-004	3.61286E-004	-5.96372E-003	3.96821E-004
	109	109	4.99456E-002	-9.24408E-003	0.00000E+000	-4.61701E-004	-9.07697E-002	3.74581E-002	3.39593E+001	11	...........	6.24564E-002	-3.75431E-003	5.67596E-001	6.62220E-001	-2.95035E-002	-3.86699E-002	6.38298E-001	-4.24187E-002	-5.77352E-004	3.47051E-005	-5.24691E-003	-6.12161E-003	2.72732E-004	3.57467E-004	-5.90048E-003	3.92122E-004
	110	110	4.99419E-002	-9.16709E-003	0.00000E+000	-4.57822E-004	-8.99857E-002	3.74348E-002	3.40734E+001	11	...........	6.24068E-002	-3.57750E-003	5.67714E-001	6.62270E-001	-2.94399E-002	-3.86503E-002	6.38334E-001	-4.25210E-002	-5.72089E-004	3.27953E-005	-5.20428E-003	-6.07109E-003	2.69878E-004	3.54310E-004	-5.85167E-003	3.89794E-004
	111	111	4.99423E-002	-9.03162E-003	0.00000E+000	-4.51060E-004	-8.86623E-002	3.74222E-002	3.39811E+001	11	...........	6.24094E-002	-3.81653E-003	5.67602E-001	6.62500E-001	-2.94504E-002	-3.86160E-002	6.38357E-001	-4.25393E-002	-5.63658E-004	3.44694E-005	-5.12636E-003	-5.98345E-003	2.65985E-004	3.48765E-004	-5.76539E-003	3.84199E-004
	112	112	4.99417E-002	-8.89459E-003	0.00000E+000	-4.44211E-004	-8.73213E-002	3.74913E-002	3.39732E+001	11	...........	6.25142E-002	-3.84444E-003	5.67426E-001	6.62465E-001	-2.94499E-002	-3.85789E-002	6.38209E-001	-4.25296E-002	-5.56038E-004	3.41948E-005	-5.04702E-003	-5.89235E-003	2.61945E-004	3.43144E-004	-5.67661E-003	3.78283E-004
	113	113	4.99429E-002	-8.78265E-003	0.00000E+000	-4.38631E-004	-8.62060E-002	3.73482E-002	3.29900E+001	11	...........	6.22524E-002	-3.54014E-003	5.67308E-001	6.62429E-001	-2.94632E-002	-3.85686E-002	6.38255E-001	-4.25408E-002	-5.46741E-004	3.10918E-005	-4.98247E-003	-5.81788E-003	2.58765E-004	3.38735E-004	-5.60557E-003	3.73621E-004
	114	114	4.99438E-002	-8.76211E-003	0.00000E+000	-4.37613E-004	-8.60007E-002	3.75721E-002	3.40304E+001	11	...........	6.26454E-002	-3.37333E-003	5.67291E-001	6.62292E-001	-2.95417E-002	-3.85883E-002	6.38345E-001	-4.25719E-002	-5.48906E-004	2.95575E-005	-4.97066E-003	-5.80308E-003	2.58847E-004	3.38115E-004	-5.59324E-003	3.73020E-004
	115	115	4.99424E-002	-8.67292E-003	0.00000E+000	-4.33147E-004	-8.51100E-002	3.74626E-002	3.42649E+001	11	...........	6.24643E-002	-3.46153E-003	5.67305E-001	6.62213E-001	-2.96603E-002	-3.86243E-002	6.38448E-001	-4.26376E-002	-5.41748E-004	3.00216E-005	-4.92020E-003	-5.74332E-003	2.57241E-004	3.34986E-004	-5.53721E-003	3.69793E-004
	116	116	4.99401E-002	-8.57786E-003	0.00000E+000	-4.28379E-004	-8.41663E-002	3.75095E-002	3.39469E+001	11	...........	6.25426E-002	-3.65264E-003	5.67238E-001	6.62127E-001	-2.96576E-002	-3.86481E-002	6.38482E-001	-4.26281E-002	-5.36482E-004	3.13318E-005	-4.86569E-003	-5.67963E-003	2.54399E-004	3.31518E-004	-5.47681E-003	3.65658E-004
	117	117	4.99415E-002	-8.45378E-003	0.00000E+000	-4.22194E-004	-8.29247E-002	3.75081E-002	3.33841E+001	11	...........	6.25530E-002	-3.69972E-003	5.67301E-001	6.62190E-001	-2.95315E-002	-3.86503E-002	6.38479E-001	-4.25626E-002	-5.28810E-004	3.12767E-005	-4.79584E-003	-5.59801E-003	2.49653E-004	3.26741E-004	-5.39756E-003	3.59815E-004
	118	118	4.99457E-002	-8.36799E-003	0.00000E+000	-4.17945E-004	-8.20657E-002	3.74237E-002	3.44321E+001	11	...........	6.23790E-002	-3.57889E-003	5.67421E-001	6.62131E-001	-2.94715E-002	-3.86565E-002	6.38402E-001	-4.25353E-002	-5.21987E-004	2.99481E-005	-4.74817E-003	-5.54070E-003	2.46617E-004	3.23477E-004	-5.34214E-003	3.55935E-004
	119	119	4.99415E-002	-8.33886E-003	0.00000E+000	-4.16456E-004	-8.17817E-002	3.74626E-002	3.41787E+001	11	...........	6.24796E-002	-3.75611E-003	5.67444E-001	6.62062E-001	-2.94681E-002	-3.86347E-002	6.38518E-001	-4.25753E-002	-5.21009E-004	3.13217E-005	-4.73184E-003	-5.52085E-003	2.45730E-004	3.22170E-004	-5.32452E-003	3.55029E-004
	120	120	4.99422E-002	-8.19021E-003	0.00000E+000	-4.09037E-004	-8.02997E-002	3.74682E-002	3.40427E+001	11	...........	6.24824E-002	-3.71028E-003	5.67391E-001	6.62093E-001	-2.94801E-002	-3.86061E-002	6.38507E-001	-4.25593E-002	-5.11744E-004	3.03879E-005	-4.64705E-003	-5.42268E-003	2.41448E-004	3.16192E-004	-5.22951E-003	3.48570E-004
	121	121	4.99424E-002	-8.09358E-003	0.00000E+000	-4.04212E-004	-7.93437E-002	3.74951E-002	3.37831E+001	11	...........	6.25233E-002	-3.78833E-003	5.67497E-001	6.62280E-001	-2.95392E-002	-3.86154E-002	6.38487E-001	-4.24919E-002	-5.06037E-004	3.06612E-005	-4.59308E-003	-5.36021E-003	2.39077E-004	3.12537E-004	-5.16764E-003	3.43912E-004
	122	122	4.99448E-002	-8.05705E-003	0.00000E+000	-4.02408E-004	-7.89690E-002	3.75047E-002	3.41520E+001	11	...........	6.25406E-002	-3.71792E-003	5.67574E-001	6.62414E-001	-2.95899E-002	-3.86357E-002	6.38505E-001	-4.24524E-002	-5.03892E-004	2.99554E-005	-4.57297E-003	-5.33711E-003	2.38407E-004	3.11290E-004	-5.14447E-003	3.42041E-004
	123	123	4.99422E-002	-7.95929E-003	0.00000E+000	-3.97505E-004	-7.80070E-002	3.73763E-002	3.44051E+001	11	...........	6.23124E-002	-3.53069E-003	5.67626E-001	6.62258E-001	-2.96750E-002	-3.86558E-002	6.38544E-001	-4.25967E-002	-4.95962E-004	2.81018E-005	-4.51790E-003	-5.27110E-003	2.36192E-004	3.07673E-004	-5.08236E-003	3.39039E-004
	124	124	4.99419E-002	-7.88200E-003	0.00000E+000	-3.93643E-004	-7.72483E-002	3.75796E-002	3.46500E+001	11	...........	6.26689E-002	-3.65125E-003	5.67550E-001	6.62345E-001	-2.96343E-002	-3.86768E-002	6.38583E-001	-4.26000E-002	-4.93956E-004	2.87792E-005	-4.47343E-003	-5.22061E-003	2.33578E-004	3.04851E-004	-5.03332E-003	3.35773E-004
	125	125	4.99424E-002	-7.74262E-003	0.00000E+000	-3.86685E-004	-7.58707E-002	3.75159E-002	3.33859E+001	11	...........	6.25339E-002	-3.68444E-003	5.67570E-001	6.62475E-001	-2.95244E-002	-3.86836E-002	6.38596E-001	-4.26094E-002	-4.84176E-004	2.85272E-005	-4.39448E-003	-5.12929E-003	2.28596E-004	2.99512E-004	-4.94441E-003	3.29909E-004
	126	126	4.99438E-002	-7.69414E-003	0.00000E+000	-3.84274E-004	-7.53837E-002	3.74917E-002	3.34915E+001	11	...........	6.25140E-002	-3.41444E-003	5.67554E-001	6.62529E-001	-2.94518E-002	-3.86774E-002	6.38597E-001	-4.25619E-002	-4.80991E-004	2.62712E-005	-4.36683E-003	-5.09759E-003	2.26606E-004	2.97589E-004	-4.91345E-003	3.27477E-004
	127	127	4.99425E-002	-7.62840E-003	0.00000E+000	-3.80981E-004	-7.47310E-002	3.75037E-002	3.46956E+001	11	...........	6.25512E-002	-3.47444E-003	5.67423E-001	6.62585E-001	-2.94672E-002	-3.86324E-002	6.38490E-001	-4.25326E-002	-4.77166E-004	2.65045E-005	-4.32853E-003	-5.05446E-003	2.24788E-004	2.94703E-004	-4.87066E-003	3.24456E-004
	128	128	4.99422E-002	-7.54906E-003	0.00000E+000	-3.77017E-004	-7.39390E-002	3.75455E-002	3.41356E+001	11	...........	6.26267E-002	-3.68319E-003	5.67380E-001	6.62394E-001	-2.94464E-002	-3.86242E-002	6.38447E-001	-4.25685E-002	-4.72772E-004	2.78047E-005	-4.28319E-003	-5.00045E-003	2.22293E-004	2.91576E-004	-4.81968E-003	3.21352E-004
	129	129	4.99429E-002	-7.47982E-003	0.00000E+000	-3.73564E-004	-7.32490E-002	3.75964E-002	3.44935E+001	11	...........	6.27065E-002	-3.67208E-003	5.67263E-001	6.62366E-001	-2.95203E-002	-3.86161E-002	6.38445E-001	-4.25185E-002	-4.69033E-004	2.74665E-005	-4.24302E-003	-4.95437E-003	2.20806E-004	2.88841E-004	-4.77545E-003	3.18030E-004
	130	130	4.99426E-002	-7.38342E-003	0.00000E+000	-3.68747E-004	-7.22893E-002	3.74773E-002	3.36951E+001	11	...........	6.24971E-002	-3.58819E-003	5.67149E-001	6.62377E-001	-2.96240E-002	-3.86354E-002	6.38476E-001	-4.23901E-002	-4.61442E-004	2.64931E-005	-4.18749E-003	-4.89060E-003	2.18726E-004	2.85261E-004	-4.71413E-003	3.12984E-004
	131	131	4.99430E-002	-7.32032E-003	0.00000E+000	-3.65599E-004	-7.16683E-002	3.75831E-002	3.44294E+001	11	...........	6.26972E-002	-3.50528E-003	5.66897E-001	6.62468E-001	-2.95943E-002	-3.86557E-002	6.38413E-001	-4.24893E-002	-4.58964E-004	2.56598E-005	-4.14987E-003	-4.84948E-003	2.16640E-004	2.82972E-004	-4.67339E-003	3.11035E-004
	132	132	4.99428E-002	-7.27682E-003	0.00000E+000	-3.63425E-004	-7.12303E-002	3.75657E-002	3.45230E+001	11	...........	6.26304E-002	-3.47917E-003	5.66807E-001	6.62542E-001	-2.94733E-002	-3.86551E-002	6.38555E-001	-4.25286E-002	-4.55750E-004	2.53173E-005	-4.12455E-003	-4.82120E-003	2.14472E-004	2.81286E-004	-4.64665E-003	3.09473E-004
	133	133	4.99421E-002	-7.17526E-003	0.00000E+000	-3.58347E-004	-7.02087E-002	3.75115E-002	3.37922E+001	11	...........	6.25340E-002	-3.51653E-003	5.66721E-001	6.62560E-001	-2.94576E-002	-3.86271E-002	6.38639E-001	-4.25906E-002	-4.48698E-004	2.52320E-005	-4.06637E-003	-4.75404E-003	2.11366E-004	2.77159E-004	-4.58240E-003	3.05598E-004
	134	134	4.99426E-002	-7.06710E-003	0.00000E+000	-3.52949E-004	-6.91270E-002	3.75078E-002	3.35592E+001	11	...........	6.25558E-002	-3.59875E-003	5.66786E-001	6.62660E-001	-2.94561E-002	-3.85963E-002	6.38678E-001	-4.26176E-002	-4.42088E-004	2.54327E-005	-4.00553E-003	-4.68309E-003	2.08169E-004	2.72764E-004	-4.51361E-003	3.01183E-004
	135	135	4.99449E-002	-7.05016E-003	0.00000E+000	-3.52120E-004	-6.89457E-002	3.75998E-002	3.43661E+001	11	...........	6.27190E-002	-3.59417E-003	5.66950E-001	6.62886E-001	-2.95411E-002	-3.86082E-002	6.38669E-001	-4.26346E-002	-4.42179E-004	2.53395E-005	-3.99709E-003	-4.67345E-003	2.08270E-004	2.72194E-004	-4.50272E-003	3.00581E-004
	136	136	4.99414E-002	-7.02072E-003	0.00000E+000	-3.50625E-004	-6.86773E-002	3.76826E-002	3.43079E+001	11	...........	6.28381E-002	-3.60222E-003	5.67085E-001	6.63024E-001	-2.96593E-002	-3.86406E-002	6.38559E-001	-4.26149E-002	-4.41168E-004	2.52902E-005	-3.98135E-003	-4.65490E-003	2.08230E-004	2.71284E-004	-4.48315E-003	2.99187E-004
	137	137	4.99432E-002	-6.88135E-003	0.00000E+000	-3.43677E-004	-6.72687E-002	3.75782E-002	3.39630E+001	11	...........	6.26714E-002	-3.54514E-003	5.67119E-001	6.63060E-001	-2.96147E-002	-3.86585E-002	6.38480E-001	-4.25853E-002	-4.31264E-004	2.43953E-005	-3.90254E-003	-4.56275E-003	2.03789E-004	2.66023E-004	-4.39361E-003	2.93044E-004
	138	138	4.99421E-002	-6.76220E-003	0.00000E+000	-3.37718E-004	-6.60903E-002	3.75566E-002	3.39309E+001	11	...........	6.26258E-002	-3.57514E-003	5.67183E-001	6.63097E-001	-2.94981E-002	-3.86217E-002	6.38621E-001	-4.25800E-002	-4.23488E-004	2.41758E-005	-3.83540E-003	-4.48399E-003	1.99472E-004	2.61167E-004	-4.31848E-003	2.87934E-004
	139	139	4.99435E-002	-6.73653E-003	0.00000E+000	-3.36446E-004	-6.58130E-002	3.75704E-002	3.42791E+001	11	...........	6.26397E-002	-3.62083E-003	5.67136E-001	6.63193E-001	-2.95012E-002	-3.85729E-002	6.38614E-001	-4.24929E-002	-4.21974E-004	2.43919E-005	-3.82053E-003	-4.46762E-003	1.98736E-004	2.59848E-004	-4.30205E-003	2.86255E-004
	140	140	4.99430E-002	-6.73573E-003	0.00000E+000	-3.36402E-004	-6.58150E-002	3.77021E-002	3.44669E+001	11	...........	6.28536E-002	-3.68625E-003	5.67174E-001	6.63402E-001	-2.95971E-002	-3.85815E-002	6.38539E-001	-4.25783E-002	-4.23365E-004	2.48296E-005	-3.82033E-003	-4.46850E-003	1.99358E-004	2.59875E-004	-4.30103E-003	2.86796E-004
	141	141	4.99407E-002	-6.61468E-003	0.00000E+000	-3.30342E-004	-6.46170E-002	3.75595E-002	3.44231E+001	11	...........	6.26312E-002	-3.59903E-003	5.67142E-001	6.63339E-001	-2.97068E-002	-3.86094E-002	6.38399E-001	-4.25964E-002	-4.14286E-004	2.38064E-005	-3.75146E-003	-4.38778E-003	1.96501E-004	2.55389E-004	-4.22280E-003	2.81762E-004
	142	142	4.99432E-002	-6.49540E-003	0.00000E+000	-3.24401E-004	-6.34410E-002	3.76556E-002	3.28593E+001	11	...........	6.27933E-002	-3.66931E-003	5.67120E-001	6.63278E-001	-2.96187E-002	-3.86357E-002	6.38378E-001	-4.26231E-002	-4.07867E-004	2.38336E-005	-3.68367E-003	-4.30826E-003	1.92385E-004	2.50954E-004	-4.14652E-003	2.76854E-004
	143	143	4.99441E-002	-6.44546E-003	0.00000E+000	-3.21912E-004	-6.29530E-002	3.76420E-002	3.39218E+001	11	...........	6.27651E-002	-3.80708E-003	5.67114E-001	6.63147E-001	-2.95081E-002	-3.86151E-002	6.38303E-001	-4.26294E-002	-4.04550E-004	2.45384E-005	-3.65531E-003	-4.27429E-003	1.90193E-004	2.48892E-004	-4.11415E-003	2.74766E-004
	144	144	4.99433E-002	-6.43098E-003	0.00000E+000	-3.21185E-004	-6.28070E-002	3.76373E-002	3.42517E+001	11	...........	6.27543E-002	-3.70319E-003	5.67118E-001	6.63041E-001	-2.95168E-002	-3.85843E-002	6.38315E-001	-4.26325E-002	-4.03572E-004	2.38152E-005	-3.64713E-003	-4.26400E-003	1.89822E-004	2.48135E-004	-4.10499E-003	2.74169E-004
	145	145	4.99410E-002	-6.35958E-003	0.00000E+000	-3.17604E-004	-6.21130E-002	3.77194E-002	3.38321E+001	11	...........	6.28833E-002	-3.74736E-003	5.67141E-001	6.63090E-001	-2.95757E-002	-3.85946E-002	6.38330E-001	-4.26089E-002	-3.99911E-004	2.38316E-005	-3.60678E-003	-4.21697E-003	1.88089E-004	2.45445E-004	-4.05951E-003	2.70974E-004
	146	146	4.99446E-002	-6.26346E-003	0.00000E+000	-3.12826E-004	-6.11433E-002	3.76731E-002	3.38346E+001	11	...........	6.28326E-002	-3.50083E-003	5.67218E-001	6.63320E-001	-2.96658E-002	-3.86546E-002	6.38175E-001	-4.26428E-002	-3.93550E-004	2.19273E-005	-3.55275E-003	-4.15468E-003	1.85811E-004	2.42112E-004	-3.99718E-003	2.67091E-004
	147	147	4.99429E-002	-6.19648E-003	0.00000E+000	-3.09470E-004	-6.04847E-002	3.75162E-002	3.38484E+001	11	...........	6.25446E-002	-3.67694E-003	5.67306E-001	6.63227E-001	-2.95279E-002	-3.86675E-002	6.38241E-001	-4.26524E-002	-3.87556E-004	2.27841E-005	-3.51530E-003	-4.10967E-003	1.82969E-004	2.39602E-004	-3.95484E-003	2.64294E-004
	148	148	4.99429E-002	-6.20703E-003	0.00000E+000	-3.09997E-004	-6.05923E-002	3.77631E-002	3.40553E+001	11	...........	6.29681E-002	-3.80486E-003	5.67235E-001	6.63079E-001	-2.94765E-002	-3.86381E-002	6.38337E-001	-4.26201E-002	-3.90845E-004	2.36169E-005	-3.52085E-003	-4.11575E-003	1.82962E-004	2.39828E-004	-3.96218E-003	2.64545E-004
	149	149	4.99429E-002	-6.11737E-003	0.00000E+000	-3.05520E-004	-5.96933E-002	3.76786E-002	3.44878E+001	11	...........	6.28324E-002	-3.85625E-003	5.67137E-001	6.62902E-001	-2.94778E-002	-3.86137E-002	6.38428E-001	-4.26203E-002	-3.84369E-004	2.35901E-005	-3.46939E-003	-4.05522E-003	1.80327E-004	2.36215E-004	-3.90550E-003	2.60724E-004
	150	150	4.99432E-002	-6.02883E-003	0.00000E+000	-3.01099E-004	-5.88147E-002	3.76780E-002	3.35603E+001	11	...........	6.28207E-002	-3.85625E-003	5.67310E-001	6.62697E-001	-2.94840E-002	-3.86035E-002	6.38532E-001	-4.26089E-002	-3.78735E-004	2.32487E-005	-3.42022E-003	-3.99529E-003	1.77754E-004	2.32734E-004	-3.84960E-003	2.56882E-004
	151	151	4.99424E-002	-5.99488E-003	0.00000E+000	-2.99399E-004	-5.84723E-002	3.76492E-002	3.40128E+001	11	...........	6.27628E-002	-3.75625E-003	5.67198E-001	6.62651E-001	-2.95860E-002	-3.86067E-002	6.38488E-001	-4.26276E-002	-3.76255E-004	2.25183E-005	-3.40028E-003	-3.97251E-003	1.77364E-004	2.31442E-004	-3.82766E-003	2.55548E-004
	152	152	4.99436E-002	-5.97815E-003	0.00000E+000	-2.98570E-004	-5.83060E-002	3.76896E-002	3.44665E+001	11	...........	6.28490E-002	-3.79667E-003	5.67203E-001	6.62631E-001	-2.96333E-002	-3.86350E-002	6.38344E-001	-4.26346E-002	-3.75721E-004	2.26970E-005	-3.39082E-003	-3.96131E-003	1.77152E-004	2.30966E-004	-3.81611E-003	2.54876E-004
	153	153	4.99429E-002	-5.91259E-003	0.00000E+000	-2.95292E-004	-5.76517E-002	3.76178E-002	3.39534E+001	11	...........	6.27257E-002	-3.75556E-003	5.67140E-001	6.62752E-001	-2.95460E-002	-3.86358E-002	6.38310E-001	-4.25968E-002	-3.70871E-004	2.22051E-005	-3.35327E-003	-3.91858E-003	1.74693E-004	2.28438E-004	-3.77407E-003	2.51857E-004
	154	154	4.99435E-002	-5.82676E-003	0.00000E+000	-2.91009E-004	-5.67960E-002	3.77223E-002	3.34493E+001	11	...........	6.29056E-002	-3.74097E-003	5.67137E-001	6.62598E-001	-2.94835E-002	-3.86315E-002	6.38279E-001	-4.26294E-002	-3.66535E-004	2.17977E-005	-3.30457E-003	-3.86080E-003	1.71793E-004	2.25097E-004	-3.71910E-003	2.48391E-004
	155	155	4.99426E-002	-5.74460E-003	0.00000E+000	-2.86900E-004	-5.59790E-002	3.75359E-002	3.41495E+001	11	...........	6.25992E-002	-3.67722E-003	5.67172E-001	6.62585E-001	-2.94675E-002	-3.85876E-002	6.38286E-001	-4.26453E-002	-3.59607E-004	2.11242E-005	-3.25818E-003	-3.80629E-003	1.69279E-004	2.21671E-004	-3.66670E-003	2.44980E-004
	156	156	4.99425E-002	-5.74270E-003	0.00000E+000	-2.86805E-004	-5.59567E-002	3.77467E-002	3.41848E+001	11	...........	6.29474E-002	-3.66375E-003	5.67335E-001	6.62637E-001	-2.94686E-002	-3.85494E-002	6.38310E-001	-4.26314E-002	-3.61488E-004	2.10398E-005	-3.25803E-003	-3.80532E-003	1.69229E-004	2.21378E-004	-3.66562E-003	2.44819E-004
	157	157	4.99434E-002	-5.70046E-003	0.00000E+000	-2.84700E-004	-5.55487E-002	3.77699E-002	3.44068E+001	11	...........	6.29896E-002	-3.52903E-003	5.67307E-001	6.62688E-001	-2.95368E-002	-3.85550E-002	6.38452E-001	-4.26203E-002	-3.59070E-004	2.01171E-005	-3.23391E-003	-3.77763E-003	1.68374E-004	2.19781E-004	-3.63947E-003	2.42955E-004
	158	158	4.99431E-002	-5.63928E-003	0.00000E+000	-2.81643E-004	-5.49300E-002	3.75265E-002	3.44544E+001	11	...........	6.28250E-002	-3.05861E-003	5.67251E-001	6.62725E-001	-2.96621E-002	-3.85832E-002	6.38389E-001	-4.26183E-002	-3.54288E-004	1.72484E-005	-3.19889E-003	-3.73729E-003	1.67273E-004	2.17581E-004	-3.60005E-003	2.40337E-004
	159	159	4.99426E-002	-5.57839E-003	0.00000E+000	-2.78599E-004	-5.43263E-002	3.76981E-002	3.38623E+001	11	...........	6.28701E-002	-3.35694E-003	5.67221E-001	6.62811E-001	-2.95749E-002	-3.86160E-002	6.38424E-001	-4.26333E-002	-3.50714E-004	1.87263E-005	-3.16418E-003	-3.69741E-003	1.64980E-004	2.15415E-004	-3.56138E-003	2.37825E-004
	160	160	4.99439E-002	-5.52541E-003	0.00000E+000	-2.75960E-004	-5.38047E-002	3.77118E-002	3.43307E+001	11	...........	6.28815E-002	-3.60125E-003	5.67201E-001	6.62842E-001	-2.94626E-002	-3.86125E-002	6.38417E-001	-4.25853E-002	-3.47446E-004	1.98984E-005	-3.13402E-003	-3.66247E-003	1.62793E-004	2.13350E-004	-3.52751E-003	2.35301E-004
	161	161	4.99434E-002	-5.50418E-003	0.00000E+000	-2.74898E-004	-5.35887E-002	3.77074E-002	3.44791E+001	11	...........	6.28864E-002	-3.53514E-003	5.67169E-001	6.62909E-001	-2.94494E-002	-3.85743E-002	6.38335E-001	-4.26033E-002	-3.46138E-004	1.94581E-005	-3.12180E-003	-3.64877E-003	1.62095E-004	2.12320E-004	-3.51351E-003	2.34497E-004
	162	162	4.99428E-002	-5.42909E-003	0.00000E+000	-2.71144E-004	-5.28403E-002	3.77230E-002	3.41686E+001	11	...........	6.28930E-002	-3.50403E-003	5.67083E-001	6.62970E-001	-2.94656E-002	-3.85546E-002	6.38367E-001	-4.25965E-002	-3.41452E-004	1.90237E-005	-3.07875E-003	-3.59932E-003	1.59971E-004	2.09316E-004	-3.46575E-003	2.31260E-004
	163	163	4.99430E-002	-5.36028E-003	0.00000E+000	-2.67708E-004	-5.21620E-002	3.76217E-002	3.37531E+001	11	...........	6.27235E-002	-3.63903E-003	5.67036E-001	6.62920E-001	-2.95647E-002	-3.85674E-002	6.38334E-001	-4.25929E-002	-3.36215E-004	1.95062E-005	-3.03947E-003	-3.55343E-003	1.58475E-004	2.06732E-004	-3.42165E-003	2.28310E-004
	164	164	4.99433E-002	-5.35300E-003	0.00000E+000	-2.67347E-004	-5.20857E-002	3.78033E-002	3.43375E+001	11	...........	6.30496E-002	-3.65028E-003	5.67069E-001	6.62959E-001	-2.96268E-002	-3.86089E-002	6.38372E-001	-4.25329E-002	-3.37504E-004	1.95399E-005	-3.03552E-003	-3.54882E-003	1.58592E-004	2.06673E-004	-3.41720E-003	2.27679E-004
	165	165	4.99435E-002	-5.33242E-003	0.00000E+000	-2.66320E-004	-5.18740E-002	3.77968E-002	3.46794E+001	11	...........	6.30407E-002	-3.68208E-003	5.67086E-001	6.63045E-001	-2.95075E-002	-3.86272E-002	6.38304E-001	-4.26200E-002	-3.36159E-004	1.96344E-005	-3.02394E-003	-3.53563E-003	1.57346E-004	2.05976E-004	-3.40370E-003	2.27268E-004
	166	166	4.99425E-002	-5.22351E-003	0.00000E+000	-2.60875E-004	-5.08107E-002	3.76687E-002	3.39748E+001	11	...........	6.28111E-002	-3.71278E-003	5.67224E-001	6.63106E-001	-2.94401E-002	-3.86142E-002	6.38202E-001	-4.25817E-002	-3.28095E-004	1.93937E-005	-2.96290E-003	-3.46374E-003	1.53781E-004	2.01702E-004	-3.33366E-003	2.22426E-004
	167	167	4.99433E-002	-5.17502E-003	0.00000E+000	-2.58458E-004	-5.03270E-002	3.76556E-002	3.40548E+001	11	...........	6.27918E-002	-3.65069E-003	5.67354E-001	6.63219E-001	-2.94344E-002	-3.85603E-002	6.38276E-001	-4.26221E-002	-3.24949E-004	1.88924E-005	-2.93607E-003	-3.43217E-003	1.52324E-004	1.99550E-004	-3.30309E-003	2.20570E-004
	168	168	4.99435E-002	-5.19405E-003	0.00000E+000	-2.59409E-004	-5.05237E-002	3.78621E-002	3.44125E+001	11	...........	6.31361E-002	-3.76889E-003	5.67362E-001	6.63281E-001	-2.94622E-002	-3.85612E-002	6.38412E-001	-4.26368E-002	-3.27932E-004	1.95758E-005	-2.94691E-003	-3.44512E-003	1.53028E-004	2.00289E-004	-3.31595E-003	2.21458E-004
	169	168.317	4.99369E-002	-5.11494E-003	0.00000E+000	-2.55425E-004	-4.97232E-002	3.77339E-002	3.44735E+001	11	...........	6.29167E-002	-3.61403E-003	5.67334E-001	6.63341E-001	-2.95912E-002	-3.85855E-002	6.38457E-001	-4.26596E-002	-3.21815E-004	1.84856E-005	-2.90188E-003	-3.39295E-003	1.51357E-004	1.97363E-004	-3.26567E-003	2.18202E-004
STARTTIMEOFFSET	QUANT	764793.7	Start Time Offset (s)
