EXPLAIN
TAG	PWR800_DISCHARGE
TITLE	LABEL	PWR Discharge	Test Identifier
DATE	LABEL	10/16/2022	Date
TIME	LABEL	0:06:30	Time
NOTES	NOTES	1	Notes...
	
PSTAT	PSTAT	REF3000-21114	Potentiostat
CAPACITY	QUANT	5.30000E-002	Capacity (A-hr)
CELLTYPE	SELECTOR	1	Cell Type
WORKINGCONNECTION	SELECTOR	0	Working Connection
MAXDISCHARGETIME	VARIABLEANDUNITS	7.20000E+003	s	2.00000E+000	hour(s)	Max Discharge Time
DISCHARGEMODE	MULTIPARAM	0	1.00000E-001	Discharge Mode	Constant Current	Amp(s)
VOLTAGEFINISH	TWOPARAM	T	5.00000E-003	7.20000E+003	Voltage Finish	I (A) <	Max Time(s)
SAMPLETIME	QUANT	1.00000E+000	Sample Period (s)
DISCHARGESTOPAT1	MULTIPARAM	1	5.00000E-002	Stop At 1	|Voltage| < Limit	V
DISCHARGESTOPAT2	MULTIPARAM	0	0.00000E+000	Stop At 2	None	N/A
AESELECTOR	AESELECTOR	0x1	T	Set Limits	AE Channels
AESBHCSELECTOR	TOGGLE	F	Save Both Half Cells
IRCOMP	TOGGLE	F	IR Measure
EOC	QUANT	0.5485764	Open Circuit (V)
SEQUENCER	TOGGLE	TRUE	Run as Sequence
PSTATMODEL	IQUANT	5	Pstat Model
PSTATSECTION	LABEL	REF3000-21114	Pstat Section
PSTATSERIALNO	LABEL	21114	Pstat Serial Number
CTRLMODE	IQUANT	0	Control Mode
ELECTROMETER	IQUANT	0	RE=0 or CS=1
IESTAB	IQUANT	0	I/E Stability
CASPEED	IQUANT	4	Control Amp Speed
CONVENTION	IQUANT	1	Current Convention
ICHRANGE	IQUANT	2	Ich Range
ICHRANGEMODE	TOGGLE	T	Ich Auto Range
ICHOFFSETENABLE	TOGGLE	F	Ich Offset Enable
ICHOFFSET	QUANT	0	Ich Offset (V)
ICHFILTER	IQUANT	1	Ich Filter
VCHRANGE	IQUANT	3	Vch Range
VCHRANGEMODE	TOGGLE	T	Vch Auto Range
VCHOFFSETENABLE	TOGGLE	F	Vch Offset Enable
VCHOFFSET	QUANT	0	Vch Offset (V)
VCHFILTER	IQUANT	1	Vch Filter
ACHRANGE	IQUANT	2	Ach Range
ACHOFFSETENABLE	TOGGLE	F	Ach Offset Enable
ACHOFFSET	QUANT	0	Ach Offset (V)
ACHFILTER	IQUANT	1	Ach Filter
IERANGELOWERLIMIT	IQUANT	9	I/E Range Lower Limit
IERANGEMODE	TOGGLE	F	I/E AutoRange
IERANGE	IQUANT	9	I/E Range
POSFEEDENABLE	TOGGLE	F	Positive Feedback IR Comp
POSFEEDRESISTANCE	QUANT	0	Positive Feedback Resistance (ohm)
ACHSELECT	IQUANT	1	Ach Select
SENSECABLEID	IQUANT	13	Sense Cable ID
PWRCABLEID	IQUANT	13	Power Cable ID
DCCALDATE	LABEL		DC Calibration Date
ACCALDATE	LABEL		AC Calibration Date
THERMOSELECT	IQUANT	1	Thermo Select
FRAMEWORKVERSION	LABEL	7.8.6	Framework Version
INSTRUMENTVERSION	LABEL	4.50	Instrument Version
COMPLIANCEVOLTAGE	IQUANT	0	Compliance Voltage
CURVE	TABLE	127
	Pt	T	Vf	Im	Vu	Pwr	Sig	Ach	Temp	IERange	Over	Vf1	Vf2	Vf3	Vf4	Vf5	Vf6	Vf7	Vf8	Pwr1	Pwr2	Pwr3	Pwr4	Pwr5	Pwr6	Pwr7	Pwr8
	#	s	V	A	V	W	V	V	deg C	#	bits	V	V	V	V	V	V	V	V	W	W	W	W	W	W	W	W
	0	1	3.09037E-001	-1.00082E-001	0.00000E+000	-3.09291E-002	-9.94000E-001	3.56311E-002	2.95825E+001	11	...........	5.92364E-002	-4.24431E-003	5.74625E-001	6.15468E-001	-2.89742E-002	-3.88957E-002	6.62027E-001	-4.32931E-002	-5.92852E-003	4.24780E-004	-5.75098E-002	-6.15975E-002	2.89980E-003	3.89277E-003	-6.62572E-002	4.33287E-003
	1	2	2.13689E-001	-1.00083E-001	0.00000E+000	-2.13867E-002	-9.94000E-001	3.56067E-002	2.87341E+001	11	...........	5.92018E-002	-4.21792E-003	5.74672E-001	6.15423E-001	-2.89612E-002	-3.88871E-002	6.62016E-001	-4.33044E-002	-5.92510E-003	4.22142E-004	-5.75150E-002	-6.15935E-002	2.89853E-003	3.89194E-003	-6.62566E-002	4.33405E-003
	2	3	1.33482E-001	-1.00083E-001	0.00000E+000	-1.33593E-002	-9.94000E-001	3.56198E-002	2.83397E+001	11	...........	5.92312E-002	-4.21056E-003	5.74764E-001	6.15436E-001	-2.89883E-002	-3.88804E-002	6.62015E-001	-4.32878E-002	-5.92805E-003	4.21405E-004	-5.75242E-002	-6.15948E-002	2.90124E-003	3.89127E-003	-6.62564E-002	4.33237E-003
	3	3.66	7.25050E-002	-1.00083E-001	0.00000E+000	-7.25652E-003	-9.94000E-001	3.55215E-002	2.75267E+001	11	...........	5.90408E-002	-4.33880E-003	5.74764E-001	6.15477E-001	-2.89760E-002	-3.88803E-002	6.62071E-001	-4.31829E-002	-5.90899E-003	4.34241E-004	-5.75242E-002	-6.15989E-002	2.90001E-003	3.89126E-003	-6.62621E-002	4.32188E-003
	4	4	4.93049E-002	-9.16729E-002	0.00000E+000	-4.51992E-003	-9.10376E-001	3.56525E-002	2.75582E+001	11	...........	5.92839E-002	-4.33660E-003	5.74772E-001	6.15561E-001	-2.90237E-002	-3.88627E-002	6.62049E-001	-4.31491E-002	-5.43473E-003	3.97549E-004	-5.26910E-002	-5.64302E-002	2.66069E-003	3.56266E-003	-6.06919E-002	3.95560E-003
	5	5	4.95883E-002	-6.92537E-002	0.00000E+000	-3.43417E-003	-6.87477E-001	3.57517E-002	2.84351E+001	11	...........	5.94397E-002	-4.30111E-003	5.74828E-001	6.15529E-001	-2.89524E-002	-3.89017E-002	6.62032E-001	-4.32181E-002	-4.11642E-003	2.97868E-004	-3.98090E-002	-4.26276E-002	2.00506E-003	2.69408E-003	-4.58482E-002	2.99301E-003
	6	6	4.97485E-002	-5.11257E-002	0.00000E+000	-2.54342E-003	-5.07231E-001	3.58529E-002	2.94792E+001	11	...........	5.96079E-002	-4.29375E-003	5.74895E-001	6.15447E-001	-2.89481E-002	-3.89071E-002	6.62110E-001	-4.31982E-002	-3.04750E-003	2.19521E-004	-2.93919E-002	-3.14651E-002	1.47999E-003	1.98915E-003	-3.38508E-002	2.20854E-003
	7	7	4.98324E-002	-4.07135E-002	0.00000E+000	-2.02885E-003	-4.03713E-001	3.57945E-002	2.97228E+001	11	...........	5.95106E-002	-4.30431E-003	5.74851E-001	6.15474E-001	-2.89506E-002	-3.89183E-002	6.61963E-001	-4.32787E-002	-2.42288E-003	1.75243E-004	-2.34042E-002	-2.50581E-002	1.17868E-003	1.58450E-003	-2.69508E-002	1.76203E-003
	8	8	4.98679E-002	-3.46567E-002	0.00000E+000	-1.72826E-003	-3.43484E-001	3.59568E-002	3.08700E+001	11	...........	5.97567E-002	-4.28167E-003	5.74939E-001	6.15484E-001	-2.89604E-002	-3.88899E-002	6.61828E-001	-4.31831E-002	-2.07097E-003	1.48389E-004	-1.99255E-002	-2.13307E-002	1.00367E-003	1.34780E-003	-2.29368E-002	1.49658E-003
	9	9	4.98836E-002	-3.05530E-002	0.00000E+000	-1.52409E-003	-3.02692E-001	3.59146E-002	3.11603E+001	11	...........	5.96735E-002	-4.30556E-003	5.75058E-001	6.15543E-001	-2.89386E-002	-3.89024E-002	6.61845E-001	-4.31089E-002	-1.82320E-003	1.31547E-004	-1.75697E-002	-1.88067E-002	8.84160E-004	1.18858E-003	-2.02213E-002	1.31710E-003
	10	10	4.98979E-002	-2.77149E-002	0.00000E+000	-1.38291E-003	-2.74482E-001	3.60746E-002	3.16395E+001	11	...........	5.99692E-002	-4.31986E-003	5.75205E-001	6.15674E-001	-2.89439E-002	-3.88812E-002	6.61904E-001	-4.31456E-002	-1.66204E-003	1.19725E-004	-1.59418E-002	-1.70633E-002	8.02177E-004	1.07759E-003	-1.83446E-002	1.19577E-003
	11	11	4.99065E-002	-2.54670E-002	0.00000E+000	-1.27097E-003	-2.52123E-001	3.59050E-002	3.10396E+001	11	...........	5.96747E-002	-4.39750E-003	5.75190E-001	6.15700E-001	-2.89518E-002	-3.88799E-002	6.61866E-001	-4.31765E-002	-1.51973E-003	1.11991E-004	-1.46483E-002	-1.56800E-002	7.37314E-004	9.90152E-004	-1.68557E-002	1.09957E-003
	12	12	4.99163E-002	-2.39587E-002	0.00000E+000	-1.19593E-003	-2.37128E-001	3.61749E-002	3.15239E+001	11	...........	6.01407E-002	-4.29708E-003	5.75213E-001	6.15600E-001	-2.89417E-002	-3.88856E-002	6.61998E-001	-4.32108E-002	-1.44089E-003	1.02953E-004	-1.37814E-002	-1.47490E-002	6.93405E-004	9.31648E-004	-1.58606E-002	1.03528E-003
	13	13	4.99091E-002	-2.26941E-002	0.00000E+000	-1.13264E-003	-2.24546E-001	3.60120E-002	3.13069E+001	11	...........	5.98596E-002	-4.36986E-003	5.75109E-001	6.15484E-001	-2.89244E-002	-3.88869E-002	6.61955E-001	-4.32192E-002	-1.35846E-003	9.91699E-005	-1.30516E-002	-1.39678E-002	6.56413E-004	8.82503E-004	-1.50224E-002	9.80819E-004
	14	14	4.99209E-002	-2.17726E-002	0.00000E+000	-1.08691E-003	-2.15382E-001	3.61052E-002	3.20037E+001	11	...........	6.00033E-002	-4.49403E-003	5.74998E-001	6.15367E-001	-2.89061E-002	-3.89256E-002	6.62030E-001	-4.32931E-002	-1.30643E-003	9.78465E-005	-1.25192E-002	-1.33981E-002	6.29360E-004	8.47509E-004	-1.44141E-002	9.42600E-004
	15	15	4.99206E-002	-2.09345E-002	0.00000E+000	-1.04506E-003	-2.07059E-001	3.61708E-002	3.17075E+001	11	...........	6.01389E-002	-4.49931E-003	5.74967E-001	6.15350E-001	-2.88978E-002	-3.88892E-002	6.62147E-001	-4.32421E-002	-1.25898E-003	9.41906E-005	-1.20366E-002	-1.28820E-002	6.04960E-004	8.14124E-004	-1.38617E-002	9.05250E-004
	16	16	4.99197E-002	-2.01840E-002	0.00000E+000	-1.00758E-003	-1.99599E-001	3.61761E-002	3.15019E+001	11	...........	6.01322E-002	-4.41056E-003	5.74787E-001	6.15470E-001	-2.89133E-002	-3.89056E-002	6.61999E-001	-4.32175E-002	-1.21371E-003	8.90225E-005	-1.16015E-002	-1.24226E-002	5.83586E-004	7.85268E-004	-1.33618E-002	8.72300E-004
	17	17	4.99276E-002	-1.95859E-002	0.00000E+000	-9.77876E-004	-1.93633E-001	3.61643E-002	3.20997E+001	11	...........	6.01049E-002	-4.37944E-003	5.74730E-001	6.15631E-001	-2.89161E-002	-3.88879E-002	6.62102E-001	-4.33006E-002	-1.17721E-003	8.57753E-005	-1.12566E-002	-1.20577E-002	5.66348E-004	7.61654E-004	-1.29678E-002	8.48080E-004
	18	18	4.99231E-002	-1.91289E-002	0.00000E+000	-9.54976E-004	-1.89103E-001	3.61193E-002	3.20117E+001	11	...........	6.00435E-002	-4.30139E-003	5.74753E-001	6.15532E-001	-2.89367E-002	-3.88906E-002	6.62133E-001	-4.33146E-002	-1.14857E-003	8.22809E-005	-1.09944E-002	-1.17745E-002	5.53527E-004	7.43934E-004	-1.26659E-002	8.28561E-004
	19	19	4.99241E-002	-1.85963E-002	0.00000E+000	-9.28403E-004	-1.83810E-001	3.63392E-002	3.19342E+001	11	...........	6.03787E-002	-4.29972E-003	5.74823E-001	6.15484E-001	-2.89287E-002	-3.88789E-002	6.62110E-001	-4.33149E-002	-1.12282E-003	7.99589E-005	-1.06896E-002	-1.14457E-002	5.37967E-004	7.23003E-004	-1.23128E-002	8.05495E-004
	20	20	4.99234E-002	-1.81080E-002	0.00000E+000	-9.04014E-004	-1.78954E-001	3.60678E-002	3.16454E+001	11	...........	6.01201E-002	-4.28472E-003	5.74621E-001	6.15597E-001	-2.89486E-002	-3.88943E-002	6.62154E-001	-4.32532E-002	-1.08866E-003	7.75878E-005	-1.04052E-002	-1.11472E-002	5.24202E-004	7.04298E-004	-1.19903E-002	7.83229E-004
	21	21	4.99272E-002	-1.78612E-002	0.00000E+000	-8.91759E-004	-1.76501E-001	3.62285E-002	3.28296E+001	11	...........	6.04674E-002	-4.25347E-003	5.74668E-001	6.15574E-001	-2.89382E-002	-3.88850E-002	6.62217E-001	-4.32894E-002	-1.08002E-003	7.59720E-005	-1.02643E-002	-1.09949E-002	5.16870E-004	6.94532E-004	-1.18280E-002	7.73201E-004
	22	22	4.99247E-002	-1.75425E-002	0.00000E+000	-8.75804E-004	-1.73324E-001	3.61573E-002	3.27573E+001	11	...........	6.03506E-002	-4.32806E-003	5.74506E-001	6.15646E-001	-2.89397E-002	-3.88846E-002	6.62141E-001	-4.33056E-002	-1.05870E-003	7.59248E-005	-1.00783E-002	-1.07999E-002	5.07674E-004	6.82132E-004	-1.16156E-002	7.59687E-004
	23	23	4.99235E-002	-1.71212E-002	0.00000E+000	-8.54751E-004	-1.69124E-001	3.61713E-002	3.21912E+001	11	...........	6.03881E-002	-4.29361E-003	5.74454E-001	6.15606E-001	-2.89375E-002	-3.88615E-002	6.62082E-001	-4.33117E-002	-1.03392E-003	7.35119E-005	-9.83536E-003	-1.05399E-002	4.95445E-004	6.65357E-004	-1.13357E-002	7.41549E-004
	24	24	4.99293E-002	-1.66843E-002	0.00000E+000	-8.33034E-004	-1.64802E-001	3.61413E-002	3.24365E+001	11	...........	6.03172E-002	-4.38500E-003	5.74346E-001	6.15661E-001	-2.89443E-002	-3.88865E-002	6.62045E-001	-4.32925E-002	-1.00635E-003	7.31605E-005	-9.58255E-003	-1.02718E-002	4.82914E-004	6.48793E-004	-1.10457E-002	7.22304E-004
	25	25	4.99284E-002	-1.65115E-002	0.00000E+000	-8.24393E-004	-1.63085E-001	3.61700E-002	3.25230E+001	11	...........	6.03801E-002	-4.36486E-003	5.74178E-001	6.15652E-001	-2.89447E-002	-3.89029E-002	6.62175E-001	-4.32582E-002	-9.96968E-004	7.20705E-005	-9.48055E-003	-1.01653E-002	4.77921E-004	6.42346E-004	-1.09335E-002	7.14258E-004
	26	26	4.99274E-002	-1.63043E-002	0.00000E+000	-8.14032E-004	-1.61022E-001	3.62587E-002	3.28150E+001	11	...........	6.05083E-002	-4.31014E-003	5.74237E-001	6.15563E-001	-2.89396E-002	-3.89251E-002	6.62117E-001	-4.32386E-002	-9.86547E-004	7.02739E-005	-9.36254E-003	-1.00363E-002	4.71840E-004	6.34648E-004	-1.07954E-002	7.04976E-004
	27	27	4.99253E-002	-1.58344E-002	0.00000E+000	-7.90538E-004	-1.56338E-001	3.61895E-002	3.24786E+001	11	...........	6.03975E-002	-4.22306E-003	5.74270E-001	6.15577E-001	-2.89356E-002	-3.89350E-002	6.62160E-001	-4.32186E-002	-9.56359E-004	6.68696E-005	-9.09323E-003	-9.74730E-003	4.58177E-004	6.16513E-004	-1.04849E-002	6.84341E-004
	28	28	4.99281E-002	-1.54924E-002	0.00000E+000	-7.73507E-004	-1.52936E-001	3.61081E-002	3.15622E+001	11	...........	6.02654E-002	-4.20208E-003	5.74345E-001	6.15444E-001	-2.89508E-002	-3.89682E-002	6.62197E-001	-4.31774E-002	-9.33658E-004	6.51005E-005	-8.89800E-003	-9.53472E-003	4.48519E-004	6.03712E-004	-1.02590E-002	6.68922E-004
	29	29	4.99278E-002	-1.54376E-002	0.00000E+000	-7.70767E-004	-1.52393E-001	3.63817E-002	3.29107E+001	11	...........	6.07390E-002	-4.11500E-003	5.74533E-001	6.15453E-001	-2.89637E-002	-3.89726E-002	6.62086E-001	-4.31890E-002	-9.37665E-004	6.35258E-005	-8.86942E-003	-9.50112E-003	4.47131E-004	6.01644E-004	-1.02210E-002	6.66735E-004
	30	30	4.99260E-002	-1.51932E-002	0.00000E+000	-7.58537E-004	-1.49963E-001	3.63055E-002	3.31001E+001	11	...........	6.06149E-002	-4.15028E-003	5.74706E-001	6.15439E-001	-2.89599E-002	-3.89757E-002	6.62145E-001	-4.32068E-002	-9.20936E-004	6.30561E-005	-8.73165E-003	-9.35051E-003	4.39994E-004	5.92167E-004	-1.00601E-002	6.56451E-004
	31	31	4.99261E-002	-1.48378E-002	0.00000E+000	-7.40791E-004	-1.46418E-001	3.62756E-002	3.26554E+001	11	...........	6.05632E-002	-4.28153E-003	5.74666E-001	6.15493E-001	-2.89554E-002	-3.89676E-002	6.62150E-001	-4.32599E-002	-8.98622E-004	6.35283E-005	-8.52675E-003	-9.13254E-003	4.29633E-004	5.78192E-004	-9.82483E-003	6.41879E-004
	32	32	4.99268E-002	-1.45033E-002	0.00000E+000	-7.24105E-004	-1.43081E-001	3.63097E-002	3.18465E+001	11	...........	6.05994E-002	-4.25528E-003	5.74843E-001	6.15561E-001	-2.89771E-002	-3.89621E-002	6.62115E-001	-4.32451E-002	-8.78893E-004	6.17157E-005	-8.33713E-003	-8.92768E-003	4.20264E-004	5.65080E-004	-9.60286E-003	6.27198E-004
	33	33	4.99318E-002	-1.43466E-002	0.00000E+000	-7.16350E-004	-1.41521E-001	3.62378E-002	3.24944E+001	11	...........	6.04922E-002	-4.20972E-003	5.75005E-001	6.15573E-001	-2.89579E-002	-3.89407E-002	6.62240E-001	-4.33064E-002	-8.67856E-004	6.03950E-005	-8.24934E-003	-8.83136E-003	4.15447E-004	5.58665E-004	-9.50087E-003	6.21298E-004
	34	34	4.99269E-002	-1.42613E-002	0.00000E+000	-7.12023E-004	-1.40677E-001	3.63327E-002	3.31675E+001	11	...........	6.06331E-002	-4.26194E-003	5.75093E-001	6.15494E-001	-2.89579E-002	-3.89140E-002	6.62234E-001	-4.32778E-002	-8.64706E-004	6.07808E-005	-8.20157E-003	-8.77774E-003	4.12977E-004	5.54964E-004	-9.44431E-003	6.17197E-004
	35	35	4.99268E-002	-1.40459E-002	0.00000E+000	-7.01264E-004	-1.38560E-001	3.63074E-002	3.29430E+001	11	...........	6.05943E-002	-4.39278E-003	5.75153E-001	6.15542E-001	-2.89824E-002	-3.89306E-002	6.62087E-001	-4.31512E-002	-8.51099E-004	6.17004E-005	-8.07852E-003	-8.64582E-003	4.07082E-004	5.46813E-004	-9.29959E-003	6.06097E-004
	36	36	4.99259E-002	-1.36658E-002	0.00000E+000	-6.82276E-004	-1.34773E-001	3.63451E-002	3.23581E+001	11	...........	6.06608E-002	-4.43153E-003	5.75203E-001	6.15614E-001	-2.89576E-002	-3.89179E-002	6.62072E-001	-4.31722E-002	-8.28978E-004	6.05603E-005	-7.86060E-003	-8.41286E-003	3.95729E-004	5.31844E-004	-9.04773E-003	5.89982E-004
	37	37	4.99293E-002	-1.35297E-002	0.00000E+000	-6.75529E-004	-1.33425E-001	3.63490E-002	3.21963E+001	11	...........	6.06596E-002	-4.38903E-003	5.75129E-001	6.15473E-001	-2.89890E-002	-3.88983E-002	6.61931E-001	-4.32118E-002	-8.20707E-004	5.93823E-005	-7.78133E-003	-8.32717E-003	3.92213E-004	5.26283E-004	-8.95574E-003	5.84643E-004
	38	38	4.99303E-002	-1.34772E-002	0.00000E+000	-6.72919E-004	-1.32904E-001	3.64214E-002	3.28801E+001	11	...........	6.07939E-002	-4.34458E-003	5.75057E-001	6.15384E-001	-2.89751E-002	-3.88882E-002	6.61954E-001	-4.32357E-002	-8.19329E-004	5.85526E-005	-7.75013E-003	-8.29362E-003	3.90503E-004	5.24102E-004	-8.92126E-003	5.82694E-004
	39	39	4.99253E-002	-1.32047E-002	0.00000E+000	-6.59247E-004	-1.30180E-001	3.62992E-002	3.27513E+001	11	...........	6.05892E-002	-4.15986E-003	5.74874E-001	6.15441E-001	-2.89528E-002	-3.88965E-002	6.62015E-001	-4.30987E-002	-8.00060E-004	5.49296E-005	-7.59102E-003	-8.12669E-003	3.82312E-004	5.13616E-004	-8.74168E-003	5.69105E-004
	40	40	4.99279E-002	-1.30801E-002	0.00000E+000	-6.53060E-004	-1.28950E-001	3.65095E-002	3.32155E+001	11	...........	6.09507E-002	-4.16764E-003	5.74889E-001	6.15430E-001	-2.89675E-002	-3.88986E-002	6.62153E-001	-4.32154E-002	-7.97240E-004	5.45130E-005	-7.51960E-003	-8.04988E-003	3.78897E-004	5.08797E-004	-8.66101E-003	5.65261E-004
	41	41	4.99249E-002	-1.26789E-002	0.00000E+000	-6.32990E-004	-1.24967E-001	3.62788E-002	3.14592E+001	11	...........	6.05469E-002	-4.29806E-003	5.75001E-001	6.15426E-001	-2.89660E-002	-3.88547E-002	6.62022E-001	-4.31560E-002	-7.67666E-004	5.44944E-005	-7.29036E-003	-7.80290E-003	3.67255E-004	4.92633E-004	-8.39368E-003	5.47168E-004
	42	42	4.99342E-002	-1.26088E-002	0.00000E+000	-6.29612E-004	-1.24261E-001	3.64869E-002	3.25610E+001	11	...........	6.09010E-002	-4.31125E-003	5.75136E-001	6.15405E-001	-2.89507E-002	-3.88329E-002	6.62000E-001	-4.32164E-002	-7.67891E-004	5.43599E-005	-7.25179E-003	-7.75955E-003	3.65035E-004	4.89638E-004	-8.34705E-003	5.44909E-004
	43	43	4.99284E-002	-1.25634E-002	0.00000E+000	-6.27270E-004	-1.23809E-001	3.64975E-002	3.31821E+001	11	...........	6.09062E-002	-4.23833E-003	5.75286E-001	6.15400E-001	-2.89921E-002	-3.88590E-002	6.62022E-001	-4.32810E-002	-7.65190E-004	5.32479E-005	-7.22755E-003	-7.73152E-003	3.64239E-004	4.88201E-004	-8.31724E-003	5.43756E-004
	44	44	4.99256E-002	-1.23052E-002	0.00000E+000	-6.14344E-004	-1.21237E-001	3.64313E-002	3.28119E+001	11	...........	6.07844E-002	-4.42611E-003	5.75312E-001	6.15485E-001	-2.89585E-002	-3.88387E-002	6.62070E-001	-4.32390E-002	-7.47964E-004	5.44641E-005	-7.07932E-003	-7.57365E-003	3.56339E-004	4.77918E-004	-8.14690E-003	5.32064E-004
	45	45	4.99292E-002	-1.20175E-002	0.00000E+000	-6.00022E-004	-1.18365E-001	3.64498E-002	3.20826E+001	11	...........	6.08149E-002	-4.35306E-003	5.75352E-001	6.15412E-001	-2.89515E-002	-3.88178E-002	6.61963E-001	-4.32886E-002	-7.30840E-004	5.23127E-005	-6.91428E-003	-7.39570E-003	3.47924E-004	4.66491E-004	-7.95512E-003	5.20219E-004
	46	46	4.99299E-002	-1.19114E-002	0.00000E+000	-5.94735E-004	-1.17308E-001	3.63994E-002	3.31257E+001	11	...........	6.07568E-002	-4.35417E-003	5.75413E-001	6.15364E-001	-2.89639E-002	-3.88107E-002	6.61968E-001	-4.33332E-002	-7.23700E-004	5.18643E-005	-6.85399E-003	-7.32986E-003	3.45001E-004	4.62290E-004	-7.88498E-003	5.16160E-004
	47	47	4.99279E-002	-1.18875E-002	0.00000E+000	-5.93515E-004	-1.17068E-001	3.64851E-002	3.30149E+001	11	...........	6.09294E-002	-4.45431E-003	5.75422E-001	6.15305E-001	-2.89369E-002	-3.88140E-002	6.62049E-001	-4.32275E-002	-7.24296E-004	5.29503E-005	-6.84031E-003	-7.31441E-003	3.43987E-004	4.61400E-004	-7.87008E-003	5.13865E-004
	48	48	4.99240E-002	-1.16693E-002	0.00000E+000	-5.82579E-004	-1.14893E-001	3.65389E-002	3.29307E+001	11	...........	6.09783E-002	-4.44528E-003	5.75408E-001	6.15124E-001	-2.89399E-002	-3.88228E-002	6.62052E-001	-4.32369E-002	-7.11576E-004	5.18734E-005	-6.71463E-003	-7.17808E-003	3.37709E-004	4.53036E-004	-7.72570E-003	5.04546E-004
	49	49	4.99330E-002	-1.14791E-002	0.00000E+000	-5.73184E-004	-1.13039E-001	3.65272E-002	3.29776E+001	11	...........	6.09907E-002	-4.45319E-003	5.75481E-001	6.15181E-001	-2.89681E-002	-3.88489E-002	6.61967E-001	-4.32911E-002	-7.00116E-004	5.11185E-005	-6.60598E-003	-7.06170E-003	3.32526E-004	4.45949E-004	-7.59876E-003	4.96942E-004
	50	50	4.99297E-002	-1.13452E-002	0.00000E+000	-5.66462E-004	-1.11700E-001	3.63899E-002	3.33658E+001	11	...........	6.07543E-002	-4.38597E-003	5.75387E-001	6.15168E-001	-2.89603E-002	-3.88569E-002	6.62129E-001	-4.31907E-002	-6.89270E-004	4.97597E-005	-6.52788E-003	-6.97920E-003	3.28560E-004	4.40840E-004	-7.51199E-003	4.90007E-004
	51	51	4.99265E-002	-1.12610E-002	0.00000E+000	-5.62225E-004	-1.10867E-001	3.65072E-002	3.32762E+001	11	...........	6.09286E-002	-4.41250E-003	5.75422E-001	6.15219E-001	-2.89643E-002	-3.88399E-002	6.62121E-001	-4.31808E-002	-6.86120E-004	4.96894E-005	-6.47986E-003	-6.92801E-003	3.26168E-004	4.37377E-004	-7.45617E-003	4.86261E-004
	52	52	4.99293E-002	-1.10278E-002	0.00000E+000	-5.50608E-004	-1.08541E-001	3.65532E-002	3.30246E+001	11	...........	6.10121E-002	-4.31653E-003	5.75647E-001	6.14992E-001	-2.89793E-002	-3.88379E-002	6.62003E-001	-4.32487E-002	-6.72826E-004	4.76016E-005	-6.34809E-003	-6.78198E-003	3.19577E-004	4.28295E-004	-7.30040E-003	4.76937E-004
	53	53	4.99275E-002	-1.07996E-002	0.00000E+000	-5.39198E-004	-1.06266E-001	3.63730E-002	3.22018E+001	11	...........	6.06994E-002	-4.35778E-003	5.75741E-001	6.14970E-001	-2.89799E-002	-3.88574E-002	6.62092E-001	-4.33372E-002	-6.55532E-004	4.70624E-005	-6.21779E-003	-6.64145E-003	3.12972E-004	4.19645E-004	-7.15035E-003	4.68026E-004
	54	54	4.99319E-002	-1.08496E-002	0.00000E+000	-5.41743E-004	-1.06769E-001	3.66654E-002	3.35415E+001	11	...........	6.11983E-002	-4.32236E-003	5.75725E-001	6.15044E-001	-2.89758E-002	-3.88874E-002	6.62201E-001	-4.33326E-002	-6.63980E-004	4.68961E-005	-6.24641E-003	-6.67301E-003	3.14377E-004	4.21914E-004	-7.18464E-003	4.70144E-004
	55	55	4.99257E-002	-1.07026E-002	0.00000E+000	-5.34335E-004	-1.05301E-001	3.64810E-002	3.32824E+001	11	...........	6.08893E-002	-4.35361E-003	5.75745E-001	6.14963E-001	-2.89885E-002	-3.88829E-002	6.62139E-001	-4.32493E-002	-6.51674E-004	4.65950E-005	-6.16197E-003	-6.58170E-003	3.10252E-004	4.16148E-004	-7.08661E-003	4.62880E-004
	56	56	4.99293E-002	-1.04644E-002	0.00000E+000	-5.22480E-004	-1.02943E-001	3.65664E-002	3.23605E+001	11	...........	6.10310E-002	-4.27361E-003	5.75944E-001	6.14907E-001	-2.89521E-002	-3.89197E-002	6.62050E-001	-4.33283E-002	-6.38652E-004	4.47208E-005	-6.02691E-003	-6.43463E-003	3.02966E-004	4.07272E-004	-6.92796E-003	4.53405E-004
	57	57	4.99294E-002	-1.03343E-002	0.00000E+000	-5.15985E-004	-1.01673E-001	3.64744E-002	3.29776E+001	11	...........	6.08800E-002	-4.24792E-003	5.76108E-001	6.14861E-001	-2.89576E-002	-3.89121E-002	6.62005E-001	-4.32993E-002	-6.29152E-004	4.38992E-005	-5.95366E-003	-6.35416E-003	2.99257E-004	4.02129E-004	-6.84135E-003	4.47468E-004
	58	58	4.99289E-002	-1.03330E-002	0.00000E+000	-5.15916E-004	-1.01658E-001	3.66508E-002	3.34410E+001	11	...........	6.11811E-002	-4.37458E-003	5.76161E-001	6.14830E-001	-2.89806E-002	-3.89307E-002	6.62099E-001	-4.32279E-002	-6.32185E-004	4.52026E-005	-5.95347E-003	-6.35304E-003	2.99456E-004	4.02271E-004	-6.84147E-003	4.46674E-004
	59	59	4.99286E-002	-1.01620E-002	0.00000E+000	-5.07373E-004	-9.99660E-002	3.65441E-002	3.34180E+001	11	...........	6.09808E-002	-4.35292E-003	5.76012E-001	6.14801E-001	-2.90043E-002	-3.89278E-002	6.62153E-001	-4.32644E-002	-6.19686E-004	4.42342E-005	-5.85343E-003	-6.24759E-003	2.94741E-004	3.95583E-004	-6.72879E-003	4.39652E-004
	60	60	4.99289E-002	-1.00042E-002	0.00000E+000	-4.99499E-004	-9.83893E-002	3.65866E-002	3.30941E+001	11	...........	6.10642E-002	-4.32097E-003	5.75979E-001	6.14722E-001	-2.89939E-002	-3.89449E-002	6.62273E-001	-4.32947E-002	-6.10899E-004	4.32279E-005	-5.76221E-003	-6.14981E-003	2.90061E-004	3.89612E-004	-6.62552E-003	4.33129E-004
	61	61	4.99282E-002	-9.80542E-003	0.00000E+000	-4.89567E-004	-9.64127E-002	3.65050E-002	3.27808E+001	11	...........	6.09040E-002	-4.35028E-003	5.76032E-001	6.14779E-001	-2.89883E-002	-3.89333E-002	6.62132E-001	-4.32424E-002	-5.97190E-004	4.26563E-005	-5.64823E-003	-6.02816E-003	2.84243E-004	3.81758E-004	-6.49248E-003	4.24009E-004
	62	62	4.99322E-002	-9.80868E-003	0.00000E+000	-4.89769E-004	-9.64440E-002	3.66783E-002	3.36561E+001	11	...........	6.12333E-002	-4.47847E-003	5.75989E-001	6.14743E-001	-2.90057E-002	-3.89515E-002	6.62156E-001	-4.32337E-002	-6.00618E-004	4.39279E-005	-5.64969E-003	-6.02981E-003	2.84508E-004	3.82063E-004	-6.49487E-003	4.24066E-004
	63	63	4.99285E-002	-9.70081E-003	0.00000E+000	-4.84347E-004	-9.53680E-002	3.65939E-002	3.34037E+001	11	...........	6.10851E-002	-4.45722E-003	5.75976E-001	6.14657E-001	-2.89954E-002	-3.89801E-002	6.62231E-001	-4.33149E-002	-5.92575E-004	4.32387E-005	-5.58743E-003	-5.96267E-003	2.81279E-004	3.78139E-004	-6.42418E-003	4.20189E-004
	64	64	4.99290E-002	-9.56817E-003	0.00000E+000	-4.77729E-004	-9.40493E-002	3.66191E-002	3.34762E+001	11	...........	6.11331E-002	-4.47083E-003	5.75820E-001	6.14652E-001	-2.90114E-002	-3.89729E-002	6.62141E-001	-4.33349E-002	-5.84931E-004	4.27777E-005	-5.50955E-003	-5.88109E-003	2.77586E-004	3.72899E-004	-6.33548E-003	4.14635E-004
	65	65	4.99283E-002	-9.37583E-003	0.00000E+000	-4.68119E-004	-9.21260E-002	3.66051E-002	3.30283E+001	11	...........	6.11012E-002	-4.30597E-003	5.75752E-001	6.14440E-001	-2.90132E-002	-3.89900E-002	6.62111E-001	-4.33207E-002	-5.72875E-004	4.03720E-005	-5.39815E-003	-5.76089E-003	2.72023E-004	3.65563E-004	-6.20784E-003	4.06167E-004
	66	66	4.99289E-002	-9.26927E-003	0.00000E+000	-4.62805E-004	-9.10553E-002	3.65422E-002	3.33126E+001	11	...........	6.10026E-002	-4.23375E-003	5.75731E-001	6.14529E-001	-2.89792E-002	-3.89878E-002	6.62126E-001	-4.33587E-002	-5.65450E-004	3.92438E-005	-5.33661E-003	-5.69624E-003	2.68616E-004	3.61388E-004	-6.13743E-003	4.01904E-004
	67	67	4.99289E-002	-9.23700E-003	0.00000E+000	-4.61193E-004	-9.07400E-002	3.67214E-002	3.33633E+001	11	...........	6.12747E-002	-4.40903E-003	5.75795E-001	6.14591E-001	-2.90008E-002	-3.89953E-002	6.62143E-001	-4.33225E-002	-5.65994E-004	4.07262E-005	-5.31862E-003	-5.67697E-003	2.67881E-004	3.60199E-004	-6.11621E-003	4.00170E-004
	68	68	4.99300E-002	-9.10337E-003	0.00000E+000	-4.54532E-004	-8.94007E-002	3.66578E-002	3.38018E+001	11	...........	6.11937E-002	-4.32278E-003	5.75751E-001	6.14671E-001	-2.90218E-002	-3.90181E-002	6.62147E-001	-4.34389E-002	-5.57069E-004	3.93519E-005	-5.24127E-003	-5.59558E-003	2.64196E-004	3.55196E-004	-6.02777E-003	3.95440E-004
	69	69	4.99265E-002	-9.00767E-003	0.00000E+000	-4.49722E-004	-8.84673E-002	3.66735E-002	3.34488E+001	11	...........	6.12190E-002	-4.20444E-003	5.75747E-001	6.14657E-001	-2.90164E-002	-3.90382E-002	6.62151E-001	-4.33340E-002	-5.51441E-004	3.78723E-005	-5.18614E-003	-5.53663E-003	2.61370E-004	3.51643E-004	-5.96444E-003	3.90339E-004
	70	70	4.99298E-002	-8.80004E-003	0.00000E+000	-4.39384E-004	-8.64207E-002	3.66082E-002	3.25050E+001	11	...........	6.11029E-002	-4.30264E-003	5.75891E-001	6.14698E-001	-2.90228E-002	-3.90089E-002	6.62155E-001	-4.33556E-002	-5.37708E-004	3.78634E-005	-5.06787E-003	-5.40937E-003	2.55402E-004	3.43280E-004	-5.82700E-003	3.81531E-004
	71	71	4.99320E-002	-8.77668E-003	0.00000E+000	-4.38237E-004	-8.61880E-002	3.66776E-002	3.37599E+001	11	...........	6.12315E-002	-4.28458E-003	5.75950E-001	6.14770E-001	-2.90183E-002	-3.89882E-002	6.62105E-001	-4.34529E-002	-5.37409E-004	3.76044E-005	-5.05493E-003	-5.39563E-003	2.54685E-004	3.42187E-004	-5.81109E-003	3.81372E-004
	72	72	4.99291E-002	-8.74347E-003	0.00000E+000	-4.36554E-004	-8.58580E-002	3.66385E-002	3.35932E+001	11	...........	6.11972E-002	-4.29486E-003	5.75927E-001	6.14810E-001	-2.90349E-002	-3.89876E-002	6.62065E-001	-4.33726E-002	-5.35076E-004	3.75520E-005	-5.03561E-003	-5.37557E-003	2.53866E-004	3.40887E-004	-5.78875E-003	3.79228E-004
	73	73	4.99286E-002	-8.61260E-003	0.00000E+000	-4.30015E-004	-8.45613E-002	3.66911E-002	3.38239E+001	11	...........	6.12371E-002	-4.27986E-003	5.75849E-001	6.14859E-001	-2.90101E-002	-3.89662E-002	6.62185E-001	-4.34567E-002	-5.27411E-004	3.68607E-005	-4.95956E-003	-5.29553E-003	2.49853E-004	3.35601E-004	-5.70314E-003	3.74275E-004
	74	74	4.99278E-002	-8.46571E-003	0.00000E+000	-4.22675E-004	-8.30860E-002	3.67218E-002	3.30064E+001	11	...........	6.13046E-002	-4.33611E-003	5.75746E-001	6.14759E-001	-2.89815E-002	-3.90079E-002	6.62189E-001	-4.33664E-002	-5.18987E-004	3.67083E-005	-4.87410E-003	-5.20437E-003	2.45349E-004	3.30230E-004	-5.60590E-003	3.67127E-004
	75	75	4.99315E-002	-8.34635E-003	0.00000E+000	-4.16746E-004	-8.19060E-002	3.66301E-002	3.33734E+001	11	...........	6.11254E-002	-4.27403E-003	5.75568E-001	6.14865E-001	-2.89962E-002	-3.90265E-002	6.62087E-001	-4.33008E-002	-5.10174E-004	3.56725E-005	-4.80389E-003	-5.13188E-003	2.42013E-004	3.25729E-004	-5.52601E-003	3.61404E-004
	76	76	4.99299E-002	-8.33126E-003	0.00000E+000	-4.15979E-004	-8.17587E-002	3.66517E-002	3.32496E+001	11	...........	6.11811E-002	-4.32514E-003	5.75451E-001	6.14812E-001	-2.89831E-002	-3.90214E-002	6.62044E-001	-4.33050E-002	-5.09715E-004	3.60338E-005	-4.79423E-003	-5.12216E-003	2.41465E-004	3.25097E-004	-5.51565E-003	3.60785E-004
	77	77	4.99287E-002	-8.18251E-003	0.00000E+000	-4.08542E-004	-8.02733E-002	3.66316E-002	3.32751E+001	11	...........	6.11465E-002	-4.23486E-003	5.75504E-001	6.14972E-001	-2.89858E-002	-3.89925E-002	6.62053E-001	-4.33690E-002	-5.00332E-004	3.46518E-005	-4.70906E-003	-5.03202E-003	2.37177E-004	3.19056E-004	-5.41725E-003	3.54867E-004
	78	78	4.99302E-002	-8.14155E-003	0.00000E+000	-4.06509E-004	-7.98620E-002	3.68713E-002	3.40718E+001	11	...........	6.15494E-002	-4.25361E-003	5.75589E-001	6.15153E-001	-2.90037E-002	-3.90115E-002	6.62057E-001	-4.33501E-002	-5.01108E-004	3.46310E-005	-4.68618E-003	-5.00830E-003	2.36135E-004	3.17614E-004	-5.39017E-003	3.52937E-004
	79	79	4.99291E-002	-8.02022E-003	0.00000E+000	-4.00442E-004	-7.86560E-002	3.66253E-002	3.32753E+001	11	...........	6.11347E-002	-4.32472E-003	5.75745E-001	6.15069E-001	-2.89942E-002	-3.90103E-002	6.62189E-001	-4.32878E-002	-4.90314E-004	3.46852E-005	-4.61760E-003	-4.93298E-003	2.32540E-004	3.12871E-004	-5.31090E-003	3.47177E-004
	80	80	4.99291E-002	-7.90989E-003	0.00000E+000	-3.94934E-004	-7.75567E-002	3.67049E-002	3.35332E+001	11	...........	6.12649E-002	-4.22458E-003	5.75798E-001	6.14942E-001	-2.90128E-002	-3.90310E-002	6.62157E-001	-4.32112E-002	-4.84598E-004	3.34160E-005	-4.55450E-003	-4.86412E-003	2.29488E-004	3.08731E-004	-5.23759E-003	3.41796E-004
	81	81	4.99297E-002	-7.84012E-003	0.00000E+000	-3.91454E-004	-7.68740E-002	3.67158E-002	3.35881E+001	11	...........	6.12825E-002	-4.28236E-003	5.75933E-001	6.15107E-001	-2.90386E-002	-3.90281E-002	6.62110E-001	-4.32076E-002	-4.80462E-004	3.35742E-005	-4.51538E-003	-4.82251E-003	2.27666E-004	3.05985E-004	-5.19102E-003	3.38753E-004
	82	82	4.99272E-002	-7.77127E-003	0.00000E+000	-3.87998E-004	-7.61973E-002	3.67613E-002	3.33312E+001	11	...........	6.13575E-002	-4.33472E-003	5.76121E-001	6.15287E-001	-2.90501E-002	-3.90001E-002	6.62082E-001	-4.32772E-002	-4.76825E-004	3.36863E-005	-4.47719E-003	-4.78156E-003	2.25756E-004	3.03080E-004	-5.14522E-003	3.36319E-004
	83	83	4.99304E-002	-7.65173E-003	0.00000E+000	-3.82054E-004	-7.50027E-002	3.67188E-002	3.31843E+001	11	...........	6.12847E-002	-4.21097E-003	5.76268E-001	6.15296E-001	-2.90722E-002	-3.89904E-002	6.62109E-001	-4.32710E-002	-4.68934E-004	3.22212E-005	-4.40944E-003	-4.70808E-003	2.22453E-004	2.98344E-004	-5.06628E-003	3.31098E-004
	84	84	4.99316E-002	-7.60609E-003	0.00000E+000	-3.79784E-004	-7.45480E-002	3.66844E-002	3.41787E+001	11	...........	6.12306E-002	-4.21250E-003	5.76232E-001	6.15278E-001	-2.90383E-002	-3.90040E-002	6.62080E-001	-4.32490E-002	-4.65725E-004	3.20406E-005	-4.38287E-003	-4.67986E-003	2.20868E-004	2.96668E-004	-5.03584E-003	3.28956E-004
	85	85	4.99278E-002	-7.55029E-003	0.00000E+000	-3.76969E-004	-7.39920E-002	3.67605E-002	3.36513E+001	11	...........	6.13503E-002	-4.24944E-003	5.76280E-001	6.15151E-001	-2.90350E-002	-3.89719E-002	6.62169E-001	-4.33806E-002	-4.63212E-004	3.20845E-005	-4.35108E-003	-4.64457E-003	2.19223E-004	2.94250E-004	-4.99957E-003	3.27536E-004
	86	86	4.99302E-002	-7.40423E-003	0.00000E+000	-3.69695E-004	-7.25360E-002	3.67567E-002	3.34422E+001	11	...........	6.13375E-002	-4.37903E-003	5.76315E-001	6.15284E-001	-2.90378E-002	-3.89454E-002	6.62221E-001	-4.33740E-002	-4.54157E-004	3.24233E-005	-4.26717E-003	-4.55570E-003	2.15002E-004	2.88361E-004	-4.90324E-003	3.21151E-004
	87	87	4.99285E-002	-7.33634E-003	0.00000E+000	-3.66293E-004	-7.18600E-002	3.66967E-002	3.29679E+001	11	...........	6.12389E-002	-4.48750E-003	5.76207E-001	6.15229E-001	-2.90689E-002	-3.89332E-002	6.62095E-001	-4.32606E-002	-4.49270E-004	3.29218E-005	-4.22725E-003	-4.51353E-003	2.13259E-004	2.85627E-004	-4.85736E-003	3.17374E-004
	88	88	4.99318E-002	-7.30467E-003	0.00000E+000	-3.64735E-004	-7.15413E-002	3.67732E-002	3.38726E+001	11	...........	6.13856E-002	-4.45528E-003	5.76195E-001	6.15068E-001	-2.90490E-002	-3.89275E-002	6.62203E-001	-4.32922E-002	-4.48401E-004	3.25443E-005	-4.20891E-003	-4.49287E-003	2.12194E-004	2.84353E-004	-4.83718E-003	3.16235E-004
	89	89	4.99291E-002	-7.25221E-003	0.00000E+000	-3.62096E-004	-7.10200E-002	3.67916E-002	3.40362E+001	11	...........	6.14108E-002	-4.40667E-003	5.76341E-001	6.15072E-001	-2.90804E-002	-3.89207E-002	6.62172E-001	-4.32346E-002	-4.45364E-004	3.19581E-005	-4.17975E-003	-4.46063E-003	2.10897E-004	2.82261E-004	-4.80221E-003	3.13546E-004
	90	90	4.99285E-002	-7.08638E-003	0.00000E+000	-3.53813E-004	-6.93667E-002	3.67185E-002	3.30357E+001	11	...........	6.12926E-002	-4.22361E-003	5.76335E-001	6.15152E-001	-2.90456E-002	-3.89121E-002	6.62105E-001	-4.31996E-002	-4.34343E-004	2.99301E-005	-4.08413E-003	-4.35920E-003	2.05828E-004	2.75746E-004	-4.69193E-003	3.06129E-004
	91	91	4.99304E-002	-6.99804E-003	0.00000E+000	-3.49415E-004	-6.84913E-002	3.67025E-002	3.27925E+001	11	...........	6.12721E-002	-4.15653E-003	5.76497E-001	6.15317E-001	-2.90400E-002	-3.89125E-002	6.62291E-001	-4.32749E-002	-4.28785E-004	2.90876E-005	-4.03435E-003	-4.30602E-003	2.03223E-004	2.72311E-004	-4.63474E-003	3.02839E-004
	92	92	4.99303E-002	-7.00705E-003	0.00000E+000	-3.49864E-004	-6.85767E-002	3.68341E-002	3.33365E+001	11	...........	6.14797E-002	-4.23153E-003	5.76576E-001	6.15371E-001	-2.90278E-002	-3.89262E-002	6.62283E-001	-4.32522E-002	-4.30792E-004	2.96505E-005	-4.04010E-003	-4.31193E-003	2.03399E-004	2.72758E-004	-4.64066E-003	3.03071E-004
	93	93	4.99291E-002	-6.93449E-003	0.00000E+000	-3.46233E-004	-6.78507E-002	3.68406E-002	3.38684E+001	11	...........	6.14969E-002	-4.26056E-003	5.76538E-001	6.15408E-001	-2.90329E-002	-3.89654E-002	6.62231E-001	-4.32633E-002	-4.26450E-004	2.95448E-005	-3.99799E-003	-4.26754E-003	2.01328E-004	2.70205E-004	-4.59223E-003	3.00009E-004
	94	94	4.99273E-002	-6.85184E-003	0.00000E+000	-3.42094E-004	-6.70213E-002	3.68664E-002	3.35618E+001	11	...........	6.15354E-002	-4.28667E-003	5.76489E-001	6.15387E-001	-2.90250E-002	-3.89599E-002	6.62284E-001	-4.33308E-002	-4.21631E-004	2.93716E-005	-3.95001E-003	-4.21653E-003	1.98875E-004	2.66947E-004	-4.53787E-003	2.96896E-004
	95	95	4.99303E-002	-6.71596E-003	0.00000E+000	-3.35330E-004	-6.56667E-002	3.67802E-002	3.29087E+001	11	...........	6.13897E-002	-4.31181E-003	5.76278E-001	6.15175E-001	-2.90237E-002	-3.89307E-002	6.62378E-001	-4.32810E-002	-4.12291E-004	2.89579E-005	-3.87026E-003	-4.13149E-003	1.94922E-004	2.61457E-004	-4.44850E-003	2.90673E-004
	96	96	4.99316E-002	-6.67364E-003	0.00000E+000	-3.33226E-004	-6.52487E-002	3.67689E-002	3.35925E+001	11	...........	6.13686E-002	-4.37708E-003	5.76289E-001	6.15176E-001	-2.90247E-002	-3.89176E-002	6.62335E-001	-4.33150E-002	-4.09552E-004	2.92111E-005	-3.84595E-003	-4.10546E-003	1.93700E-004	2.59722E-004	-4.42018E-003	2.89069E-004
	97	97	4.99284E-002	-6.65726E-003	0.00000E+000	-3.32386E-004	-6.50860E-002	3.68377E-002	3.37755E+001	11	...........	6.15115E-002	-4.47611E-003	5.76331E-001	6.15241E-001	-2.90185E-002	-3.89224E-002	6.62252E-001	-4.32503E-002	-4.09498E-004	2.97986E-005	-3.83678E-003	-4.09582E-003	1.93183E-004	2.59116E-004	-4.40878E-003	2.87928E-004
	98	98	4.99304E-002	-6.57714E-003	0.00000E+000	-3.28399E-004	-6.42753E-002	3.69073E-002	3.38740E+001	11	...........	6.15986E-002	-4.46847E-003	5.76377E-001	6.15064E-001	-2.90181E-002	-3.89343E-002	6.62227E-001	-4.32114E-002	-4.05142E-004	2.93897E-005	-3.79091E-003	-4.04536E-003	1.90856E-004	2.56076E-004	-4.35556E-003	2.84207E-004
	99	99	4.99296E-002	-6.47605E-003	0.00000E+000	-3.23347E-004	-6.32940E-002	3.67161E-002	3.37712E+001	11	...........	6.12774E-002	-4.36722E-003	5.76412E-001	6.15154E-001	-2.90236E-002	-3.89519E-002	6.62217E-001	-4.31864E-002	-3.96835E-004	2.82824E-005	-3.73287E-003	-3.98377E-003	1.87958E-004	2.52255E-004	-4.28855E-003	2.79677E-004
	100	100	4.99283E-002	-6.38676E-003	0.00000E+000	-3.18880E-004	-6.24260E-002	3.68706E-002	3.27065E+001	11	...........	6.15464E-002	-4.32583E-003	5.76356E-001	6.15178E-001	-2.90261E-002	-3.89585E-002	6.62185E-001	-4.32822E-002	-3.93082E-004	2.76281E-005	-3.68105E-003	-3.92900E-003	1.85383E-004	2.48819E-004	-4.22922E-003	2.76433E-004
	101	101	4.99321E-002	-6.34070E-003	0.00000E+000	-3.16604E-004	-6.19687E-002	3.68046E-002	3.37495E+001	11	...........	6.14264E-002	-4.23889E-003	5.76167E-001	6.15045E-001	-2.90262E-002	-3.89774E-002	6.62187E-001	-4.32879E-002	-3.89486E-004	2.68775E-005	-3.65330E-003	-3.89982E-003	1.84047E-004	2.47144E-004	-4.19873E-003	2.74476E-004
	102	102	4.99294E-002	-6.31825E-003	0.00000E+000	-3.15466E-004	-6.17427E-002	3.68879E-002	3.38411E+001	11	...........	6.15775E-002	-4.35708E-003	5.76173E-001	6.14980E-001	-2.90436E-002	-3.89511E-002	6.62145E-001	-4.32704E-002	-3.89062E-004	2.75291E-005	-3.64040E-003	-3.88560E-003	1.83505E-004	2.46103E-004	-4.18360E-003	2.73393E-004
	103	103	4.99296E-002	-6.24021E-003	0.00000E+000	-3.11571E-004	-6.09653E-002	3.68166E-002	3.34805E+001	11	...........	6.14597E-002	-4.48986E-003	5.76147E-001	6.14969E-001	-2.90311E-002	-3.89547E-002	6.62062E-001	-4.32425E-002	-3.83522E-004	2.80177E-005	-3.59528E-003	-3.83754E-003	1.81160E-004	2.43086E-004	-4.13141E-003	2.69842E-004
	104	104	4.99292E-002	-6.18083E-003	0.00000E+000	-3.08604E-004	-6.03780E-002	3.69586E-002	3.38718E+001	11	...........	6.17175E-002	-4.38833E-003	5.76210E-001	6.14916E-001	-2.90303E-002	-3.89849E-002	6.62004E-001	-4.32168E-002	-3.81466E-004	2.71236E-005	-3.56146E-003	-3.80069E-003	1.79431E-004	2.40959E-004	-4.09173E-003	2.67116E-004
	105	105	4.99290E-002	-6.03929E-003	0.00000E+000	-3.01536E-004	-5.89627E-002	3.66862E-002	3.26115E+001	11	...........	6.12537E-002	-4.41903E-003	5.76146E-001	6.15158E-001	-2.90306E-002	-3.89799E-002	6.62036E-001	-4.32821E-002	-3.69929E-004	2.66878E-005	-3.47951E-003	-3.71512E-003	1.75324E-004	2.35411E-004	-3.99822E-003	2.61393E-004
	106	106	4.99314E-002	-6.03814E-003	0.00000E+000	-3.01493E-004	-5.89580E-002	3.69847E-002	3.36710E+001	11	...........	6.17287E-002	-4.40028E-003	5.76087E-001	6.14970E-001	-2.90412E-002	-3.89796E-002	6.62007E-001	-4.33483E-002	-3.72727E-004	2.65695E-005	-3.47849E-003	-3.71327E-003	1.75355E-004	2.35364E-004	-3.99729E-003	2.61743E-004
	107	107	4.99301E-002	-6.04099E-003	0.00000E+000	-3.01627E-004	-5.89800E-002	3.69290E-002	3.38283E+001	11	...........	6.16610E-002	-4.38667E-003	5.76052E-001	6.15093E-001	-2.90604E-002	-3.89987E-002	6.62123E-001	-4.33067E-002	-3.72493E-004	2.64998E-005	-3.47992E-003	-3.71577E-003	1.75554E-004	2.35591E-004	-3.99987E-003	2.61615E-004
	108	108	4.99293E-002	-5.93507E-003	0.00000E+000	-2.96334E-004	-5.79260E-002	3.68324E-002	3.42740E+001	11	...........	6.15014E-002	-4.07417E-003	5.75989E-001	6.15107E-001	-2.90715E-002	-3.89861E-002	6.62060E-001	-4.32987E-002	-3.65015E-004	2.41805E-005	-3.41854E-003	-3.65071E-003	1.72542E-004	2.31385E-004	-3.92937E-003	2.56981E-004
	109	109	4.99301E-002	-5.87456E-003	0.00000E+000	-2.93318E-004	-5.73193E-002	3.69297E-002	3.36533E+001	11	...........	6.16321E-002	-4.09583E-003	5.75987E-001	6.15191E-001	-2.90547E-002	-3.89756E-002	6.62158E-001	-4.32799E-002	-3.62062E-004	2.40612E-005	-3.38367E-003	-3.61398E-003	1.70684E-004	2.28964E-004	-3.88989E-003	2.54250E-004
	110	110	4.99298E-002	-5.81178E-003	0.00000E+000	-2.90181E-004	-5.66993E-002	3.67861E-002	3.35559E+001	11	...........	6.14112E-002	-4.29292E-003	5.76264E-001	6.15282E-001	-2.90676E-002	-3.89593E-002	6.62237E-001	-4.32367E-002	-3.56908E-004	2.49495E-005	-3.34912E-003	-3.57588E-003	1.68935E-004	2.26423E-004	-3.84877E-003	2.51282E-004
	111	111	4.99306E-002	-5.80262E-003	0.00000E+000	-2.89729E-004	-5.66040E-002	3.70113E-002	3.39299E+001	11	...........	6.17712E-002	-4.34389E-003	5.76379E-001	6.15302E-001	-2.90401E-002	-3.89283E-002	6.62237E-001	-4.32537E-002	-3.58435E-004	2.52059E-005	-3.34451E-003	-3.57036E-003	1.68509E-004	2.25886E-004	-3.84271E-003	2.50985E-004
	112	112	4.99290E-002	-5.73054E-003	0.00000E+000	-2.86120E-004	-5.58907E-002	3.68925E-002	3.39952E+001	11	...........	6.15775E-002	-4.32083E-003	5.76073E-001	6.15348E-001	-2.90176E-002	-3.89078E-002	6.62148E-001	-4.32875E-002	-3.52872E-004	2.47607E-005	-3.30121E-003	-3.52627E-003	1.66287E-004	2.22962E-004	-3.79446E-003	2.48061E-004
	113	113	4.99299E-002	-5.65759E-003	0.00000E+000	-2.82483E-004	-5.51607E-002	3.68362E-002	3.38991E+001	11	...........	6.15036E-002	-4.33167E-003	5.75970E-001	6.15311E-001	-2.90043E-002	-3.88815E-002	6.62060E-001	-4.32544E-002	-3.47962E-004	2.45068E-005	-3.25860E-003	-3.48118E-003	1.64095E-004	2.19976E-004	-3.74567E-003	2.44716E-004
	114	114	4.99303E-002	-5.60732E-003	0.00000E+000	-2.79975E-004	-5.46567E-002	3.70118E-002	3.37542E+001	11	...........	6.17906E-002	-4.43569E-003	5.76068E-001	6.15334E-001	-2.90164E-002	-3.88776E-002	6.62176E-001	-4.32467E-002	-3.46479E-004	2.48723E-005	-3.23019E-003	-3.45037E-003	1.62704E-004	2.17999E-004	-3.71303E-003	2.42498E-004
	115	115	4.99295E-002	-5.53422E-003	0.00000E+000	-2.76321E-004	-5.39320E-002	3.67637E-002	3.33726E+001	11	...........	6.13665E-002	-4.30389E-003	5.75896E-001	6.15365E-001	-2.89892E-002	-3.88465E-002	6.62208E-001	-4.32328E-002	-3.39616E-004	2.38187E-005	-3.18713E-003	-3.40556E-003	1.60432E-004	2.14985E-004	-3.66480E-003	2.39260E-004
	116	116	4.99306E-002	-5.54369E-003	0.00000E+000	-2.76800E-004	-5.40273E-002	3.70816E-002	3.39335E+001	11	...........	6.19110E-002	-4.34333E-003	5.76104E-001	6.15315E-001	-2.90044E-002	-3.88318E-002	6.62279E-001	-4.32440E-002	-3.43215E-004	2.40781E-005	-3.19374E-003	-3.41111E-003	1.60792E-004	2.15271E-004	-3.67147E-003	2.39731E-004
	117	117	4.99298E-002	-5.49098E-003	0.00000E+000	-2.74164E-004	-5.35000E-002	3.69457E-002	3.40725E+001	11	...........	6.16568E-002	-4.30125E-003	5.76255E-001	6.15316E-001	-2.90257E-002	-3.88471E-002	6.62082E-001	-4.32676E-002	-3.38556E-004	2.36181E-005	-3.16420E-003	-3.37868E-003	1.59379E-004	2.13308E-004	-3.63548E-003	2.37582E-004
	118	118	4.99300E-002	-5.41225E-003	0.00000E+000	-2.70233E-004	-5.27167E-002	3.69082E-002	3.38246E+001	11	...........	6.16171E-002	-4.30264E-003	5.76461E-001	6.15190E-001	-2.90232E-002	-3.88507E-002	6.62107E-001	-4.32446E-002	-3.33487E-004	2.32869E-005	-3.11995E-003	-3.32956E-003	1.57081E-004	2.10269E-004	-3.58348E-003	2.34050E-004
	119	119	4.99297E-002	-5.35224E-003	0.00000E+000	-2.67236E-004	-5.21200E-002	3.68192E-002	3.35253E+001	11	...........	6.14701E-002	-4.48778E-003	5.76396E-001	6.15047E-001	-2.90139E-002	-3.88362E-002	6.62158E-001	-4.31867E-002	-3.29003E-004	2.40197E-005	-3.08501E-003	-3.29188E-003	1.55289E-004	2.07861E-004	-3.54403E-003	2.31145E-004
	120	120	4.99302E-002	-5.32536E-003	0.00000E+000	-2.65896E-004	-5.18473E-002	3.69971E-002	3.43628E+001	11	...........	6.17556E-002	-4.50472E-003	5.76373E-001	6.14987E-001	-2.90057E-002	-3.88358E-002	6.62070E-001	-4.31825E-002	-3.28870E-004	2.39892E-005	-3.06939E-003	-3.27503E-003	1.54466E-004	2.06815E-004	-3.52576E-003	2.29962E-004
	121	121	4.99288E-002	-5.30258E-003	0.00000E+000	-2.64751E-004	-5.16220E-002	3.69872E-002	3.40209E+001	11	...........	6.17442E-002	-4.43056E-003	5.76579E-001	6.15044E-001	-2.90021E-002	-3.88389E-002	6.62079E-001	-4.31379E-002	-3.27403E-004	2.34934E-005	-3.05735E-003	-3.26132E-003	1.53786E-004	2.05946E-004	-3.51072E-003	2.28742E-004
	122	122	4.99312E-002	-5.18661E-003	0.00000E+000	-2.58973E-004	-5.04873E-002	3.68976E-002	3.32514E+001	11	...........	6.16050E-002	-4.49167E-003	5.76537E-001	6.15097E-001	-2.90043E-002	-3.87974E-002	6.62024E-001	-4.32892E-002	-3.19521E-004	2.32965E-005	-2.99027E-003	-3.19027E-003	1.50434E-004	2.01227E-004	-3.43366E-003	2.24524E-004
	123	123	4.99301E-002	-5.17013E-003	0.00000E+000	-2.58145E-004	-5.03233E-002	3.68431E-002	3.36550E+001	11	...........	6.15112E-002	-4.40764E-003	5.76549E-001	6.15096E-001	-2.89861E-002	-3.88093E-002	6.61898E-001	-4.32435E-002	-3.18021E-004	2.27881E-005	-2.98083E-003	-3.18013E-003	1.49862E-004	2.00649E-004	-3.42210E-003	2.23574E-004
	124	124	4.99304E-002	-5.16273E-003	0.00000E+000	-2.57777E-004	-5.02473E-002	3.69771E-002	3.42928E+001	11	...........	6.17322E-002	-4.45125E-003	5.76414E-001	6.15320E-001	-2.89915E-002	-3.88290E-002	6.62019E-001	-4.31794E-002	-3.18707E-004	2.29806E-005	-2.97587E-003	-3.17673E-003	1.49675E-004	2.00464E-004	-3.41783E-003	2.22924E-004
	125	125	4.99301E-002	-5.12036E-003	0.00000E+000	-2.55660E-004	-4.98253E-002	3.69942E-002	3.43118E+001	11	...........	6.17568E-002	-4.38694E-003	5.76478E-001	6.15391E-001	-2.89824E-002	-3.88521E-002	6.62066E-001	-4.32800E-002	-3.16217E-004	2.24627E-005	-2.95177E-003	-3.15103E-003	1.48400E-004	1.98937E-004	-3.39002E-003	2.21609E-004
	126	125.732	4.99287E-002	-5.06844E-003	0.00000E+000	-2.53061E-004	-4.93153E-002	3.70359E-002	3.38354E+001	11	...........	6.18320E-002	-4.26860E-003	5.76423E-001	6.15427E-001	-2.89822E-002	-3.88664E-002	6.62076E-001	-4.32819E-002	-3.13392E-004	2.16352E-005	-2.92157E-003	-3.11926E-003	1.46894E-004	1.96992E-004	-3.35569E-003	2.19372E-004
STARTTIMEOFFSET	QUANT	791722.6	Start Time Offset (s)
