EXPLAIN
TAG	PWR800_READVOLTAGE
TITLE	LABEL	PWR Read Voltage	Test Identifier
DATE	LABEL	10/18/2022	Date
TIME	LABEL	13:03:32	Time
NOTES	NOTES	1	Notes...
	
PSTAT	PSTAT	REF3000-21114	Potentiostat
CAPACITY	QUANT	5.30000E-002	Capacity (A-hr)
CELLTYPE	SELECTOR	1	Cell Type
WORKINGCONNECTION	SELECTOR	0	Working Connection
MAXTIME	VARIABLEANDUNITS	1.80000E+003	s	3.00000E+001	minute(s)	Max Time
SAMPLETIME	QUANT	1.00000E+000	Sample Period (s)
STOPAT1	MULTIPARAM	0	0.00000E+000	Stop At 1	None	N/A
STOPAT2	MULTIPARAM	0	0.00000E+000	Stop At 2	None	N/A
AESELECTOR	AESELECTOR	0x1	T	Set Limits	AE Channels
AESBHCSELECTOR	TOGGLE	F	Save Both Half Cells
EOC	QUANT	0.5060914	Open Circuit (V)
SEQUENCER	TOGGLE	TRUE	Run as Sequence
PSTATMODEL	IQUANT	5	Pstat Model
PSTATSECTION	LABEL	REF3000-21114	Pstat Section
PSTATSERIALNO	LABEL	21114	Pstat Serial Number
CTRLMODE	IQUANT	0	Control Mode
ELECTROMETER	IQUANT	0	RE=0 or CS=1
IESTAB	IQUANT	0	I/E Stability
CASPEED	IQUANT	4	Control Amp Speed
CONVENTION	IQUANT	1	Current Convention
ICHRANGE	IQUANT	2	Ich Range
ICHRANGEMODE	TOGGLE	T	Ich Auto Range
ICHOFFSETENABLE	TOGGLE	F	Ich Offset Enable
ICHOFFSET	QUANT	0	Ich Offset (V)
ICHFILTER	IQUANT	1	Ich Filter
VCHRANGE	IQUANT	3	Vch Range
VCHRANGEMODE	TOGGLE	T	Vch Auto Range
VCHOFFSETENABLE	TOGGLE	F	Vch Offset Enable
VCHOFFSET	QUANT	0	Vch Offset (V)
VCHFILTER	IQUANT	1	Vch Filter
ACHRANGE	IQUANT	2	Ach Range
ACHOFFSETENABLE	TOGGLE	F	Ach Offset Enable
ACHOFFSET	QUANT	0	Ach Offset (V)
ACHFILTER	IQUANT	1	Ach Filter
IERANGELOWERLIMIT	IQUANT	9	I/E Range Lower Limit
IERANGEMODE	TOGGLE	F	I/E AutoRange
IERANGE	IQUANT	11	I/E Range
POSFEEDENABLE	TOGGLE	F	Positive Feedback IR Comp
POSFEEDRESISTANCE	QUANT	0	Positive Feedback Resistance (ohm)
ACHSELECT	IQUANT	1	Ach Select
SENSECABLEID	IQUANT	13	Sense Cable ID
PWRCABLEID	IQUANT	13	Power Cable ID
DCCALDATE	LABEL		DC Calibration Date
ACCALDATE	LABEL		AC Calibration Date
THERMOSELECT	IQUANT	1	Thermo Select
FRAMEWORKVERSION	LABEL	7.8.6	Framework Version
INSTRUMENTVERSION	LABEL	4.50	Instrument Version
COMPLIANCEVOLTAGE	IQUANT	0	Compliance Voltage
CURVE	TABLE	268
	Pt	T	Vf	Im	Vu	Pwr	Sig	Ach	Temp	IERange	Over	Vf1	Vf2	Vf3	Vf4	Vf5	Vf6	Vf7	Vf8	Pwr1	Pwr2	Pwr3	Pwr4	Pwr5	Pwr6	Pwr7	Pwr8
	#	s	V	A	V	W	V	V	deg C	#	bits	V	V	V	V	V	V	V	V	W	W	W	W	W	W	W	W
	0	1	6.20314E-002	-1.22156E-006	0.00000E+000	-7.57749E-008	0.00000E+000	3.51224E-002	3.24850E+001	9	...........	5.86467E-002	-5.65611E-003	6.06058E-001	5.34159E-001	-2.75281E-002	-3.84543E-002	7.05044E-001	-4.46036E-002	-7.16402E-008	6.90926E-009	-7.40334E-007	-6.52505E-007	3.36271E-008	4.69741E-008	-8.61251E-007	5.44858E-008
	1	2	6.72059E-002	-1.23149E-006	0.00000E+000	-8.27636E-008	0.00000E+000	3.50972E-002	3.26999E+001	9	...........	5.85858E-002	-5.66847E-003	6.06147E-001	5.34075E-001	-2.75326E-002	-3.84825E-002	7.04918E-001	-4.46576E-002	-7.21480E-008	6.98068E-009	-7.46465E-007	-6.57710E-007	3.39062E-008	4.73909E-008	-8.68101E-007	5.49955E-008
	2	3	7.13361E-002	-1.21844E-006	0.00000E+000	-8.69189E-008	0.00000E+000	3.51457E-002	3.27613E+001	9	...........	5.87260E-002	-5.61917E-003	6.06271E-001	5.34024E-001	-2.75242E-002	-3.84794E-002	7.04880E-001	-4.45181E-002	-7.15543E-008	6.84664E-009	-7.38707E-007	-6.50678E-007	3.35366E-008	4.68850E-008	-8.58856E-007	5.42427E-008
	3	4	7.49748E-002	-1.22172E-006	0.00000E+000	-9.15985E-008	0.00000E+000	3.51289E-002	3.29888E+001	9	...........	5.86483E-002	-5.65167E-003	6.06229E-001	5.34119E-001	-2.75258E-002	-3.84381E-002	7.04882E-001	-4.44225E-002	-7.16521E-008	6.90477E-009	-7.40644E-007	-6.52546E-007	3.36290E-008	4.69607E-008	-8.61172E-007	5.42720E-008
	4	5	7.83259E-002	-1.22498E-006	0.00000E+000	-9.59480E-008	0.00000E+000	3.51908E-002	3.29356E+001	9	...........	5.87611E-002	-5.72694E-003	6.06291E-001	5.34004E-001	-2.74969E-002	-3.84447E-002	7.04804E-001	-4.44747E-002	-7.19814E-008	7.01541E-009	-7.42696E-007	-6.54147E-007	3.36833E-008	4.70941E-008	-8.63373E-007	5.44808E-008
	5	6	8.14503E-002	-1.21847E-006	0.00000E+000	-9.92452E-008	0.00000E+000	3.51420E-002	3.26683E+001	9	...........	5.86864E-002	-5.71694E-003	6.06306E-001	5.34044E-001	-2.74864E-002	-3.84256E-002	7.04922E-001	-4.44118E-002	-7.15079E-008	6.96595E-009	-7.38769E-007	-6.50719E-007	3.34915E-008	4.68206E-008	-8.58930E-007	5.41147E-008
	6	7	8.43874E-002	-1.22170E-006	0.00000E+000	-1.03096E-007	0.00000E+000	3.52008E-002	3.34805E+001	9	...........	5.88071E-002	-5.58361E-003	6.06275E-001	5.34035E-001	-2.75719E-002	-3.84983E-002	7.04899E-001	-4.45417E-002	-7.18448E-008	6.82151E-009	-7.40688E-007	-6.52432E-007	3.36847E-008	4.70335E-008	-8.61177E-007	5.44167E-008
	7	8	8.71708E-002	-1.22060E-006	0.00000E+000	-1.06400E-007	0.00000E+000	3.52121E-002	3.27372E+001	9	...........	5.87911E-002	-5.65056E-003	6.06331E-001	5.34005E-001	-2.75700E-002	-3.84950E-002	7.04998E-001	-4.44199E-002	-7.17602E-008	6.89704E-009	-7.40085E-007	-6.51804E-007	3.36518E-008	4.69868E-008	-8.60517E-007	5.42187E-008
	8	9	8.97914E-002	-1.20997E-006	0.00000E+000	-1.08645E-007	0.00000E+000	3.51710E-002	3.28107E+001	9	...........	5.87326E-002	-5.55611E-003	6.06143E-001	5.34176E-001	-2.75446E-002	-3.85112E-002	7.04967E-001	-4.43082E-002	-7.10647E-008	6.72273E-009	-7.33414E-007	-6.46337E-007	3.33281E-008	4.65975E-008	-8.52989E-007	5.36116E-008
	9	10	9.22766E-002	-1.21224E-006	0.00000E+000	-1.11861E-007	0.00000E+000	3.52363E-002	3.28184E+001	9	...........	5.88431E-002	-5.52097E-003	6.06201E-001	5.34117E-001	-2.75349E-002	-3.84901E-002	7.04908E-001	-4.44290E-002	-7.13317E-008	6.69273E-009	-7.34859E-007	-6.47477E-007	3.33788E-008	4.66592E-008	-8.54515E-007	5.38585E-008
	10	11	9.46179E-002	-1.21546E-006	0.00000E+000	-1.15004E-007	0.00000E+000	3.51049E-002	3.20289E+001	9	...........	5.86114E-002	-5.61139E-003	6.06326E-001	5.33923E-001	-2.75083E-002	-3.85326E-002	7.04844E-001	-4.43811E-002	-7.12395E-008	6.82039E-009	-7.36962E-007	-6.48959E-007	3.34351E-008	4.68347E-008	-8.56706E-007	5.39432E-008
	11	12	9.68822E-002	-1.21760E-006	0.00000E+000	-1.17963E-007	0.00000E+000	3.53303E-002	3.28539E+001	9	...........	5.89468E-002	-5.68056E-003	6.06232E-001	5.33895E-001	-2.75817E-002	-3.85317E-002	7.04876E-001	-4.43462E-002	-7.17734E-008	6.91663E-009	-7.38146E-007	-6.50068E-007	3.35834E-008	4.69160E-008	-8.58255E-007	5.39959E-008
	12	13	9.90570E-002	-1.21573E-006	0.00000E+000	-1.20426E-007	0.00000E+000	3.52367E-002	3.25620E+001	9	...........	5.88687E-002	-5.70486E-003	6.06136E-001	5.33872E-001	-2.75493E-002	-3.85269E-002	7.04936E-001	-4.44290E-002	-7.15683E-008	6.93555E-009	-7.36896E-007	-6.49043E-007	3.34924E-008	4.68382E-008	-8.57010E-007	5.40136E-008
	13	14	1.01140E-001	-1.21442E-006	0.00000E+000	-1.22827E-007	0.00000E+000	3.52547E-002	3.29556E+001	9	...........	5.88608E-002	-5.75653E-003	6.06166E-001	5.33845E-001	-2.75518E-002	-3.85076E-002	7.04951E-001	-4.44067E-002	-7.14818E-008	6.99085E-009	-7.36140E-007	-6.48313E-007	3.34595E-008	4.67645E-008	-8.56107E-007	5.39284E-008
	14	15	1.03152E-001	-1.21910E-006	0.00000E+000	-1.25753E-007	0.00000E+000	3.53059E-002	3.28253E+001	9	...........	5.89618E-002	-5.75917E-003	6.06199E-001	5.33839E-001	-2.75367E-002	-3.85106E-002	7.04870E-001	-4.44439E-002	-7.18804E-008	7.02101E-009	-7.39018E-007	-6.50804E-007	3.35700E-008	4.69483E-008	-8.59308E-007	5.41816E-008
	15	16	1.05074E-001	-1.22367E-006	0.00000E+000	-1.28576E-007	0.00000E+000	3.52226E-002	3.31627E+001	9	...........	5.88007E-002	-5.63319E-003	6.06151E-001	5.33890E-001	-2.75539E-002	-3.85218E-002	7.04928E-001	-4.45896E-002	-7.19525E-008	6.89315E-009	-7.41726E-007	-6.53304E-007	3.37168E-008	4.71379E-008	-8.62598E-007	5.45628E-008
	16	17	1.06930E-001	-1.22792E-006	0.00000E+000	-1.31301E-007	0.00000E+000	3.52562E-002	3.30680E+001	9	...........	5.88582E-002	-5.53069E-003	6.05922E-001	5.33749E-001	-2.75012E-002	-3.85146E-002	7.04942E-001	-4.44631E-002	-7.22731E-008	6.79124E-009	-7.44023E-007	-6.55400E-007	3.37693E-008	4.72928E-008	-8.65612E-007	5.45970E-008
	17	18	1.08716E-001	-1.22141E-006	0.00000E+000	-1.32787E-007	0.00000E+000	3.52995E-002	3.30980E+001	9	...........	5.89465E-002	-5.45986E-003	6.05814E-001	5.33748E-001	-2.75086E-002	-3.84886E-002	7.04935E-001	-4.44437E-002	-7.19979E-008	6.66873E-009	-7.39948E-007	-6.51926E-007	3.35993E-008	4.70104E-008	-8.61015E-007	5.42841E-008
	18	19	1.10440E-001	-1.21807E-006	0.00000E+000	-1.34523E-007	0.00000E+000	3.51527E-002	3.28516E+001	9	...........	5.88481E-002	-5.46069E-003	6.05757E-001	5.33732E-001	-2.74983E-002	-3.84879E-002	7.04894E-001	-4.46436E-002	-7.16809E-008	6.65149E-009	-7.37853E-007	-6.50122E-007	3.34948E-008	4.68809E-008	-8.58609E-007	5.43789E-008
	19	20	1.12109E-001	-1.21147E-006	0.00000E+000	-1.35818E-007	0.00000E+000	3.52386E-002	3.30072E+001	9	...........	5.89546E-002	-5.49903E-003	6.05796E-001	5.33908E-001	-2.74969E-002	-3.84494E-002	7.04867E-001	-4.46568E-002	-7.14220E-008	6.66193E-009	-7.33907E-007	-6.46816E-007	3.33118E-008	4.65805E-008	-8.53929E-007	5.41006E-008
	20	21	1.13719E-001	-1.22671E-006	0.00000E+000	-1.39499E-007	0.00000E+000	3.50749E-002	3.27317E+001	9	...........	5.87951E-002	-5.61847E-003	6.05685E-001	5.33918E-001	-2.75231E-002	-3.85061E-002	7.04896E-001	-4.45199E-002	-7.21244E-008	6.89222E-009	-7.42999E-007	-6.54961E-007	3.37627E-008	4.72357E-008	-8.64701E-007	5.46128E-008
	21	22	1.15275E-001	-1.22209E-006	0.00000E+000	-1.40876E-007	0.00000E+000	3.51163E-002	3.31989E+001	9	...........	5.88718E-002	-5.67389E-003	6.05844E-001	5.34153E-001	-2.75372E-002	-3.85446E-002	7.05005E-001	-4.44746E-002	-7.19466E-008	6.93400E-009	-7.40395E-007	-6.52783E-007	3.36529E-008	4.71049E-008	-8.61579E-007	5.43519E-008
	22	23	1.16789E-001	-1.23191E-006	0.00000E+000	-1.43874E-007	0.00000E+000	3.51367E-002	3.33145E+001	9	...........	5.88950E-002	-5.78681E-003	6.05912E-001	5.34052E-001	-2.75278E-002	-3.85607E-002	7.05009E-001	-4.45312E-002	-7.25533E-008	7.12882E-009	-7.46430E-007	-6.57905E-007	3.39117E-008	4.75033E-008	-8.68508E-007	5.48585E-008
	23	24	1.18250E-001	-1.23325E-006	0.00000E+000	-1.45832E-007	0.00000E+000	3.51377E-002	3.28878E+001	9	...........	5.88710E-002	-5.82014E-003	6.05910E-001	5.34144E-001	-2.75096E-002	-3.85317E-002	7.04992E-001	-4.45794E-002	-7.26025E-008	7.17767E-009	-7.47237E-007	-6.58732E-007	3.39261E-008	4.75191E-008	-8.69429E-007	5.49775E-008
	24	25	1.19679E-001	-1.22501E-006	0.00000E+000	-1.46608E-007	0.00000E+000	3.51458E-002	3.32995E+001	9	...........	5.88964E-002	-5.67764E-003	6.06005E-001	5.34092E-001	-2.75249E-002	-3.85192E-002	7.04962E-001	-4.45671E-002	-7.21489E-008	6.95519E-009	-7.42365E-007	-6.54271E-007	3.37184E-008	4.71865E-008	-8.63589E-007	5.45953E-008
	25	26	1.21065E-001	-1.22706E-006	0.00000E+000	-1.48555E-007	0.00000E+000	3.51360E-002	3.32059E+001	9	...........	5.89164E-002	-5.60542E-003	6.06133E-001	5.34119E-001	-2.75493E-002	-3.85226E-002	7.04925E-001	-4.45421E-002	-7.22941E-008	6.87820E-009	-7.43763E-007	-6.55398E-007	3.38047E-008	4.72697E-008	-8.64986E-007	5.46559E-008
	26	27	1.22406E-001	-1.22355E-006	0.00000E+000	-1.49770E-007	0.00000E+000	3.51425E-002	3.33730E+001	9	...........	5.89354E-002	-5.51903E-003	6.06010E-001	5.34242E-001	-2.75206E-002	-3.84731E-002	7.05008E-001	-4.44887E-002	-7.21106E-008	6.75282E-009	-7.41485E-007	-6.53673E-007	3.36728E-008	4.70738E-008	-8.62615E-007	5.44343E-008
	27	28	1.23711E-001	-1.21567E-006	0.00000E+000	-1.50393E-007	0.00000E+000	3.51907E-002	3.29060E+001	9	...........	5.89658E-002	-5.41889E-003	6.06012E-001	5.34273E-001	-2.74724E-002	-3.84604E-002	7.05028E-001	-4.44957E-002	-7.16833E-008	6.58761E-009	-7.36713E-007	-6.49502E-007	3.33975E-008	4.67553E-008	-8.57085E-007	5.40923E-008
	28	29	1.24963E-001	-1.22285E-006	0.00000E+000	-1.52811E-007	0.00000E+000	3.51044E-002	3.27246E+001	9	...........	5.88354E-002	-5.50153E-003	6.05984E-001	5.34348E-001	-2.74883E-002	-3.84642E-002	7.04981E-001	-4.44922E-002	-7.19470E-008	6.72755E-009	-7.41029E-007	-6.53429E-007	3.36142E-008	4.70360E-008	-8.62088E-007	5.44074E-008
	29	30	1.26210E-001	-1.22496E-006	0.00000E+000	-1.54603E-007	0.00000E+000	3.52077E-002	3.35226E+001	9	...........	5.90178E-002	-5.54569E-003	6.06004E-001	5.34392E-001	-2.75279E-002	-3.85118E-002	7.05047E-001	-4.45483E-002	-7.22946E-008	6.79327E-009	-7.42333E-007	-6.54610E-007	3.37207E-008	4.71755E-008	-8.63656E-007	5.45700E-008
	30	31	1.27424E-001	-1.22465E-006	0.00000E+000	-1.56049E-007	0.00000E+000	3.51613E-002	3.33659E+001	9	...........	5.89422E-002	-5.56347E-003	6.05894E-001	5.34586E-001	-2.75635E-002	-3.85326E-002	7.04918E-001	-4.44968E-002	-7.21835E-008	6.81330E-009	-7.42007E-007	-6.54680E-007	3.37556E-008	4.71890E-008	-8.63277E-007	5.44930E-008
	31	32	1.28590E-001	-1.22435E-006	0.00000E+000	-1.57439E-007	0.00000E+000	3.51302E-002	3.30215E+001	9	...........	5.88828E-002	-5.54667E-003	6.05885E-001	5.34568E-001	-2.75843E-002	-3.85128E-002	7.05028E-001	-4.45821E-002	-7.20929E-008	6.79104E-009	-7.41813E-007	-6.54496E-007	3.37727E-008	4.71530E-008	-8.63198E-007	5.45839E-008
	32	33	1.29727E-001	-1.21573E-006	0.00000E+000	-1.57713E-007	0.00000E+000	3.52010E-002	3.32352E+001	9	...........	5.89958E-002	-5.67347E-003	6.05848E-001	5.34873E-001	-2.75087E-002	-3.84819E-002	7.05096E-001	-4.45375E-002	-7.17228E-008	6.89739E-009	-7.36545E-007	-6.50260E-007	3.34431E-008	4.67835E-008	-8.57205E-007	5.41454E-008
	33	34	1.30845E-001	-1.21482E-006	0.00000E+000	-1.58952E-007	0.00000E+000	3.51934E-002	3.30534E+001	9	...........	5.89997E-002	-5.65208E-003	6.05628E-001	5.35042E-001	-2.75471E-002	-3.84749E-002	7.05051E-001	-4.45764E-002	-7.16739E-008	6.86625E-009	-7.35728E-007	-6.49979E-007	3.34647E-008	4.67399E-008	-8.56509E-007	5.41522E-008
	34	35	1.31940E-001	-1.21402E-006	0.00000E+000	-1.60179E-007	0.00000E+000	3.52179E-002	3.31324E+001	9	...........	5.90318E-002	-5.53250E-003	6.05596E-001	5.35166E-001	-2.75578E-002	-3.84882E-002	7.04919E-001	-4.45658E-002	-7.16660E-008	6.71659E-009	-7.35208E-007	-6.49704E-007	3.34558E-008	4.67256E-008	-8.55788E-007	5.41040E-008
	35	36	1.33010E-001	-1.22023E-006	0.00000E+000	-1.62303E-007	0.00000E+000	3.52182E-002	3.34075E+001	9	...........	5.90429E-002	-5.53389E-003	6.05663E-001	5.35219E-001	-2.75683E-002	-3.84804E-002	7.04877E-001	-4.44221E-002	-7.20459E-008	6.75261E-009	-7.39047E-007	-6.53091E-007	3.36397E-008	4.69549E-008	-8.60112E-007	5.42051E-008
	36	37	1.34052E-001	-1.21074E-006	0.00000E+000	-1.62302E-007	0.00000E+000	3.51946E-002	3.36931E+001	9	...........	5.89890E-002	-5.54389E-003	6.05591E-001	5.35244E-001	-2.75387E-002	-3.84940E-002	7.04985E-001	-4.44094E-002	-7.14206E-008	6.71223E-009	-7.33216E-007	-6.48043E-007	3.33424E-008	4.66064E-008	-8.53556E-007	5.37684E-008
	37	38	1.35072E-001	-1.21241E-006	0.00000E+000	-1.63764E-007	0.00000E+000	3.52157E-002	3.34954E+001	9	...........	5.90344E-002	-5.49806E-003	6.05521E-001	5.35295E-001	-2.75189E-002	-3.84779E-002	7.04973E-001	-4.45274E-002	-7.15742E-008	6.66592E-009	-7.34143E-007	-6.49000E-007	3.33643E-008	4.66512E-008	-8.54720E-007	5.39856E-008
	38	39	1.36062E-001	-1.21096E-006	0.00000E+000	-1.64766E-007	0.00000E+000	3.52133E-002	3.25132E+001	9	...........	5.89986E-002	-5.43222E-003	6.05666E-001	5.35332E-001	-2.75201E-002	-3.84576E-002	7.04988E-001	-4.45056E-002	-7.14451E-008	6.57822E-009	-7.33439E-007	-6.48267E-007	3.33259E-008	4.65708E-008	-8.53714E-007	5.38946E-008
	39	40	1.37044E-001	-1.21139E-006	0.00000E+000	-1.66014E-007	0.00000E+000	3.52260E-002	3.32520E+001	9	...........	5.90211E-002	-5.50167E-003	6.05654E-001	5.35294E-001	-2.74901E-002	-3.84439E-002	7.05115E-001	-4.44882E-002	-7.14976E-008	6.66467E-009	-7.33684E-007	-6.48451E-007	3.33013E-008	4.65706E-008	-8.54171E-007	5.38926E-008
	40	41	1.38005E-001	-1.21200E-006	0.00000E+000	-1.67262E-007	0.00000E+000	3.53295E-002	3.31247E+001	9	...........	5.91597E-002	-5.50306E-003	6.05599E-001	5.35319E-001	-2.74796E-002	-3.84532E-002	7.05033E-001	-4.44525E-002	-7.17014E-008	6.66969E-009	-7.33984E-007	-6.48805E-007	3.33052E-008	4.66052E-008	-8.54498E-007	5.38763E-008
	41	42	1.38947E-001	-1.21314E-006	0.00000E+000	-1.68561E-007	0.00000E+000	3.53107E-002	3.32489E+001	9	...........	5.91312E-002	-5.46125E-003	6.05569E-001	5.35412E-001	-2.74901E-002	-3.84371E-002	7.04958E-001	-4.43832E-002	-7.17342E-008	6.62524E-009	-7.34637E-007	-6.49528E-007	3.33493E-008	4.66294E-008	-8.55210E-007	5.38428E-008
	42	43	1.39867E-001	-1.21705E-006	0.00000E+000	-1.70226E-007	0.00000E+000	3.52356E-002	3.36711E+001	9	...........	5.90361E-002	-5.43069E-003	6.05546E-001	5.35223E-001	-2.74847E-002	-3.84433E-002	7.05018E-001	-4.43742E-002	-7.18501E-008	6.60945E-009	-7.36982E-007	-6.51395E-007	3.34504E-008	4.67876E-008	-8.58044E-007	5.40057E-008
	43	44	1.40767E-001	-1.21881E-006	0.00000E+000	-1.71569E-007	0.00000E+000	3.52041E-002	3.29486E+001	9	...........	5.89814E-002	-5.59722E-003	6.05696E-001	5.35064E-001	-2.75147E-002	-3.84787E-002	7.05050E-001	-4.44540E-002	-7.18870E-008	6.82194E-009	-7.38228E-007	-6.52141E-007	3.35352E-008	4.68982E-008	-8.59321E-007	5.41810E-008
	44	45	1.41655E-001	-1.22481E-006	0.00000E+000	-1.73500E-007	0.00000E+000	3.52174E-002	3.32951E+001	9	...........	5.90453E-002	-5.53528E-003	6.05804E-001	5.35146E-001	-2.75662E-002	-3.84682E-002	7.04895E-001	-4.44465E-002	-7.23190E-008	6.77964E-009	-7.41992E-007	-6.55450E-007	3.37633E-008	4.71161E-008	-8.63359E-007	5.44384E-008
	45	46	1.42541E-001	-1.22937E-006	0.00000E+000	-1.75236E-007	0.00000E+000	3.52876E-002	3.37978E+001	9	...........	5.91407E-002	-5.50403E-003	6.05763E-001	5.35169E-001	-2.75711E-002	-3.85046E-002	7.04846E-001	-4.44607E-002	-7.27059E-008	6.76649E-009	-7.44708E-007	-6.57922E-007	3.38951E-008	4.73364E-008	-8.66517E-007	5.46587E-008
	46	47	1.43393E-001	-1.22722E-006	0.00000E+000	-1.75975E-007	0.00000E+000	3.51771E-002	3.31649E+001	9	...........	5.89664E-002	-5.57528E-003	6.05783E-001	5.35260E-001	-2.75981E-002	-3.85124E-002	7.04887E-001	-4.44482E-002	-7.23647E-008	6.84209E-009	-7.43428E-007	-6.56881E-007	3.38689E-008	4.72631E-008	-8.65051E-007	5.45477E-008
	47	48	1.44221E-001	-1.22277E-006	0.00000E+000	-1.76349E-007	0.00000E+000	3.52029E-002	3.31362E+001	9	...........	5.89868E-002	-5.56806E-003	6.05772E-001	5.35346E-001	-2.75644E-002	-3.84769E-002	7.04865E-001	-4.43739E-002	-7.21272E-008	6.80844E-009	-7.40719E-007	-6.54604E-007	3.37049E-008	4.70484E-008	-8.61887E-007	5.42590E-008
	48	49	1.45031E-001	-1.22078E-006	0.00000E+000	-1.77051E-007	0.00000E+000	3.52358E-002	3.22265E+001	9	...........	5.90574E-002	-5.49264E-003	6.05883E-001	5.35564E-001	-2.75279E-002	-3.84800E-002	7.04996E-001	-4.44304E-002	-7.20962E-008	6.70532E-009	-7.39652E-007	-6.53808E-007	3.36056E-008	4.69757E-008	-8.60648E-007	5.42399E-008
	49	50	1.45815E-001	-1.22168E-006	0.00000E+000	-1.78140E-007	0.00000E+000	3.50740E-002	3.18983E+001	9	...........	5.87965E-002	-5.56389E-003	6.05930E-001	5.35693E-001	-2.75468E-002	-3.85182E-002	7.04947E-001	-4.44787E-002	-7.18307E-008	6.79730E-009	-7.40253E-007	-6.54446E-007	3.36534E-008	4.70570E-008	-8.61221E-007	5.43389E-008
	50	51	1.46620E-001	-1.22564E-006	0.00000E+000	-1.79704E-007	0.00000E+000	3.54712E-002	3.27177E+001	9	...........	5.94390E-002	-5.57167E-003	6.05842E-001	5.35730E-001	-2.75449E-002	-3.85572E-002	7.04930E-001	-4.45000E-002	-7.28509E-008	6.82887E-009	-7.42545E-007	-6.56612E-007	3.37601E-008	4.72573E-008	-8.63992E-007	5.45411E-008
	51	52	1.47410E-001	-1.22037E-006	0.00000E+000	-1.79894E-007	0.00000E+000	3.52807E-002	3.28926E+001	9	...........	5.91349E-002	-5.42264E-003	6.05702E-001	5.35875E-001	-2.75792E-002	-3.85444E-002	7.05037E-001	-4.44007E-002	-7.21661E-008	6.61760E-009	-7.39178E-007	-6.53963E-007	3.36567E-008	4.70383E-008	-8.60403E-007	5.41851E-008
	52	53	1.48173E-001	-1.22531E-006	0.00000E+000	-1.81557E-007	0.00000E+000	3.52759E-002	3.28608E+001	9	...........	5.91015E-002	-5.43931E-003	6.05566E-001	5.35916E-001	-2.75529E-002	-3.85440E-002	7.04983E-001	-4.45100E-002	-7.24175E-008	6.66482E-009	-7.42005E-007	-6.56662E-007	3.37608E-008	4.72283E-008	-8.63821E-007	5.45384E-008
	53	54	1.48923E-001	-1.23197E-006	0.00000E+000	-1.83469E-007	0.00000E+000	3.52577E-002	3.27494E+001	9	...........	5.90794E-002	-5.50944E-003	6.05406E-001	5.36036E-001	-2.75671E-002	-3.85432E-002	7.04901E-001	-4.44965E-002	-7.27843E-008	6.78749E-009	-7.45843E-007	-6.60382E-007	3.39619E-008	4.74842E-008	-8.68419E-007	5.48185E-008
	54	55	1.49669E-001	-1.22691E-006	0.00000E+000	-1.83630E-007	0.00000E+000	3.53113E-002	3.28919E+001	9	...........	5.91732E-002	-5.56694E-003	6.05401E-001	5.36140E-001	-2.75662E-002	-3.85529E-002	7.04943E-001	-4.45906E-002	-7.25999E-008	6.83012E-009	-7.42770E-007	-6.57794E-007	3.38212E-008	4.73008E-008	-8.64898E-007	5.47084E-008
	55	56	1.50394E-001	-1.22393E-006	0.00000E+000	-1.84071E-007	0.00000E+000	3.52064E-002	3.28418E+001	9	...........	5.90071E-002	-5.46833E-003	6.05392E-001	5.36130E-001	-2.75797E-002	-3.85674E-002	7.05032E-001	-4.44957E-002	-7.22204E-008	6.69285E-009	-7.40956E-007	-6.56184E-007	3.37556E-008	4.72037E-008	-8.62909E-007	5.44595E-008
	56	57	1.51113E-001	-1.21628E-006	0.00000E+000	-1.83795E-007	0.00000E+000	3.52980E-002	3.25722E+001	9	...........	5.91624E-002	-5.46306E-003	6.05457E-001	5.36166E-001	-2.75437E-002	-3.85128E-002	7.05125E-001	-4.43732E-002	-7.19580E-008	6.64461E-009	-7.36405E-007	-6.52128E-007	3.35009E-008	4.68423E-008	-8.57630E-007	5.39703E-008
	57	58	1.51821E-001	-1.21157E-006	0.00000E+000	-1.83941E-007	0.00000E+000	3.52308E-002	3.24993E+001	9	...........	5.90403E-002	-5.51167E-003	6.05559E-001	5.36078E-001	-2.75060E-002	-3.85287E-002	7.05136E-001	-4.43469E-002	-7.15313E-008	6.67776E-009	-7.33677E-007	-6.49496E-007	3.33254E-008	4.66802E-008	-8.54321E-007	5.37294E-008
	58	59	1.52525E-001	-1.20885E-006	0.00000E+000	-1.84380E-007	0.00000E+000	3.53421E-002	3.30839E+001	9	...........	5.92178E-002	-5.45306E-003	6.05650E-001	5.36062E-001	-2.74578E-002	-3.84829E-002	7.05224E-001	-4.44599E-002	-7.15855E-008	6.59194E-009	-7.32142E-007	-6.48020E-007	3.31924E-008	4.65202E-008	-8.52511E-007	5.37454E-008
	59	60	1.53216E-001	-1.22120E-006	0.00000E+000	-1.87107E-007	0.00000E+000	3.52928E-002	3.32031E+001	9	...........	5.91321E-002	-5.58611E-003	6.05715E-001	5.36106E-001	-2.74785E-002	-3.85356E-002	7.05209E-001	-4.45457E-002	-7.22122E-008	6.82177E-009	-7.39700E-007	-6.54694E-007	3.35567E-008	4.70597E-008	-8.61202E-007	5.43993E-008
	60	61	1.53898E-001	-1.21765E-006	0.00000E+000	-1.87394E-007	0.00000E+000	3.52984E-002	3.31650E+001	9	...........	5.91729E-002	-5.55028E-003	6.05811E-001	5.35956E-001	-2.74940E-002	-3.85610E-002	7.05185E-001	-4.44542E-002	-7.20518E-008	6.75829E-009	-7.37665E-007	-6.52607E-007	3.34781E-008	4.69537E-008	-8.58668E-007	5.41296E-008
	61	62	1.54572E-001	-1.21670E-006	0.00000E+000	-1.88068E-007	0.00000E+000	3.52528E-002	3.29138E+001	9	...........	5.90621E-002	-5.54681E-003	6.05958E-001	5.35997E-001	-2.75147E-002	-3.86089E-002	7.05087E-001	-4.43697E-002	-7.18607E-008	6.74879E-009	-7.37268E-007	-6.52147E-007	3.34771E-008	4.69754E-008	-8.57878E-007	5.39846E-008
	62	63	1.55231E-001	-1.21719E-006	0.00000E+000	-1.88945E-007	0.00000E+000	3.52073E-002	3.33342E+001	9	...........	5.90343E-002	-5.61778E-003	6.06002E-001	5.35957E-001	-2.75446E-002	-3.85781E-002	7.05013E-001	-4.44715E-002	-7.18559E-008	6.83790E-009	-7.37620E-007	-6.52361E-007	3.35270E-008	4.69568E-008	-8.58134E-007	5.41303E-008
	63	64	1.55892E-001	-1.22933E-006	0.00000E+000	-1.91643E-007	0.00000E+000	3.52658E-002	3.33141E+001	9	...........	5.91232E-002	-5.67097E-003	6.05778E-001	5.36039E-001	-2.75235E-002	-3.85743E-002	7.04974E-001	-4.44499E-002	-7.26819E-008	6.97149E-009	-7.44701E-007	-6.58968E-007	3.38354E-008	4.74205E-008	-8.66645E-007	5.46435E-008
	64	65	1.56545E-001	-1.21760E-006	0.00000E+000	-1.90609E-007	0.00000E+000	3.52692E-002	3.33696E+001	9	...........	5.91079E-002	-5.59431E-003	6.05649E-001	5.36198E-001	-2.75267E-002	-3.85614E-002	7.05133E-001	-4.44387E-002	-7.19696E-008	6.81161E-009	-7.37436E-007	-6.52874E-007	3.35164E-008	4.69522E-008	-8.58567E-007	5.41085E-008
	65	66	1.57178E-001	-1.21737E-006	0.00000E+000	-1.91344E-007	0.00000E+000	3.51999E-002	3.31482E+001	9	...........	5.89635E-002	-5.31611E-003	6.05738E-001	5.36114E-001	-2.74678E-002	-3.85457E-002	7.05221E-001	-4.44793E-002	-7.17802E-008	6.47166E-009	-7.37405E-007	-6.52647E-007	3.34384E-008	4.69243E-008	-8.58512E-007	5.41476E-008
	66	67	1.57805E-001	-1.22544E-006	0.00000E+000	-1.93381E-007	0.00000E+000	3.53385E-002	3.35466E+001	9	...........	5.92226E-002	-5.43222E-003	6.05839E-001	5.36097E-001	-2.75082E-002	-3.85204E-002	7.05189E-001	-4.44796E-002	-7.25740E-008	6.65688E-009	-7.42421E-007	-6.56957E-007	3.37097E-008	4.72046E-008	-8.64169E-007	5.45072E-008
	67	68	1.58423E-001	-1.22453E-006	0.00000E+000	-1.93995E-007	0.00000E+000	3.52148E-002	3.31482E+001	9	...........	5.90139E-002	-5.54111E-003	6.06031E-001	5.36216E-001	-2.75019E-002	-3.85300E-002	7.05091E-001	-4.44519E-002	-7.22645E-008	6.78528E-009	-7.42106E-007	-6.56615E-007	3.36771E-008	4.71813E-008	-8.63408E-007	5.44329E-008
	68	69	1.59041E-001	-1.22612E-006	0.00000E+000	-1.95003E-007	0.00000E+000	3.52719E-002	3.29659E+001	9	...........	5.91150E-002	-5.59153E-003	6.05947E-001	5.36264E-001	-2.75410E-002	-3.85347E-002	7.05116E-001	-4.45882E-002	-7.24822E-008	6.85590E-009	-7.42965E-007	-6.57525E-007	3.37686E-008	4.72483E-008	-8.64558E-007	5.46706E-008
	69	70	1.59651E-001	-1.22412E-006	0.00000E+000	-1.95431E-007	0.00000E+000	3.52612E-002	3.25837E+001	9	...........	5.91007E-002	-5.67000E-003	6.05995E-001	5.36417E-001	-2.75453E-002	-3.85414E-002	7.05206E-001	-4.45022E-002	-7.23461E-008	6.94074E-009	-7.41808E-007	-6.56636E-007	3.37186E-008	4.71791E-008	-8.63254E-007	5.44759E-008
	70	71	1.60235E-001	-1.22705E-006	0.00000E+000	-1.96617E-007	0.00000E+000	3.52238E-002	3.35656E+001	9	...........	5.90186E-002	-5.62528E-003	6.06202E-001	5.36417E-001	-2.75367E-002	-3.85740E-002	7.05092E-001	-4.44011E-002	-7.24189E-008	6.90251E-009	-7.43842E-007	-6.58212E-007	3.37889E-008	4.73323E-008	-8.65185E-007	5.44825E-008
	71	72	1.60824E-001	-1.22507E-006	0.00000E+000	-1.97020E-007	0.00000E+000	3.52982E-002	3.26101E+001	9	...........	5.91586E-002	-5.61750E-003	6.06294E-001	5.36432E-001	-2.75229E-002	-3.86051E-002	7.05100E-001	-4.44921E-002	-7.24733E-008	6.88181E-009	-7.42751E-007	-6.57165E-007	3.37174E-008	4.72939E-008	-8.63795E-007	5.45058E-008
	72	73	1.61405E-001	-1.20478E-006	0.00000E+000	-1.94457E-007	0.00000E+000	3.52957E-002	3.29745E+001	9	...........	5.91446E-002	-5.42931E-003	6.06349E-001	5.36557E-001	-2.74697E-002	-3.85596E-002	7.05160E-001	-4.43776E-002	-7.12561E-008	6.54111E-009	-7.30516E-007	-6.46433E-007	3.30949E-008	4.64557E-008	-8.49561E-007	5.34652E-008
	73	74	1.61987E-001	-1.21536E-006	0.00000E+000	-1.96873E-007	0.00000E+000	3.53212E-002	3.34050E+001	9	...........	5.92011E-002	-5.53431E-003	6.06344E-001	5.36661E-001	-2.74956E-002	-3.85776E-002	7.05166E-001	-4.44350E-002	-7.19507E-008	6.72618E-009	-7.36927E-007	-6.52237E-007	3.34170E-008	4.68858E-008	-8.57032E-007	5.40046E-008
	74	75	1.62549E-001	-1.22128E-006	0.00000E+000	-1.98519E-007	0.00000E+000	3.52658E-002	3.30619E+001	9	...........	5.90901E-002	-5.52236E-003	6.06315E-001	5.36535E-001	-2.75436E-002	-3.85633E-002	7.05037E-001	-4.43918E-002	-7.21659E-008	6.74438E-009	-7.40483E-007	-6.55262E-007	3.36386E-008	4.70968E-008	-8.61051E-007	5.42150E-008
	75	76	1.63106E-001	-1.22643E-006	0.00000E+000	-2.00037E-007	0.00000E+000	3.52799E-002	3.29372E+001	9	...........	5.91275E-002	-5.52389E-003	6.06274E-001	5.36532E-001	-2.75464E-002	-3.85654E-002	7.04938E-001	-4.44306E-002	-7.25155E-008	6.77464E-009	-7.43550E-007	-6.58016E-007	3.37836E-008	4.72976E-008	-8.64554E-007	5.44908E-008
	76	77	1.63658E-001	-1.21899E-006	0.00000E+000	-1.99497E-007	0.00000E+000	3.52516E-002	3.27058E+001	9	...........	5.90581E-002	-5.46639E-003	6.06224E-001	5.36519E-001	-2.75465E-002	-3.85376E-002	7.05102E-001	-4.44239E-002	-7.19910E-008	6.66345E-009	-7.38979E-007	-6.54010E-007	3.35788E-008	4.69769E-008	-8.59510E-007	5.41521E-008
	77	78	1.64195E-001	-1.22584E-006	0.00000E+000	-2.01277E-007	0.00000E+000	3.53679E-002	3.34347E+001	9	...........	5.92514E-002	-5.45639E-003	6.06053E-001	5.36569E-001	-2.75079E-002	-3.85210E-002	7.05148E-001	-4.43183E-002	-7.26327E-008	6.68866E-009	-7.42925E-007	-6.57748E-007	3.37203E-008	4.72205E-008	-8.64399E-007	5.43272E-008
	78	79	1.64741E-001	-1.22595E-006	0.00000E+000	-2.01965E-007	0.00000E+000	3.52974E-002	3.31902E+001	9	...........	5.91657E-002	-5.54458E-003	6.06141E-001	5.36561E-001	-2.75231E-002	-3.85583E-002	7.04949E-001	-4.44103E-002	-7.25345E-008	6.79741E-009	-7.43102E-007	-6.57799E-007	3.37420E-008	4.72708E-008	-8.64236E-007	5.44450E-008
	79	80	1.65284E-001	-1.23071E-006	0.00000E+000	-2.03417E-007	0.00000E+000	3.53136E-002	3.33537E+001	9	...........	5.91786E-002	-5.55847E-003	6.06249E-001	5.36431E-001	-2.75418E-002	-3.85532E-002	7.04912E-001	-4.43315E-002	-7.28316E-008	6.84086E-009	-7.46116E-007	-6.60190E-007	3.38959E-008	4.74477E-008	-8.67541E-007	5.45592E-008
	80	81	1.65810E-001	-1.22450E-006	0.00000E+000	-2.03034E-007	0.00000E+000	3.52986E-002	3.32408E+001	9	...........	5.91910E-002	-5.49917E-003	6.06118E-001	5.36314E-001	-2.75181E-002	-3.85546E-002	7.05052E-001	-4.43393E-002	-7.24795E-008	6.73375E-009	-7.42194E-007	-6.56718E-007	3.36959E-008	4.72102E-008	-8.63339E-007	5.42936E-008
	81	82	1.66333E-001	-1.21796E-006	0.00000E+000	-2.02587E-007	0.00000E+000	3.51813E-002	3.32918E+001	9	...........	5.89903E-002	-5.61111E-003	6.06214E-001	5.36302E-001	-2.75118E-002	-3.85510E-002	7.04997E-001	-4.44356E-002	-7.18479E-008	6.83412E-009	-7.38346E-007	-6.53196E-007	3.35083E-008	4.69536E-008	-8.58661E-007	5.41208E-008
	82	83	1.66849E-001	-1.21200E-006	0.00000E+000	-2.02221E-007	0.00000E+000	3.53831E-002	3.29559E+001	9	...........	5.93079E-002	-5.58083E-003	6.06161E-001	5.36317E-001	-2.74719E-002	-3.85108E-002	7.05036E-001	-4.44471E-002	-7.18810E-008	6.76395E-009	-7.34666E-007	-6.50014E-007	3.32959E-008	4.66750E-008	-8.54502E-007	5.38697E-008
	83	84	1.67353E-001	-1.21866E-006	0.00000E+000	-2.03947E-007	0.00000E+000	3.52579E-002	3.29579E+001	9	...........	5.90868E-002	-5.53819E-003	6.06236E-001	5.36310E-001	-2.74440E-002	-3.85160E-002	7.05050E-001	-4.44886E-002	-7.20069E-008	6.74919E-009	-7.38797E-007	-6.53580E-007	3.34450E-008	4.69380E-008	-8.59218E-007	5.42166E-008
	84	85	1.67869E-001	-1.22306E-006	0.00000E+000	-2.05314E-007	0.00000E+000	3.53883E-002	3.33120E+001	9	...........	5.93299E-002	-5.48611E-003	6.06319E-001	5.36368E-001	-2.74867E-002	-3.84990E-002	7.04969E-001	-4.45153E-002	-7.25640E-008	6.70985E-009	-7.41565E-007	-6.56011E-007	3.36179E-008	4.70867E-008	-8.62220E-007	5.44449E-008
	85	86	1.68366E-001	-1.21847E-006	0.00000E+000	-2.05150E-007	0.00000E+000	3.53170E-002	3.36122E+001	9	...........	5.91815E-002	-5.38014E-003	6.06341E-001	5.36335E-001	-2.74378E-002	-3.85118E-002	7.05026E-001	-4.45718E-002	-7.21112E-008	6.55556E-009	-7.38811E-007	-6.53511E-007	3.34322E-008	4.69257E-008	-8.59056E-007	5.43096E-008
	86	87	1.68866E-001	-1.21097E-006	0.00000E+000	-2.04492E-007	0.00000E+000	3.53308E-002	3.34825E+001	9	...........	5.92001E-002	-5.38583E-003	6.06447E-001	5.36238E-001	-2.74742E-002	-3.85032E-002	7.04919E-001	-4.45356E-002	-7.16898E-008	6.52210E-009	-7.34390E-007	-6.49369E-007	3.32705E-008	4.66263E-008	-8.53637E-007	5.39314E-008
	87	88	1.69369E-001	-1.20884E-006	0.00000E+000	-2.04740E-007	0.00000E+000	3.53195E-002	3.36703E+001	9	...........	5.92108E-002	-5.44958E-003	6.06449E-001	5.36228E-001	-2.75210E-002	-3.85072E-002	7.04903E-001	-4.45690E-002	-7.15765E-008	6.58768E-009	-7.33100E-007	-6.48215E-007	3.32685E-008	4.65491E-008	-8.52116E-007	5.38769E-008
	88	89	1.69854E-001	-1.21538E-006	0.00000E+000	-2.06437E-007	0.00000E+000	3.53116E-002	3.33691E+001	9	...........	5.91394E-002	-5.47778E-003	6.06546E-001	5.36178E-001	-2.75156E-002	-3.85469E-002	7.04967E-001	-4.44844E-002	-7.18770E-008	6.65759E-009	-7.37185E-007	-6.51661E-007	3.34419E-008	4.68493E-008	-8.56804E-007	5.40656E-008
	89	90	1.70343E-001	-1.21823E-006	0.00000E+000	-2.07517E-007	0.00000E+000	3.52798E-002	3.32222E+001	9	...........	5.91272E-002	-5.54667E-003	6.06529E-001	5.36229E-001	-2.75510E-002	-3.85843E-002	7.04813E-001	-4.44864E-002	-7.20308E-008	6.75714E-009	-7.38894E-007	-6.53253E-007	3.35635E-008	4.70047E-008	-8.58627E-007	5.41948E-008
	90	91	1.70810E-001	-1.22562E-006	0.00000E+000	-2.09348E-007	0.00000E+000	3.52495E-002	3.28958E+001	9	...........	5.90479E-002	-5.55069E-003	6.06432E-001	5.36123E-001	-2.75696E-002	-3.85919E-002	7.04857E-001	-4.42306E-002	-7.23703E-008	6.80305E-009	-7.43255E-007	-6.57083E-007	3.37899E-008	4.72991E-008	-8.63887E-007	5.42099E-008
	91	92	1.71286E-001	-1.21656E-006	0.00000E+000	-2.08380E-007	0.00000E+000	3.53328E-002	3.36423E+001	9	...........	5.92192E-002	-5.51097E-003	6.06488E-001	5.36013E-001	-2.75794E-002	-3.85799E-002	7.04915E-001	-4.42521E-002	-7.20438E-008	6.70444E-009	-7.37830E-007	-6.52093E-007	3.35521E-008	4.69348E-008	-8.57573E-007	5.38354E-008
	92	93	1.71758E-001	-1.22338E-006	0.00000E+000	-2.10126E-007	0.00000E+000	3.53505E-002	3.35618E+001	9	...........	5.92286E-002	-5.52569E-003	6.06683E-001	5.35811E-001	-2.76093E-002	-3.85887E-002	7.04786E-001	-4.43547E-002	-7.24594E-008	6.76005E-009	-7.42207E-007	-6.55503E-007	3.37768E-008	4.72089E-008	-8.62225E-007	5.42629E-008
	93	94	1.72217E-001	-1.22335E-006	0.00000E+000	-2.10682E-007	0.00000E+000	3.52297E-002	3.34255E+001	9	...........	5.90590E-002	-5.50278E-003	6.06459E-001	5.35707E-001	-2.75950E-002	-3.85918E-002	7.04827E-001	-4.44906E-002	-7.22501E-008	6.73184E-009	-7.41914E-007	-6.55359E-007	3.37584E-008	4.72114E-008	-8.62253E-007	5.44277E-008
	94	95	1.72677E-001	-1.22020E-006	0.00000E+000	-2.10701E-007	0.00000E+000	3.52706E-002	3.24322E+001	9	...........	5.91240E-002	-5.69194E-003	6.06375E-001	5.35712E-001	-2.76247E-002	-3.86081E-002	7.04938E-001	-4.44203E-002	-7.21430E-008	6.94530E-009	-7.39898E-007	-6.53675E-007	3.37076E-008	4.71095E-008	-8.60164E-007	5.42015E-008
	95	96	1.73118E-001	-1.21859E-006	0.00000E+000	-2.10959E-007	0.00000E+000	3.53188E-002	3.29883E+001	9	...........	5.91860E-002	-5.59208E-003	6.06355E-001	5.35721E-001	-2.75275E-002	-3.85764E-002	7.05030E-001	-4.43924E-002	-7.21234E-008	6.81445E-009	-7.38898E-007	-6.52824E-007	3.35447E-008	4.70088E-008	-8.59143E-007	5.40961E-008
	96	97	1.73571E-001	-1.21441E-006	0.00000E+000	-2.10787E-007	0.00000E+000	3.54061E-002	3.34522E+001	9	...........	5.93431E-002	-5.56361E-003	6.06365E-001	5.35736E-001	-2.74978E-002	-3.85637E-002	7.05086E-001	-4.42829E-002	-7.20668E-008	6.75651E-009	-7.36375E-007	-6.50603E-007	3.33936E-008	4.68322E-008	-8.56263E-007	5.37776E-008
	97	98	1.74013E-001	-1.22566E-006	0.00000E+000	-2.13282E-007	0.00000E+000	3.53131E-002	3.29565E+001	9	...........	5.91769E-002	-5.61583E-003	6.06481E-001	5.35828E-001	-2.75581E-002	-3.85800E-002	7.04785E-001	-4.43933E-002	-7.25310E-008	6.88312E-009	-7.43341E-007	-6.56744E-007	3.37769E-008	4.72861E-008	-8.63829E-007	5.44112E-008
	98	99	1.74454E-001	-1.23853E-006	0.00000E+000	-2.16068E-007	0.00000E+000	3.52226E-002	3.30799E+001	9	...........	5.90383E-002	-5.67569E-003	6.06541E-001	5.35882E-001	-2.75924E-002	-3.86172E-002	7.04826E-001	-4.44289E-002	-7.31210E-008	7.02954E-009	-7.51222E-007	-6.63708E-007	3.41741E-008	4.78287E-008	-8.72951E-007	5.50267E-008
	99	100	1.74892E-001	-1.24334E-006	0.00000E+000	-2.17450E-007	0.00000E+000	3.53493E-002	3.26964E+001	9	...........	5.92199E-002	-5.70500E-003	6.06535E-001	5.35710E-001	-2.75724E-002	-3.86344E-002	7.04900E-001	-4.44319E-002	-7.36304E-008	7.09325E-009	-7.54129E-007	-6.66070E-007	3.42818E-008	4.80357E-008	-8.76431E-007	5.52440E-008
	100	101	1.75312E-001	-1.23601E-006	0.00000E+000	-2.16687E-007	0.00000E+000	3.51915E-002	3.29328E+001	9	...........	5.90043E-002	-5.66194E-003	6.06454E-001	5.35560E-001	-2.75872E-002	-3.86342E-002	7.04871E-001	-4.45674E-002	-7.29297E-008	6.99820E-009	-7.49580E-007	-6.61955E-007	3.40980E-008	4.77520E-008	-8.71224E-007	5.50855E-008
	101	102	1.75743E-001	-1.23575E-006	0.00000E+000	-2.17175E-007	0.00000E+000	3.53584E-002	3.28075E+001	9	...........	5.92835E-002	-5.71625E-003	6.06466E-001	5.35395E-001	-2.76057E-002	-3.86501E-002	7.04889E-001	-4.46447E-002	-7.32598E-008	7.06388E-009	-7.49444E-007	-6.61616E-007	3.41139E-008	4.77621E-008	-8.71070E-007	5.51699E-008
	102	103	1.76159E-001	-1.24359E-006	0.00000E+000	-2.19070E-007	0.00000E+000	3.53261E-002	3.32319E+001	9	...........	5.92133E-002	-5.65056E-003	6.06415E-001	5.35350E-001	-2.76125E-002	-3.86833E-002	7.04890E-001	-4.46317E-002	-7.36371E-008	7.02698E-009	-7.54132E-007	-6.65756E-007	3.43386E-008	4.81062E-008	-8.76595E-007	5.55035E-008
	103	104	1.76586E-001	-1.24072E-006	0.00000E+000	-2.19093E-007	0.00000E+000	3.52947E-002	3.34401E+001	9	...........	5.91544E-002	-5.57931E-003	6.06537E-001	5.35311E-001	-2.76131E-002	-3.86797E-002	7.04776E-001	-4.46257E-002	-7.33940E-008	6.92234E-009	-7.52541E-007	-6.64170E-007	3.42600E-008	4.79906E-008	-8.74429E-007	5.53679E-008
	104	105	1.76996E-001	-1.24248E-006	0.00000E+000	-2.19915E-007	0.00000E+000	3.52394E-002	3.29644E+001	9	...........	5.90756E-002	-5.55333E-003	6.06477E-001	5.35241E-001	-2.76074E-002	-3.86889E-002	7.04794E-001	-4.45337E-002	-7.34004E-008	6.89992E-009	-7.53537E-007	-6.65028E-007	3.43017E-008	4.80703E-008	-8.75694E-007	5.53324E-008
	105	106	1.77411E-001	-1.24546E-006	0.00000E+000	-2.20958E-007	0.00000E+000	3.52577E-002	3.27724E+001	9	...........	5.91081E-002	-5.58597E-003	6.06425E-001	5.35262E-001	-2.76194E-002	-3.86587E-002	7.04862E-001	-4.45883E-002	-7.36168E-008	6.95711E-009	-7.55278E-007	-6.66648E-007	3.43989E-008	4.81480E-008	-8.77879E-007	5.55330E-008
	106	107	1.77815E-001	-1.24139E-006	0.00000E+000	-2.20737E-007	0.00000E+000	3.53359E-002	3.36631E+001	9	...........	5.92549E-002	-5.67139E-003	6.06396E-001	5.35235E-001	-2.76279E-002	-3.86829E-002	7.04772E-001	-4.46037E-002	-7.35582E-008	7.04038E-009	-7.52772E-007	-6.64433E-007	3.42969E-008	4.80204E-008	-8.74894E-007	5.53705E-008
	107	108	1.78226E-001	-1.23963E-006	0.00000E+000	-2.20934E-007	0.00000E+000	3.52586E-002	3.29982E+001	9	...........	5.91122E-002	-5.76319E-003	6.06339E-001	5.35169E-001	-2.76183E-002	-3.86779E-002	7.04887E-001	-4.44453E-002	-7.32773E-008	7.14423E-009	-7.51637E-007	-6.63412E-007	3.42365E-008	4.79463E-008	-8.73800E-007	5.50957E-008
	108	109	1.78617E-001	-1.22846E-006	0.00000E+000	-2.19425E-007	0.00000E+000	3.52043E-002	3.29530E+001	9	...........	5.90389E-002	-5.54306E-003	6.06218E-001	5.35196E-001	-2.75721E-002	-3.86581E-002	7.04938E-001	-4.43321E-002	-7.25271E-008	6.80944E-009	-7.44716E-007	-6.57469E-007	3.38713E-008	4.74900E-008	-8.65990E-007	5.44603E-008
	109	110	1.79009E-001	-1.23583E-006	0.00000E+000	-2.21224E-007	0.00000E+000	3.53623E-002	3.29945E+001	9	...........	5.92750E-002	-5.59597E-003	6.06137E-001	5.35194E-001	-2.76144E-002	-3.86435E-002	7.04757E-001	-4.43293E-002	-7.32537E-008	6.91566E-009	-7.49081E-007	-6.61408E-007	3.41267E-008	4.77567E-008	-8.70959E-007	5.47834E-008
	110	111	1.79405E-001	-1.24484E-006	0.00000E+000	-2.23331E-007	0.00000E+000	3.52783E-002	3.32154E+001	9	...........	5.91494E-002	-5.56444E-003	6.06120E-001	5.35197E-001	-2.76035E-002	-3.86493E-002	7.04580E-001	-4.43472E-002	-7.36318E-008	6.92687E-009	-7.54525E-007	-6.66237E-007	3.43620E-008	4.81124E-008	-8.77092E-007	5.52054E-008
	111	112	1.79787E-001	-1.24722E-006	0.00000E+000	-2.24233E-007	0.00000E+000	3.52120E-002	3.32792E+001	9	...........	5.90447E-002	-5.52944E-003	6.06133E-001	5.35362E-001	-2.76053E-002	-3.86424E-002	7.04639E-001	-4.45664E-002	-7.36415E-008	6.89641E-009	-7.55978E-007	-6.67712E-007	3.44297E-008	4.81954E-008	-8.78836E-007	5.55839E-008
	112	113	1.80181E-001	-1.24351E-006	0.00000E+000	-2.24057E-007	0.00000E+000	3.53272E-002	3.34569E+001	9	...........	5.91926E-002	-5.52806E-003	6.06297E-001	5.35347E-001	-2.75950E-002	-3.86311E-002	7.04755E-001	-4.45210E-002	-7.36065E-008	6.87418E-009	-7.53935E-007	-6.65708E-007	3.43146E-008	4.80380E-008	-8.76368E-007	5.53621E-008
	113	114	1.80562E-001	-1.24545E-006	0.00000E+000	-2.24880E-007	0.00000E+000	3.53373E-002	3.29653E+001	9	...........	5.92483E-002	-5.56167E-003	6.06216E-001	5.35281E-001	-2.75617E-002	-3.86192E-002	7.04719E-001	-4.44062E-002	-7.37909E-008	6.92678E-009	-7.55012E-007	-6.66666E-007	3.43267E-008	4.80983E-008	-8.77692E-007	5.53058E-008
	114	115	1.80930E-001	-1.23271E-006	0.00000E+000	-2.23035E-007	0.00000E+000	3.51847E-002	3.25074E+001	9	...........	5.89894E-002	-5.55792E-003	6.06271E-001	5.35303E-001	-2.75385E-002	-3.86357E-002	7.04773E-001	-4.44044E-002	-7.27171E-008	6.85133E-009	-7.47359E-007	-6.59876E-007	3.39471E-008	4.76268E-008	-8.68784E-007	5.47380E-008
	115	116	1.81300E-001	-1.23018E-006	0.00000E+000	-2.23031E-007	0.00000E+000	3.53135E-002	3.31666E+001	9	...........	5.91947E-002	-5.50889E-003	6.06241E-001	5.35372E-001	-2.75569E-002	-3.86511E-002	7.04809E-001	-4.44235E-002	-7.28199E-008	6.77690E-009	-7.45782E-007	-6.58602E-007	3.38999E-008	4.75477E-008	-8.67040E-007	5.46487E-008
	116	117	1.81671E-001	-1.24576E-006	0.00000E+000	-2.26319E-007	0.00000E+000	3.53791E-002	3.27583E+001	9	...........	5.92926E-002	-5.71028E-003	6.06195E-001	5.35426E-001	-2.75797E-002	-3.87062E-002	7.04753E-001	-4.44108E-002	-7.38646E-008	7.11366E-009	-7.55176E-007	-6.67015E-007	3.43578E-008	4.82188E-008	-8.77956E-007	5.53254E-008
	117	118	1.82037E-001	-1.23598E-006	0.00000E+000	-2.24995E-007	0.00000E+000	3.51557E-002	3.21040E+001	9	...........	5.89685E-002	-5.78472E-003	6.06203E-001	5.35243E-001	-2.75865E-002	-3.86544E-002	7.04707E-001	-4.43500E-002	-7.28841E-008	7.14983E-009	-7.49258E-007	-6.61553E-007	3.40965E-008	4.77763E-008	-8.71007E-007	5.48159E-008
	118	119	1.82391E-001	-1.24228E-006	0.00000E+000	-2.26582E-007	0.00000E+000	3.54127E-002	3.22483E+001	9	...........	5.93550E-002	-5.65000E-003	6.06373E-001	5.35303E-001	-2.75753E-002	-3.86486E-002	7.04721E-001	-4.44387E-002	-7.37358E-008	7.01891E-009	-7.53288E-007	-6.64999E-007	3.42563E-008	4.80126E-008	-8.75464E-007	5.52056E-008
	119	120	1.82753E-001	-1.24070E-006	0.00000E+000	-2.26741E-007	0.00000E+000	3.53418E-002	3.24003E+001	9	...........	5.92457E-002	-5.73528E-003	6.06208E-001	5.35399E-001	-2.75589E-002	-3.86319E-002	7.04793E-001	-4.45225E-002	-7.35059E-008	7.11574E-009	-7.52121E-007	-6.64267E-007	3.41922E-008	4.79305E-008	-8.74434E-007	5.52389E-008
	120	121	1.83107E-001	-1.24480E-006	0.00000E+000	-2.27932E-007	0.00000E+000	3.52563E-002	3.27740E+001	9	...........	5.91581E-002	-5.69222E-003	6.06010E-001	5.35266E-001	-2.76018E-002	-3.86628E-002	7.04898E-001	-4.44529E-002	-7.36401E-008	7.08569E-009	-7.54363E-007	-6.66300E-007	3.43588E-008	4.81275E-008	-8.77459E-007	5.53351E-008
	121	122	1.83453E-001	-1.23707E-006	0.00000E+000	-2.26944E-007	0.00000E+000	3.53561E-002	3.27803E+001	9	...........	5.92299E-002	-5.53972E-003	6.05962E-001	5.35333E-001	-2.75644E-002	-3.86075E-002	7.04947E-001	-4.44321E-002	-7.32716E-008	6.85303E-009	-7.49618E-007	-6.62245E-007	3.40992E-008	4.77602E-008	-8.72070E-007	5.49656E-008
	122	123	1.83811E-001	-1.23840E-006	0.00000E+000	-2.27632E-007	0.00000E+000	3.53549E-002	3.26482E+001	9	...........	5.92515E-002	-5.61236E-003	6.05936E-001	5.35457E-001	-2.75760E-002	-3.85954E-002	7.04983E-001	-4.43912E-002	-7.33770E-008	6.95034E-009	-7.50390E-007	-6.63108E-007	3.41500E-008	4.77965E-008	-8.73050E-007	5.49740E-008
	123	124	1.84150E-001	-1.23905E-006	0.00000E+000	-2.28171E-007	0.00000E+000	3.53099E-002	3.24607E+001	9	...........	5.91928E-002	-5.57194E-003	6.05782E-001	5.35288E-001	-2.76150E-002	-3.86097E-002	7.04916E-001	-4.43821E-002	-7.33426E-008	6.90389E-009	-7.50592E-007	-6.63247E-007	3.42163E-008	4.78392E-008	-8.73423E-007	5.49914E-008
	124	125	1.84491E-001	-1.22820E-006	0.00000E+000	-2.26592E-007	0.00000E+000	3.52602E-002	3.25590E+001	9	...........	5.91387E-002	-5.58069E-003	6.05504E-001	5.35341E-001	-2.75725E-002	-3.86156E-002	7.04962E-001	-4.43953E-002	-7.26343E-008	6.85422E-009	-7.43680E-007	-6.57506E-007	3.38646E-008	4.74277E-008	-8.65835E-007	5.45263E-008
	125	126	1.84839E-001	-1.22230E-006	0.00000E+000	-2.25928E-007	0.00000E+000	3.54160E-002	3.30519E+001	9	...........	5.93464E-002	-5.69806E-003	6.05410E-001	5.35281E-001	-2.75561E-002	-3.86086E-002	7.05002E-001	-4.43214E-002	-7.25390E-008	6.96472E-009	-7.39991E-007	-6.54274E-007	3.36818E-008	4.71912E-008	-8.61722E-007	5.41740E-008
	126	127	1.85180E-001	-1.23418E-006	0.00000E+000	-2.28545E-007	0.00000E+000	3.53948E-002	3.29343E+001	9	...........	5.93344E-002	-5.70167E-003	6.05265E-001	5.35429E-001	-2.76071E-002	-3.86537E-002	7.04886E-001	-4.43146E-002	-7.32292E-008	7.03687E-009	-7.47004E-007	-6.60815E-007	3.40720E-008	4.77056E-008	-8.69954E-007	5.46920E-008
	127	128	1.85525E-001	-1.22914E-006	0.00000E+000	-2.28037E-007	0.00000E+000	3.52745E-002	3.30632E+001	9	...........	5.91319E-002	-5.54000E-003	6.05288E-001	5.35521E-001	-2.75557E-002	-3.86206E-002	7.04969E-001	-4.44090E-002	-7.26815E-008	6.80944E-009	-7.43985E-007	-6.58231E-007	3.38698E-008	4.74701E-008	-8.66507E-007	5.45850E-008
	128	129	1.85858E-001	-1.23216E-006	0.00000E+000	-2.29007E-007	0.00000E+000	3.53343E-002	3.25790E+001	9	...........	5.91935E-002	-5.46361E-003	6.05511E-001	5.35522E-001	-2.75532E-002	-3.86264E-002	7.04884E-001	-4.44354E-002	-7.29359E-008	6.73205E-009	-7.46087E-007	-6.59849E-007	3.39500E-008	4.75939E-008	-8.68530E-007	5.47516E-008
	129	130	1.86177E-001	-1.22964E-006	0.00000E+000	-2.28931E-007	0.00000E+000	3.52958E-002	3.24438E+001	9	...........	5.91749E-002	-5.54597E-003	6.05527E-001	5.35333E-001	-2.75992E-002	-3.86521E-002	7.04870E-001	-4.45347E-002	-7.27640E-008	6.81957E-009	-7.44582E-007	-6.58269E-007	3.39371E-008	4.75283E-008	-8.66738E-007	5.47618E-008
	130	131	1.86511E-001	-1.22381E-006	0.00000E+000	-2.28255E-007	0.00000E+000	3.53400E-002	3.29086E+001	9	...........	5.92347E-002	-5.52139E-003	6.05342E-001	5.35343E-001	-2.75569E-002	-3.86917E-002	7.04736E-001	-4.45772E-002	-7.24922E-008	6.75715E-009	-7.40826E-007	-6.55159E-007	3.37246E-008	4.73514E-008	-8.62466E-007	5.45542E-008
	131	132	1.86839E-001	-1.22197E-006	0.00000E+000	-2.28313E-007	0.00000E+000	3.53406E-002	3.31338E+001	9	...........	5.92358E-002	-5.56222E-003	6.05201E-001	5.35330E-001	-2.75647E-002	-3.86594E-002	7.04748E-001	-4.44757E-002	-7.23847E-008	6.79689E-009	-7.39540E-007	-6.54160E-007	3.36834E-008	4.72408E-008	-8.61184E-007	5.43482E-008
	132	133	1.87160E-001	-1.22832E-006	0.00000E+000	-2.29892E-007	0.00000E+000	3.53324E-002	3.32237E+001	9	...........	5.92490E-002	-5.63653E-003	6.05140E-001	5.35414E-001	-2.75219E-002	-3.86368E-002	7.04907E-001	-4.44486E-002	-7.27765E-008	6.92344E-009	-7.43303E-007	-6.57658E-007	3.38056E-008	4.74582E-008	-8.65849E-007	5.45969E-008
	133	134	1.87483E-001	-1.22019E-006	0.00000E+000	-2.28765E-007	0.00000E+000	3.53182E-002	3.20281E+001	9	...........	5.92042E-002	-5.72458E-003	6.04930E-001	5.35416E-001	-2.75036E-002	-3.86283E-002	7.04882E-001	-4.44431E-002	-7.22402E-008	6.98507E-009	-7.38128E-007	-6.53308E-007	3.35596E-008	4.71338E-008	-8.60088E-007	5.42289E-008
	134	135	1.87801E-001	-1.22921E-006	0.00000E+000	-2.30848E-007	0.00000E+000	3.53738E-002	3.27017E+001	9	...........	5.92957E-002	-5.72125E-003	6.04886E-001	5.35505E-001	-2.74817E-002	-3.85810E-002	7.04857E-001	-4.43147E-002	-7.28871E-008	7.03264E-009	-7.43535E-007	-6.58250E-007	3.37809E-008	4.74243E-008	-8.66421E-007	5.44723E-008
	135	136	1.88113E-001	-1.23367E-006	0.00000E+000	-2.32069E-007	0.00000E+000	3.53484E-002	3.28299E+001	9	...........	5.92707E-002	-5.68278E-003	6.04926E-001	5.35593E-001	-2.75643E-002	-3.86401E-002	7.04759E-001	-4.44083E-002	-7.31202E-008	7.01065E-009	-7.46276E-007	-6.60743E-007	3.40051E-008	4.76690E-008	-8.69437E-007	5.47850E-008
	136	137	1.88428E-001	-1.23077E-006	0.00000E+000	-2.31912E-007	0.00000E+000	3.52805E-002	3.29000E+001	9	...........	5.91350E-002	-5.63292E-003	6.04875E-001	5.35696E-001	-2.75417E-002	-3.85996E-002	7.04809E-001	-4.43650E-002	-7.27817E-008	6.93283E-009	-7.44463E-007	-6.59319E-007	3.38975E-008	4.75073E-008	-8.67458E-007	5.46032E-008
	137	138	1.88742E-001	-1.22132E-006	0.00000E+000	-2.30514E-007	0.00000E+000	3.54281E-002	3.28218E+001	9	...........	5.93782E-002	-5.46944E-003	6.04882E-001	5.35774E-001	-2.74985E-002	-3.85335E-002	7.04828E-001	-4.41896E-002	-7.25196E-008	6.67992E-009	-7.38752E-007	-6.54349E-007	3.35843E-008	4.70616E-008	-8.60818E-007	5.39695E-008
	138	139	1.89044E-001	-1.22474E-006	0.00000E+000	-2.31530E-007	0.00000E+000	3.53412E-002	3.29329E+001	9	...........	5.92429E-002	-5.44764E-003	6.04732E-001	5.35829E-001	-2.74794E-002	-3.85092E-002	7.04755E-001	-4.43396E-002	-7.25573E-008	6.67196E-009	-7.40641E-007	-6.56253E-007	3.36553E-008	4.71638E-008	-8.63143E-007	5.43046E-008
	139	140	1.89350E-001	-1.22831E-006	0.00000E+000	-2.32580E-007	0.00000E+000	3.53516E-002	3.34441E+001	9	...........	5.92437E-002	-5.41875E-003	6.04827E-001	5.35939E-001	-2.75182E-002	-3.84964E-002	7.04760E-001	-4.45010E-002	-7.27694E-008	6.65588E-009	-7.42913E-007	-6.58297E-007	3.38008E-008	4.72853E-008	-8.65661E-007	5.46608E-008
	140	141	1.89667E-001	-1.23347E-006	0.00000E+000	-2.33949E-007	0.00000E+000	3.54108E-002	3.31440E+001	9	...........	5.93200E-002	-5.48500E-003	6.04801E-001	5.35817E-001	-2.75278E-002	-3.85057E-002	7.04750E-001	-4.44162E-002	-7.31693E-008	6.76556E-009	-7.46002E-007	-6.60913E-007	3.39546E-008	4.74955E-008	-8.69285E-007	5.47860E-008
	141	142	1.89966E-001	-1.22643E-006	0.00000E+000	-2.32979E-007	0.00000E+000	3.53059E-002	3.29913E+001	9	...........	5.91762E-002	-5.53111E-003	6.04790E-001	5.35842E-001	-2.75233E-002	-3.84657E-002	7.04806E-001	-4.43540E-002	-7.25752E-008	6.78349E-009	-7.41729E-007	-6.57170E-007	3.37553E-008	4.71753E-008	-8.64392E-007	5.43969E-008
	142	143	1.90264E-001	-1.23029E-006	0.00000E+000	-2.34081E-007	0.00000E+000	3.53382E-002	3.33463E+001	9	...........	5.92553E-002	-5.62403E-003	6.04764E-001	5.35845E-001	-2.75579E-002	-3.85046E-002	7.04815E-001	-4.44724E-002	-7.29012E-008	6.91919E-009	-7.44035E-007	-6.59245E-007	3.39043E-008	4.73718E-008	-8.67128E-007	5.47139E-008
	143	144	1.90570E-001	-1.23642E-006	0.00000E+000	-2.35625E-007	0.00000E+000	3.53564E-002	3.25163E+001	9	...........	5.92810E-002	-5.65111E-003	6.04854E-001	5.35848E-001	-2.75624E-002	-3.85086E-002	7.04749E-001	-4.44493E-002	-7.32964E-008	6.98717E-009	-7.47855E-007	-6.62535E-007	3.40788E-008	4.76130E-008	-8.71368E-007	5.49582E-008
	144	145	1.90859E-001	-1.23894E-006	0.00000E+000	-2.36463E-007	0.00000E+000	3.52890E-002	3.29508E+001	9	...........	5.91690E-002	-5.67125E-003	6.04778E-001	5.35645E-001	-2.76086E-002	-3.85406E-002	7.04807E-001	-4.44049E-002	-7.33070E-008	7.02635E-009	-7.49284E-007	-6.63633E-007	3.42055E-008	4.77495E-008	-8.73215E-007	5.50150E-008
	145	146	1.91143E-001	-1.24687E-006	0.00000E+000	-2.38331E-007	0.00000E+000	3.53059E-002	3.31105E+001	9	...........	5.91725E-002	-5.64403E-003	6.04710E-001	5.35656E-001	-2.76236E-002	-3.85814E-002	7.04759E-001	-4.43131E-002	-7.37805E-008	7.03738E-009	-7.53995E-007	-6.67894E-007	3.44431E-008	4.81060E-008	-8.78744E-007	5.52527E-008
	146	147	1.91441E-001	-1.24232E-006	0.00000E+000	-2.37830E-007	0.00000E+000	3.53574E-002	3.35076E+001	9	...........	5.92815E-002	-5.65028E-003	6.04894E-001	5.35710E-001	-2.75910E-002	-3.85843E-002	7.04789E-001	-4.43997E-002	-7.36464E-008	7.01943E-009	-7.51470E-007	-6.65522E-007	3.42767E-008	4.79339E-008	-8.75571E-007	5.51585E-008
	147	148	1.91738E-001	-1.24245E-006	0.00000E+000	-2.38225E-007	0.00000E+000	3.53657E-002	3.32887E+001	9	...........	5.93004E-002	-5.65000E-003	6.04994E-001	5.35793E-001	-2.76204E-002	-3.85726E-002	7.04831E-001	-4.43825E-002	-7.36779E-008	7.01985E-009	-7.51676E-007	-6.65697E-007	3.43170E-008	4.79246E-008	-8.75719E-007	5.51431E-008
	148	149	1.92014E-001	-1.24824E-006	0.00000E+000	-2.39680E-007	0.00000E+000	3.52041E-002	3.28531E+001	9	...........	5.90300E-002	-5.53139E-003	6.04970E-001	5.35642E-001	-2.76385E-002	-3.85697E-002	7.04830E-001	-4.45026E-002	-7.36836E-008	6.90450E-009	-7.55148E-007	-6.68609E-007	3.44994E-008	4.81443E-008	-8.79797E-007	5.55500E-008
	149	150	1.92303E-001	-1.24221E-006	0.00000E+000	-2.38880E-007	0.00000E+000	3.53581E-002	3.37784E+001	9	...........	5.92765E-002	-5.52556E-003	6.05071E-001	5.35642E-001	-2.76524E-002	-3.85611E-002	7.04897E-001	-4.45310E-002	-7.36340E-008	6.86391E-009	-7.51626E-007	-6.65380E-007	3.43501E-008	4.79011E-008	-8.75632E-007	5.53169E-008
	150	151	1.92594E-001	-1.24336E-006	0.00000E+000	-2.39464E-007	0.00000E+000	3.53022E-002	3.31107E+001	9	...........	5.91732E-002	-5.56542E-003	6.05137E-001	5.35591E-001	-2.76208E-002	-3.85564E-002	7.04824E-001	-4.44437E-002	-7.35736E-008	6.91982E-009	-7.52404E-007	-6.65933E-007	3.43427E-008	4.79395E-008	-8.76350E-007	5.52596E-008
	151	152	1.92870E-001	-1.24567E-006	0.00000E+000	-2.40252E-007	0.00000E+000	3.53618E-002	3.27209E+001	9	...........	5.92832E-002	-5.40931E-003	6.05037E-001	5.35652E-001	-2.76290E-002	-3.85207E-002	7.04766E-001	-4.43906E-002	-7.38473E-008	6.73821E-009	-7.53677E-007	-6.67245E-007	3.44166E-008	4.79841E-008	-8.77906E-007	5.52960E-008
	152	153	1.93143E-001	-1.24632E-006	0.00000E+000	-2.40718E-007	0.00000E+000	3.52617E-002	3.28448E+001	9	...........	5.90896E-002	-5.47472E-003	6.05141E-001	5.35625E-001	-2.76226E-002	-3.85132E-002	7.04720E-001	-4.45558E-002	-7.36444E-008	6.82324E-009	-7.54198E-007	-6.67559E-007	3.44266E-008	4.79997E-008	-8.78305E-007	5.55307E-008
	153	154	1.93424E-001	-1.24430E-006	0.00000E+000	-2.40677E-007	0.00000E+000	3.53430E-002	3.33687E+001	9	...........	5.92514E-002	-5.52681E-003	6.05114E-001	5.35606E-001	-2.76396E-002	-3.84950E-002	7.04711E-001	-4.46649E-002	-7.37266E-008	6.87701E-009	-7.52944E-007	-6.66455E-007	3.43920E-008	4.78994E-008	-8.76872E-007	5.55765E-008
	154	155	1.93690E-001	-1.23774E-006	0.00000E+000	-2.39738E-007	0.00000E+000	3.52696E-002	3.30810E+001	9	...........	5.91276E-002	-5.63944E-003	6.05006E-001	5.35502E-001	-2.76257E-002	-3.85387E-002	7.04729E-001	-4.45439E-002	-7.31846E-008	6.98017E-009	-7.48840E-007	-6.62813E-007	3.41934E-008	4.77009E-008	-8.72271E-007	5.51337E-008
	155	156	1.93962E-001	-1.24413E-006	0.00000E+000	-2.41314E-007	0.00000E+000	3.53228E-002	3.33277E+001	9	...........	5.92360E-002	-5.70319E-003	6.04780E-001	5.35429E-001	-2.76053E-002	-3.85094E-002	7.04799E-001	-4.44835E-002	-7.36975E-008	7.09554E-009	-7.52427E-007	-6.66146E-007	3.43447E-008	4.79109E-008	-8.76864E-007	5.53434E-008
	156	157	1.94245E-001	-1.24591E-006	0.00000E+000	-2.42012E-007	0.00000E+000	3.53403E-002	3.37826E+001	9	...........	5.92632E-002	-5.82708E-003	6.04654E-001	5.35208E-001	-2.76317E-002	-3.85362E-002	7.04777E-001	-4.45275E-002	-7.38366E-008	7.26002E-009	-7.53345E-007	-6.66821E-007	3.44266E-008	4.80127E-008	-8.78088E-007	5.54773E-008
	157	158	1.94504E-001	-1.23577E-006	0.00000E+000	-2.40361E-007	0.00000E+000	3.53078E-002	3.30245E+001	9	...........	5.92047E-002	-5.61097E-003	6.04634E-001	5.35351E-001	-2.75582E-002	-3.85021E-002	7.04752E-001	-4.44340E-002	-7.31631E-008	6.93385E-009	-7.47186E-007	-6.61569E-007	3.40555E-008	4.75795E-008	-8.70908E-007	5.49100E-008
	158	159	1.94768E-001	-1.23978E-006	0.00000E+000	-2.41469E-007	0.00000E+000	3.53356E-002	3.34208E+001	9	...........	5.92006E-002	-5.64194E-003	6.04752E-001	5.35266E-001	-2.75551E-002	-3.84635E-002	7.04911E-001	-4.43665E-002	-7.33955E-008	6.99475E-009	-7.49758E-007	-6.63611E-007	3.41622E-008	4.76861E-008	-8.73932E-007	5.50046E-008
	159	160	1.95043E-001	-1.23162E-006	0.00000E+000	-2.40219E-007	0.00000E+000	3.53763E-002	3.33107E+001	9	...........	5.92735E-002	-5.53625E-003	6.04720E-001	5.35245E-001	-2.74993E-002	-3.84726E-002	7.04881E-001	-4.44017E-002	-7.30022E-008	6.81854E-009	-7.44784E-007	-6.59217E-007	3.38686E-008	4.73836E-008	-8.68144E-007	5.46859E-008
	160	161	1.95300E-001	-1.22536E-006	0.00000E+000	-2.39312E-007	0.00000E+000	3.53572E-002	3.32317E+001	9	...........	5.92537E-002	-5.50819E-003	6.04753E-001	5.35158E-001	-2.75235E-002	-3.84286E-002	7.04903E-001	-4.44324E-002	-7.26071E-008	6.74952E-009	-7.41039E-007	-6.55761E-007	3.37261E-008	4.70889E-008	-8.63759E-007	5.44456E-008
	161	162	1.95563E-001	-1.23813E-006	0.00000E+000	-2.42132E-007	0.00000E+000	3.53127E-002	3.36081E+001	9	...........	5.92047E-002	-5.44736E-003	6.04909E-001	5.35138E-001	-2.75218E-002	-3.84579E-002	7.04913E-001	-4.44754E-002	-7.33029E-008	6.74452E-009	-7.48954E-007	-6.62568E-007	3.40755E-008	4.76158E-008	-8.72771E-007	5.50662E-008
	162	163	1.95823E-001	-1.23324E-006	0.00000E+000	-2.41497E-007	0.00000E+000	3.53255E-002	3.21138E+001	9	...........	5.92367E-002	-5.46667E-003	6.04982E-001	5.35236E-001	-2.75046E-002	-3.84229E-002	7.04964E-001	-4.44971E-002	-7.30529E-008	6.74170E-009	-7.46087E-007	-6.60073E-007	3.39197E-008	4.73846E-008	-8.69387E-007	5.48754E-008
	163	164	1.96069E-001	-1.22491E-006	0.00000E+000	-2.40167E-007	0.00000E+000	3.53445E-002	3.31489E+001	9	...........	5.92285E-002	-5.45556E-003	6.05182E-001	5.35355E-001	-2.74357E-002	-3.84194E-002	7.04981E-001	-4.44850E-002	-7.25496E-008	6.68257E-009	-7.41293E-007	-6.55762E-007	3.36063E-008	4.70604E-008	-8.63539E-007	5.44901E-008
	164	165	1.96321E-001	-1.22528E-006	0.00000E+000	-2.40547E-007	0.00000E+000	3.54652E-002	3.30524E+001	9	...........	5.94387E-002	-5.52389E-003	6.05321E-001	5.35451E-001	-2.74814E-002	-3.84356E-002	7.04983E-001	-4.44281E-002	-7.28289E-008	6.76829E-009	-7.41685E-007	-6.56075E-007	3.36723E-008	4.70942E-008	-8.63799E-007	5.44366E-008
	165	166	1.96584E-001	-1.22016E-006	0.00000E+000	-2.39864E-007	0.00000E+000	3.53732E-002	3.31730E+001	9	...........	5.93024E-002	-5.51583E-003	6.05490E-001	5.35363E-001	-2.74801E-002	-3.84311E-002	7.04933E-001	-4.45219E-002	-7.23582E-008	6.73018E-009	-7.38792E-007	-6.53227E-007	3.35301E-008	4.68920E-008	-8.60128E-007	5.43237E-008
	166	167	1.96833E-001	-1.22407E-006	0.00000E+000	-2.40938E-007	0.00000E+000	3.54283E-002	3.31744E+001	9	...........	5.93862E-002	-5.54875E-003	6.05464E-001	5.35430E-001	-2.74968E-002	-3.84462E-002	7.04869E-001	-4.45478E-002	-7.26932E-008	6.79208E-009	-7.41133E-007	-6.55406E-007	3.36581E-008	4.70611E-008	-8.62812E-007	5.45298E-008
	167	168	1.97075E-001	-1.22036E-006	0.00000E+000	-2.40501E-007	0.00000E+000	3.53113E-002	3.26348E+001	9	...........	5.91728E-002	-5.44903E-003	6.05453E-001	5.35328E-001	-2.75083E-002	-3.84418E-002	7.04844E-001	-4.44636E-002	-7.22118E-008	6.64975E-009	-7.38868E-007	-6.53290E-007	3.35699E-008	4.69126E-008	-8.60159E-007	5.42614E-008
	168	169	1.97322E-001	-1.22449E-006	0.00000E+000	-2.41620E-007	0.00000E+000	3.53121E-002	3.30086E+001	9	...........	5.91665E-002	-5.47153E-003	6.05390E-001	5.35333E-001	-2.74994E-002	-3.84460E-002	7.04830E-001	-4.44312E-002	-7.24490E-008	6.69984E-009	-7.41295E-007	-6.55511E-007	3.36729E-008	4.70768E-008	-8.63058E-007	5.44057E-008
	169	170	1.97570E-001	-1.21496E-006	0.00000E+000	-2.40041E-007	0.00000E+000	3.55228E-002	3.33172E+001	9	...........	5.94954E-002	-5.52264E-003	6.05528E-001	5.35259E-001	-2.74611E-002	-3.84197E-002	7.05010E-001	-4.45336E-002	-7.22848E-008	6.70981E-009	-7.35695E-007	-6.50320E-007	3.33643E-008	4.66786E-008	-8.56562E-007	5.41067E-008
	170	171	1.97811E-001	-1.21918E-006	0.00000E+000	-2.41168E-007	0.00000E+000	3.53354E-002	3.31519E+001	9	...........	5.92328E-002	-5.57750E-003	6.05504E-001	5.35289E-001	-2.75025E-002	-3.84256E-002	7.04987E-001	-4.44212E-002	-7.22157E-008	6.80000E-009	-7.38221E-007	-6.52616E-007	3.35306E-008	4.68479E-008	-8.59510E-007	5.41577E-008
	171	172	1.98059E-001	-1.21921E-006	0.00000E+000	-2.41475E-007	0.00000E+000	3.54232E-002	3.34244E+001	9	...........	5.93774E-002	-5.58028E-003	6.05578E-001	5.35450E-001	-2.74847E-002	-3.84025E-002	7.04959E-001	-4.45033E-002	-7.23932E-008	6.80351E-009	-7.38325E-007	-6.52824E-007	3.35095E-008	4.68205E-008	-8.59490E-007	5.42587E-008
	172	173	1.98311E-001	-1.23038E-006	0.00000E+000	-2.43999E-007	0.00000E+000	3.54277E-002	3.31972E+001	9	...........	5.93490E-002	-5.57444E-003	6.05602E-001	5.35385E-001	-2.75131E-002	-3.84311E-002	7.04944E-001	-4.44231E-002	-7.30221E-008	6.85871E-009	-7.45123E-007	-6.58730E-007	3.38516E-008	4.72850E-008	-8.67353E-007	5.46575E-008
	173	174	1.98537E-001	-1.23977E-006	0.00000E+000	-2.46140E-007	0.00000E+000	3.52597E-002	3.28099E+001	9	...........	5.90947E-002	-5.60278E-003	6.05532E-001	5.35418E-001	-2.75374E-002	-3.84951E-002	7.04914E-001	-4.44890E-002	-7.32637E-008	6.94614E-009	-7.50718E-007	-6.63794E-007	3.41399E-008	4.77250E-008	-8.73929E-007	5.51560E-008
	174	175	1.98772E-001	-1.23659E-006	0.00000E+000	-2.45799E-007	0.00000E+000	3.53492E-002	3.32621E+001	9	...........	5.92458E-002	-5.62042E-003	6.05535E-001	5.35305E-001	-2.75692E-002	-3.85019E-002	7.04838E-001	-4.44571E-002	-7.32628E-008	6.95015E-009	-7.48799E-007	-6.61953E-007	3.40918E-008	4.76111E-008	-8.71596E-007	5.49752E-008
	175	176	1.99019E-001	-1.24196E-006	0.00000E+000	-2.47174E-007	0.00000E+000	3.55113E-002	3.35061E+001	9	...........	5.95390E-002	-5.60528E-003	6.05617E-001	5.35449E-001	-2.75493E-002	-3.84961E-002	7.04808E-001	-4.44749E-002	-7.39451E-008	6.96154E-009	-7.52153E-007	-6.65007E-007	3.42152E-008	4.78107E-008	-8.75344E-007	5.52360E-008
	176	177	1.99250E-001	-1.22834E-006	0.00000E+000	-2.44747E-007	0.00000E+000	3.52710E-002	3.29793E+001	9	...........	5.90892E-002	-5.74514E-003	6.05665E-001	5.35467E-001	-2.75564E-002	-3.84800E-002	7.04763E-001	-4.43285E-002	-7.25814E-008	7.05697E-009	-7.43960E-007	-6.57734E-007	3.38485E-008	4.72664E-008	-8.65687E-007	5.44503E-008
	177	178	1.99481E-001	-1.23401E-006	0.00000E+000	-2.46161E-007	0.00000E+000	3.53150E-002	3.33496E+001	9	...........	5.92054E-002	-5.72542E-003	6.05649E-001	5.35311E-001	-2.75907E-002	-3.84954E-002	7.04774E-001	-4.43060E-002	-7.30601E-008	7.06522E-009	-7.47377E-007	-6.60579E-007	3.40472E-008	4.75037E-008	-8.69699E-007	5.46740E-008
	178	179	1.99721E-001	-1.24702E-006	0.00000E+000	-2.49055E-007	0.00000E+000	3.53923E-002	3.28141E+001	9	...........	5.93158E-002	-5.72278E-003	6.05606E-001	5.35285E-001	-2.75821E-002	-3.84968E-002	7.04672E-001	-4.43544E-002	-7.39679E-008	7.13640E-009	-7.55201E-007	-6.67509E-007	3.43953E-008	4.80062E-008	-8.78739E-007	5.53108E-008
	179	180	1.99947E-001	-1.24389E-006	0.00000E+000	-2.48712E-007	0.00000E+000	3.52795E-002	3.30081E+001	9	...........	5.91340E-002	-5.73375E-003	6.05705E-001	5.35390E-001	-2.76174E-002	-3.85047E-002	7.04696E-001	-4.43903E-002	-7.35564E-008	7.13217E-009	-7.53432E-007	-6.65968E-007	3.43531E-008	4.78958E-008	-8.76567E-007	5.52168E-008
	180	181	2.00173E-001	-1.23984E-006	0.00000E+000	-2.48182E-007	0.00000E+000	3.53757E-002	3.32961E+001	9	...........	5.92918E-002	-5.70500E-003	6.05752E-001	5.35423E-001	-2.75915E-002	-3.84718E-002	7.04804E-001	-4.43329E-002	-7.35123E-008	7.07329E-009	-7.51036E-007	-6.63839E-007	3.42091E-008	4.76989E-008	-8.73845E-007	5.49657E-008
	181	182	2.00398E-001	-1.23095E-006	0.00000E+000	-2.46680E-007	0.00000E+000	3.53653E-002	3.28861E+001	9	...........	5.92790E-002	-5.62667E-003	6.05745E-001	5.35305E-001	-2.75624E-002	-3.84272E-002	7.04839E-001	-4.42396E-002	-7.29695E-008	6.92614E-009	-7.45641E-007	-6.58933E-007	3.39279E-008	4.73019E-008	-8.67620E-007	5.44567E-008
	182	183	2.00633E-001	-1.23515E-006	0.00000E+000	-2.47812E-007	0.00000E+000	3.53788E-002	3.35317E+001	9	...........	5.92796E-002	-5.56528E-003	6.05681E-001	5.35267E-001	-2.75503E-002	-3.84837E-002	7.04856E-001	-4.43417E-002	-7.32191E-008	6.87395E-009	-7.48106E-007	-6.61135E-007	3.40287E-008	4.75332E-008	-8.70603E-007	5.47686E-008
	183	184	2.00855E-001	-1.22527E-006	0.00000E+000	-2.46100E-007	0.00000E+000	3.53817E-002	3.31270E+001	9	...........	5.92910E-002	-5.53194E-003	6.05605E-001	5.35128E-001	-2.75449E-002	-3.84942E-002	7.04937E-001	-4.43628E-002	-7.26472E-008	6.77810E-009	-7.42027E-007	-6.55674E-007	3.37498E-008	4.71656E-008	-8.63735E-007	5.43562E-008
	184	185	2.01074E-001	-1.23953E-006	0.00000E+000	-2.49236E-007	0.00000E+000	3.53322E-002	3.35926E+001	9	...........	5.91964E-002	-5.65722E-003	6.05499E-001	5.35327E-001	-2.75457E-002	-3.85558E-002	7.04845E-001	-4.44514E-002	-7.33755E-008	7.01228E-009	-7.50532E-007	-6.63552E-007	3.41436E-008	4.77910E-008	-8.73674E-007	5.50987E-008
	185	186	2.01301E-001	-1.22720E-006	0.00000E+000	-2.47036E-007	0.00000E+000	3.53806E-002	3.29729E+001	9	...........	5.92997E-002	-5.59944E-003	6.05605E-001	5.35455E-001	-2.75153E-002	-3.85264E-002	7.04821E-001	-4.44583E-002	-7.27725E-008	6.87163E-009	-7.43197E-007	-6.57110E-007	3.37667E-008	4.72795E-008	-8.64955E-007	5.45592E-008
	186	187	2.01525E-001	-1.23814E-006	0.00000E+000	-2.49516E-007	0.00000E+000	3.53548E-002	3.35833E+001	9	...........	5.92551E-002	-5.55472E-003	6.05632E-001	5.35340E-001	-2.75449E-002	-3.85632E-002	7.04894E-001	-4.43669E-002	-7.33660E-008	6.87751E-009	-7.49855E-007	-6.62824E-007	3.41043E-008	4.77465E-008	-8.72755E-007	5.49324E-008
	187	188	2.01738E-001	-1.24619E-006	0.00000E+000	-2.51404E-007	0.00000E+000	3.52688E-002	3.34139E+001	9	...........	5.91417E-002	-5.51819E-003	6.05422E-001	5.35289E-001	-2.75617E-002	-3.86190E-002	7.04940E-001	-4.44436E-002	-7.37019E-008	6.87673E-009	-7.54472E-007	-6.67073E-007	3.43471E-008	4.81267E-008	-8.78491E-007	5.53853E-008
	188	189	2.01957E-001	-1.24351E-006	0.00000E+000	-2.51135E-007	0.00000E+000	3.53344E-002	3.35692E+001	9	...........	5.92549E-002	-5.49972E-003	6.05209E-001	5.35220E-001	-2.75972E-002	-3.86250E-002	7.04884E-001	-4.44804E-002	-7.36838E-008	6.83894E-009	-7.52582E-007	-6.65549E-007	3.43173E-008	4.80305E-008	-8.76528E-007	5.53117E-008
	189	190	2.02183E-001	-1.24130E-006	0.00000E+000	-2.50970E-007	0.00000E+000	3.53344E-002	3.34768E+001	9	...........	5.92381E-002	-5.42028E-003	6.05115E-001	5.35175E-001	-2.75649E-002	-3.86311E-002	7.04861E-001	-4.44083E-002	-7.35323E-008	6.72820E-009	-7.51131E-007	-6.64314E-007	3.42163E-008	4.79529E-008	-8.74946E-007	5.51242E-008
	190	191	2.02392E-001	-1.25260E-006	0.00000E+000	-2.53515E-007	0.00000E+000	3.52154E-002	3.28486E+001	9	...........	5.90514E-002	-5.56250E-003	6.05047E-001	5.35044E-001	-2.76011E-002	-3.86558E-002	7.04830E-001	-4.43451E-002	-7.39676E-008	6.96757E-009	-7.57880E-007	-6.70195E-007	3.45731E-008	4.84202E-008	-8.82867E-007	5.55466E-008
	191	192	2.02599E-001	-1.25007E-006	0.00000E+000	-2.53262E-007	0.00000E+000	3.53632E-002	3.36092E+001	9	...........	5.93046E-002	-5.58333E-003	6.04945E-001	5.35052E-001	-2.75826E-002	-3.86451E-002	7.04819E-001	-4.44654E-002	-7.41348E-008	6.97955E-009	-7.56223E-007	-6.68852E-007	3.44802E-008	4.83091E-008	-8.81071E-007	5.55848E-008
	192	193	2.02814E-001	-1.24583E-006	0.00000E+000	-2.52670E-007	0.00000E+000	3.53467E-002	3.28638E+001	9	...........	5.92299E-002	-5.63389E-003	6.04959E-001	5.34990E-001	-2.75500E-002	-3.86332E-002	7.04787E-001	-4.45611E-002	-7.37901E-008	7.01885E-009	-7.53674E-007	-6.66504E-007	3.43225E-008	4.81303E-008	-8.78043E-007	5.55154E-008
	193	194	2.03031E-001	-1.25890E-006	0.00000E+000	-2.55595E-007	0.00000E+000	3.52546E-002	3.33530E+001	9	...........	5.91215E-002	-5.68014E-003	6.04835E-001	5.34951E-001	-2.75919E-002	-3.86893E-002	7.04779E-001	-4.45943E-002	-7.44279E-008	7.15071E-009	-7.61425E-007	-6.73448E-007	3.47354E-008	4.87058E-008	-8.87243E-007	5.61396E-008
	194	195	2.03247E-001	-1.26650E-006	0.00000E+000	-2.57413E-007	0.00000E+000	3.53132E-002	3.34585E+001	9	...........	5.92001E-002	-5.69958E-003	6.04830E-001	5.34898E-001	-2.76282E-002	-3.87347E-002	7.04909E-001	-4.46176E-002	-7.49771E-008	7.21853E-009	-7.66018E-007	-6.77450E-007	3.49912E-008	4.90576E-008	-8.92769E-007	5.65083E-008
	195	196	2.03452E-001	-1.26300E-006	0.00000E+000	-2.56961E-007	0.00000E+000	3.52618E-002	3.36829E+001	9	...........	5.91408E-002	-5.72819E-003	6.04978E-001	5.34879E-001	-2.76747E-002	-3.87486E-002	7.04864E-001	-4.45242E-002	-7.46950E-008	7.23472E-009	-7.64088E-007	-6.75553E-007	3.49532E-008	4.89396E-008	-8.90244E-007	5.62341E-008
	196	197	2.03659E-001	-1.25311E-006	0.00000E+000	-2.55207E-007	0.00000E+000	3.52622E-002	3.26773E+001	9	...........	5.91310E-002	-5.76875E-003	6.04993E-001	5.34973E-001	-2.76503E-002	-3.86947E-002	7.04805E-001	-4.44683E-002	-7.40975E-008	7.22887E-009	-7.58122E-007	-6.70379E-007	3.46488E-008	4.84887E-008	-8.83197E-007	5.57236E-008
	197	198	2.03863E-001	-1.26093E-006	0.00000E+000	-2.57058E-007	0.00000E+000	3.52011E-002	3.25798E+001	9	...........	5.90497E-002	-5.69347E-003	6.04894E-001	5.34894E-001	-2.76676E-002	-3.86876E-002	7.04679E-001	-4.43293E-002	-7.44578E-008	7.17909E-009	-7.62732E-007	-6.74465E-007	3.48871E-008	4.87825E-008	-8.88553E-007	5.58963E-008
	198	199	2.04063E-001	-1.25185E-006	0.00000E+000	-2.55458E-007	0.00000E+000	3.53482E-002	3.32152E+001	9	...........	5.92619E-002	-5.60708E-003	6.04902E-001	5.34870E-001	-2.76269E-002	-3.86542E-002	7.04613E-001	-4.44872E-002	-7.41873E-008	7.01925E-009	-7.57250E-007	-6.69580E-007	3.45849E-008	4.83894E-008	-8.82073E-007	5.56915E-008
	199	200	2.04262E-001	-1.25397E-006	0.00000E+000	-2.56137E-007	0.00000E+000	3.52691E-002	3.33364E+001	9	...........	5.91460E-002	-5.63139E-003	6.04856E-001	5.34956E-001	-2.76592E-002	-3.86693E-002	7.04611E-001	-4.45426E-002	-7.41670E-008	7.06157E-009	-7.58469E-007	-6.70816E-007	3.46836E-008	4.84900E-008	-8.83557E-007	5.58549E-008
	200	201	2.04469E-001	-1.25217E-006	0.00000E+000	-2.56029E-007	0.00000E+000	3.53211E-002	3.37509E+001	9	...........	5.92029E-002	-5.70875E-003	6.04858E-001	5.35173E-001	-2.76769E-002	-3.87037E-002	7.04637E-001	-4.45301E-002	-7.41320E-008	7.14831E-009	-7.57384E-007	-6.70127E-007	3.46562E-008	4.84636E-008	-8.82324E-007	5.57592E-008
	201	202	2.04681E-001	-1.25470E-006	0.00000E+000	-2.56813E-007	0.00000E+000	3.52826E-002	3.34062E+001	9	...........	5.91599E-002	-5.75736E-003	6.04886E-001	5.35243E-001	-2.76847E-002	-3.87033E-002	7.04544E-001	-4.44411E-002	-7.42277E-008	7.22374E-009	-7.58948E-007	-6.71567E-007	3.47359E-008	4.85609E-008	-8.83989E-007	5.57601E-008
	202	203	2.04875E-001	-1.24922E-006	0.00000E+000	-2.55935E-007	0.00000E+000	3.52264E-002	3.31038E+001	9	...........	5.90899E-002	-5.70514E-003	6.05035E-001	5.35465E-001	-2.76569E-002	-3.86690E-002	7.04571E-001	-4.44249E-002	-7.38163E-008	7.12698E-009	-7.55823E-007	-6.68914E-007	3.45497E-008	4.83062E-008	-8.80166E-007	5.54965E-008
	203	204	2.05074E-001	-1.24585E-006	0.00000E+000	-2.55490E-007	0.00000E+000	3.53203E-002	3.32853E+001	9	...........	5.92218E-002	-5.76667E-003	6.05209E-001	5.35551E-001	-2.76408E-002	-3.86681E-002	7.04627E-001	-4.44404E-002	-7.37813E-008	7.18439E-009	-7.53998E-007	-6.67215E-007	3.44363E-008	4.81745E-008	-8.77857E-007	5.53660E-008
	204	205	2.05266E-001	-1.24129E-006	0.00000E+000	-2.54795E-007	0.00000E+000	3.52048E-002	3.30366E+001	9	...........	5.90347E-002	-5.60042E-003	6.05274E-001	5.35606E-001	-2.76390E-002	-3.86394E-002	7.04682E-001	-4.44417E-002	-7.32793E-008	6.95175E-009	-7.51321E-007	-6.64843E-007	3.43081E-008	4.79628E-008	-8.74716E-007	5.51651E-008
	205	206	2.05469E-001	-1.23883E-006	0.00000E+000	-2.54540E-007	0.00000E+000	3.53994E-002	3.35877E+001	9	...........	5.93479E-002	-5.69736E-003	6.05194E-001	5.35584E-001	-2.75758E-002	-3.85811E-002	7.04799E-001	-4.42883E-002	-7.35218E-008	7.05804E-009	-7.49730E-007	-6.63496E-007	3.41617E-008	4.77953E-008	-8.73124E-007	5.48656E-008
	206	207	2.05672E-001	-1.24474E-006	0.00000E+000	-2.56008E-007	0.00000E+000	3.53177E-002	3.34553E+001	9	...........	5.92124E-002	-5.79333E-003	6.05227E-001	5.35562E-001	-2.76225E-002	-3.85819E-002	7.04614E-001	-4.43192E-002	-7.37040E-008	7.21119E-009	-7.53351E-007	-6.66636E-007	3.43828E-008	4.80245E-008	-8.77061E-007	5.51658E-008
	207	208	2.05863E-001	-1.24972E-006	0.00000E+000	-2.57272E-007	0.00000E+000	3.52694E-002	3.35242E+001	9	...........	5.91375E-002	-5.75486E-003	6.05187E-001	5.35449E-001	-2.76647E-002	-3.86426E-002	7.04522E-001	-4.43951E-002	-7.39055E-008	7.19198E-009	-7.56317E-007	-6.69164E-007	3.45732E-008	4.82926E-008	-8.80457E-007	5.54816E-008
	208	209	2.06052E-001	-1.25153E-006	0.00000E+000	-2.57881E-007	0.00000E+000	3.52657E-002	3.26748E+001	9	...........	5.91335E-002	-5.61306E-003	6.05254E-001	5.35463E-001	-2.76804E-002	-3.86690E-002	7.04438E-001	-4.45872E-002	-7.40074E-008	7.02491E-009	-7.57494E-007	-6.70149E-007	3.46429E-008	4.83955E-008	-8.81626E-007	5.58023E-008
	209	210	2.06238E-001	-1.25208E-006	0.00000E+000	-2.58228E-007	0.00000E+000	3.52571E-002	3.31357E+001	9	...........	5.91290E-002	-5.62819E-003	6.05395E-001	5.35439E-001	-2.77079E-002	-3.86751E-002	7.04483E-001	-4.44731E-002	-7.40345E-008	7.04698E-009	-7.58006E-007	-6.70415E-007	3.46927E-008	4.84245E-008	-8.82073E-007	5.56840E-008
	210	211	2.06439E-001	-1.24269E-006	0.00000E+000	-2.56540E-007	0.00000E+000	3.53782E-002	3.29217E+001	9	...........	5.93043E-002	-5.70278E-003	6.05449E-001	5.35436E-001	-2.76151E-002	-3.86385E-002	7.04452E-001	-4.44633E-002	-7.36970E-008	7.08680E-009	-7.52387E-007	-6.65382E-007	3.43171E-008	4.80157E-008	-8.75417E-007	5.52542E-008
	211	212	2.06624E-001	-1.24683E-006	0.00000E+000	-2.57625E-007	0.00000E+000	3.52311E-002	3.32057E+001	9	...........	5.90504E-002	-5.60125E-003	6.05450E-001	5.35532E-001	-2.76451E-002	-3.86518E-002	7.04453E-001	-4.45462E-002	-7.36258E-008	6.98380E-009	-7.54893E-007	-6.67717E-007	3.44688E-008	4.81922E-008	-8.78333E-007	5.55416E-008
	212	213	2.06813E-001	-1.25035E-006	0.00000E+000	-2.58588E-007	0.00000E+000	3.53778E-002	3.33547E+001	9	...........	5.93032E-002	-5.69319E-003	6.05511E-001	5.35549E-001	-2.76825E-002	-3.86896E-002	7.04479E-001	-4.44893E-002	-7.41498E-008	7.11849E-009	-7.57101E-007	-6.69624E-007	3.46128E-008	4.83755E-008	-8.80845E-007	5.56272E-008
	213	214	2.06992E-001	-1.24671E-006	0.00000E+000	-2.58060E-007	0.00000E+000	3.51263E-002	3.24605E+001	9	...........	5.90574E-002	-5.61917E-003	6.05603E-001	5.35832E-001	-2.76693E-002	-3.86481E-002	7.04622E-001	-4.43461E-002	-7.36277E-008	7.00550E-009	-7.55015E-007	-6.68029E-007	3.44957E-008	4.81831E-008	-8.78463E-007	5.52869E-008
	214	215	2.07171E-001	-1.23750E-006	0.00000E+000	-2.56374E-007	0.00000E+000	3.53897E-002	3.28878E+001	9	...........	5.93212E-002	-5.66111E-003	6.05608E-001	5.35859E-001	-2.75897E-002	-3.85576E-002	7.04736E-001	-4.42767E-002	-7.34100E-008	7.00562E-009	-7.49439E-007	-6.63125E-007	3.41423E-008	4.77151E-008	-8.72110E-007	5.47924E-008
	215	216	2.07357E-001	-1.24454E-006	0.00000E+000	-2.58065E-007	0.00000E+000	3.54170E-002	3.33331E+001	9	...........	5.93689E-002	-5.72944E-003	6.05527E-001	5.35896E-001	-2.76079E-002	-3.85457E-002	7.04798E-001	-4.46224E-002	-7.38870E-008	7.13053E-009	-7.53603E-007	-6.66945E-007	3.43592E-008	4.79717E-008	-8.77151E-007	5.55344E-008
	216	217	2.07547E-001	-1.26067E-006	0.00000E+000	-2.61649E-007	0.00000E+000	3.52357E-002	3.30468E+001	9	...........	5.91160E-002	-5.83611E-003	6.05309E-001	5.35886E-001	-2.76597E-002	-3.86024E-002	7.04751E-001	-4.47539E-002	-7.45259E-008	7.35742E-009	-7.63096E-007	-6.75576E-007	3.48698E-008	4.86649E-008	-8.88460E-007	5.64200E-008
	217	218	2.07733E-001	-1.25480E-006	0.00000E+000	-2.60664E-007	0.00000E+000	3.52952E-002	3.16878E+001	9	...........	5.91936E-002	-5.72903E-003	6.04974E-001	5.36027E-001	-2.76437E-002	-3.86050E-002	7.04689E-001	-4.45319E-002	-7.42762E-008	7.18879E-009	-7.59122E-007	-6.72607E-007	3.46874E-008	4.84416E-008	-8.84244E-007	5.58787E-008
	218	219	2.07908E-001	-1.25565E-006	0.00000E+000	-2.61059E-007	0.00000E+000	3.52277E-002	3.24834E+001	9	...........	5.90628E-002	-5.66125E-003	6.04875E-001	5.36152E-001	-2.76407E-002	-3.85812E-002	7.04696E-001	-4.44953E-002	-7.41620E-008	7.10853E-009	-7.59510E-007	-6.73218E-007	3.47070E-008	4.84444E-008	-8.84850E-007	5.58704E-008
	219	220	2.08086E-001	-1.25599E-006	0.00000E+000	-2.61355E-007	0.00000E+000	3.53840E-002	3.27609E+001	9	...........	5.93387E-002	-5.64153E-003	6.05006E-001	5.36272E-001	-2.76961E-002	-3.85601E-002	7.04746E-001	-4.45301E-002	-7.45290E-008	7.08571E-009	-7.59882E-007	-6.73553E-007	3.47861E-008	4.84312E-008	-8.85156E-007	5.59295E-008
	220	221	2.08257E-001	-1.25736E-006	0.00000E+000	-2.61855E-007	0.00000E+000	3.53199E-002	3.27227E+001	9	...........	5.92254E-002	-5.69472E-003	6.04975E-001	5.36252E-001	-2.76610E-002	-3.85968E-002	7.04749E-001	-4.47364E-002	-7.44677E-008	7.16032E-009	-7.60672E-007	-6.74263E-007	3.47798E-008	4.85301E-008	-8.86124E-007	5.62498E-008
	221	222	2.08433E-001	-1.25209E-006	0.00000E+000	-2.60978E-007	0.00000E+000	3.53911E-002	3.28607E+001	9	...........	5.93312E-002	-5.58931E-003	6.04771E-001	5.36330E-001	-2.76576E-002	-3.85494E-002	7.04688E-001	-4.46612E-002	-7.42884E-008	6.99834E-009	-7.57230E-007	-6.71536E-007	3.46300E-008	4.82676E-008	-8.82337E-007	5.59201E-008
	222	223	2.08605E-001	-1.25798E-006	0.00000E+000	-2.62420E-007	0.00000E+000	3.52551E-002	3.30426E+001	9	...........	5.91101E-002	-5.59361E-003	6.04554E-001	5.36369E-001	-2.76592E-002	-3.85839E-002	7.04750E-001	-4.45910E-002	-7.43592E-008	7.03663E-009	-7.60515E-007	-6.74740E-007	3.47946E-008	4.85376E-008	-8.86560E-007	5.60944E-008
	223	224	2.08779E-001	-1.24742E-006	0.00000E+000	-2.60437E-007	0.00000E+000	3.53486E-002	3.30598E+001	9	...........	5.93022E-002	-5.58764E-003	6.04463E-001	5.36468E-001	-2.76510E-002	-3.85872E-002	7.04722E-001	-4.44928E-002	-7.39751E-008	6.97016E-009	-7.54022E-007	-6.69204E-007	3.44925E-008	4.81347E-008	-8.79087E-007	5.55014E-008
	224	225	2.08954E-001	-1.24523E-006	0.00000E+000	-2.60196E-007	0.00000E+000	3.53664E-002	3.33491E+001	9	...........	5.92633E-002	-5.56000E-003	6.04581E-001	5.36519E-001	-2.76003E-002	-3.85735E-002	7.04676E-001	-4.44317E-002	-7.37965E-008	6.92348E-009	-7.52842E-007	-6.68090E-007	3.43687E-008	4.80329E-008	-8.77484E-007	5.53277E-008
	225	226	2.09129E-001	-1.25151E-006	0.00000E+000	-2.61727E-007	0.00000E+000	3.53011E-002	3.32947E+001	9	...........	5.91618E-002	-5.64069E-003	6.04459E-001	5.36677E-001	-2.76365E-002	-3.85657E-002	7.04610E-001	-4.44339E-002	-7.40416E-008	7.05938E-009	-7.56487E-007	-6.71657E-007	3.45874E-008	4.82653E-008	-8.81826E-007	5.56095E-008
	226	227	2.09304E-001	-1.24897E-006	0.00000E+000	-2.61415E-007	0.00000E+000	3.53567E-002	3.28834E+001	9	...........	5.92994E-002	-5.71694E-003	6.04463E-001	5.36720E-001	-2.76479E-002	-3.85846E-002	7.04687E-001	-4.43554E-002	-7.40633E-008	7.14030E-009	-7.54957E-007	-6.70348E-007	3.45314E-008	4.81910E-008	-8.80134E-007	5.53986E-008
	227	228	2.09471E-001	-1.25289E-006	0.00000E+000	-2.62444E-007	0.00000E+000	3.52392E-002	3.23298E+001	9	...........	5.90940E-002	-5.64375E-003	6.04425E-001	5.36565E-001	-2.77575E-002	-3.85956E-002	7.04713E-001	-4.43858E-002	-7.40383E-008	7.07099E-009	-7.57278E-007	-6.72257E-007	3.47771E-008	4.83559E-008	-8.82927E-007	5.56105E-008
	228	229	2.09639E-001	-1.25278E-006	0.00000E+000	-2.62633E-007	0.00000E+000	3.53483E-002	3.33568E+001	9	...........	5.92765E-002	-5.57833E-003	6.04500E-001	5.36594E-001	-2.77701E-002	-3.86310E-002	7.04643E-001	-4.44081E-002	-7.42607E-008	6.98845E-009	-7.57308E-007	-6.72236E-007	3.47900E-008	4.83963E-008	-8.82765E-007	5.56337E-008
	229	230	2.09811E-001	-1.25078E-006	0.00000E+000	-2.62427E-007	0.00000E+000	3.53118E-002	3.31341E+001	9	...........	5.92125E-002	-5.66431E-003	6.04573E-001	5.36649E-001	-2.77614E-002	-3.86762E-002	7.04641E-001	-4.44647E-002	-7.40617E-008	7.08479E-009	-7.56186E-007	-6.71230E-007	3.47233E-008	4.83754E-008	-8.81349E-007	5.56155E-008
	230	231	2.09982E-001	-1.24941E-006	0.00000E+000	-2.62354E-007	0.00000E+000	3.53421E-002	3.30488E+001	9	...........	5.92601E-002	-5.72583E-003	6.04670E-001	5.36622E-001	-2.76050E-002	-3.86362E-002	7.04647E-001	-4.45422E-002	-7.40402E-008	7.15391E-009	-7.55481E-007	-6.70461E-007	3.44900E-008	4.82725E-008	-8.80393E-007	5.56515E-008
	231	232	2.10152E-001	-1.24345E-006	0.00000E+000	-2.61315E-007	0.00000E+000	3.53486E-002	3.32692E+001	9	...........	5.92464E-002	-5.62250E-003	6.04834E-001	5.36872E-001	-2.75992E-002	-3.86564E-002	7.04728E-001	-4.45354E-002	-7.36702E-008	6.99132E-009	-7.52083E-007	-6.67576E-007	3.43183E-008	4.80675E-008	-8.76298E-007	5.53778E-008
	232	233	2.10321E-001	-1.23844E-006	0.00000E+000	-2.60470E-007	0.00000E+000	3.52802E-002	3.33475E+001	9	...........	5.91603E-002	-5.61125E-003	6.04753E-001	5.36770E-001	-2.78172E-002	-3.86289E-002	7.04774E-001	-4.44407E-002	-7.32664E-008	6.94920E-009	-7.48950E-007	-6.64757E-007	3.44500E-008	4.78396E-008	-8.72820E-007	5.50371E-008
	233	234	2.10485E-001	-1.23643E-006	0.00000E+000	-2.60251E-007	0.00000E+000	3.52642E-002	3.27546E+001	9	...........	5.91203E-002	-5.62319E-003	6.04792E-001	5.36647E-001	-2.75764E-002	-3.86261E-002	7.04711E-001	-4.43825E-002	-7.30983E-008	6.95271E-009	-7.47786E-007	-6.63529E-007	3.40964E-008	4.77586E-008	-8.71329E-007	5.48760E-008
	234	235	2.10653E-001	-1.24215E-006	0.00000E+000	-2.61662E-007	0.00000E+000	3.53770E-002	3.34591E+001	9	...........	5.93181E-002	-5.50222E-003	6.04762E-001	5.36805E-001	-2.74778E-002	-3.85947E-002	7.04773E-001	-4.43244E-002	-7.36819E-008	6.83458E-009	-7.51205E-007	-6.66792E-007	3.41315E-008	4.79404E-008	-8.75433E-007	5.50576E-008
	235	236	2.10820E-001	-1.24427E-006	0.00000E+000	-2.62317E-007	0.00000E+000	3.53335E-002	3.32040E+001	9	...........	5.92636E-002	-5.47111E-003	6.05011E-001	5.36715E-001	-2.75181E-002	-3.85725E-002	7.04717E-001	-4.43214E-002	-7.37399E-008	6.80754E-009	-7.52797E-007	-6.67818E-007	3.42399E-008	4.79946E-008	-8.76858E-007	5.51478E-008
	236	237	2.10982E-001	-1.24716E-006	0.00000E+000	-2.63129E-007	0.00000E+000	3.52794E-002	3.34907E+001	9	...........	5.91476E-002	-5.50583E-003	6.05048E-001	5.36778E-001	-2.75500E-002	-3.85632E-002	7.04665E-001	-4.43093E-002	-7.37668E-008	6.86667E-009	-7.54594E-007	-6.69450E-007	3.43594E-008	4.80946E-008	-8.78832E-007	5.52610E-008
	237	238	2.11145E-001	-1.24130E-006	0.00000E+000	-2.62094E-007	0.00000E+000	3.53429E-002	3.35954E+001	9	...........	5.92667E-002	-5.48861E-003	6.04985E-001	5.36711E-001	-2.75510E-002	-3.85306E-002	7.04715E-001	-4.43550E-002	-7.35679E-008	6.81303E-009	-7.50970E-007	-6.66220E-007	3.41991E-008	4.78281E-008	-8.74764E-007	5.50580E-008
	238	239	2.11309E-001	-1.24881E-006	0.00000E+000	-2.63886E-007	0.00000E+000	3.54181E-002	3.28983E+001	9	...........	5.93812E-002	-5.56458E-003	6.04835E-001	5.36680E-001	-2.75964E-002	-3.85392E-002	7.04723E-001	-4.44053E-002	-7.41562E-008	6.94913E-009	-7.55327E-007	-6.70214E-007	3.44628E-008	4.81283E-008	-8.80069E-007	5.54539E-008
	239	240	2.11462E-001	-1.25080E-006	0.00000E+000	-2.64497E-007	0.00000E+000	3.51910E-002	3.26997E+001	9	...........	5.89981E-002	-5.61653E-003	6.04896E-001	5.36671E-001	-2.75639E-002	-3.85207E-002	7.04763E-001	-4.44453E-002	-7.37947E-008	7.02515E-009	-7.56604E-007	-6.71268E-007	3.44769E-008	4.81817E-008	-8.81518E-007	5.55921E-008
	240	241	2.11619E-001	-1.25736E-006	0.00000E+000	-2.66081E-007	0.00000E+000	3.53837E-002	3.35794E+001	9	...........	5.93061E-002	-5.79083E-003	6.04901E-001	5.36504E-001	-2.76247E-002	-3.86176E-002	7.04745E-001	-4.45522E-002	-7.45692E-008	7.28117E-009	-7.60579E-007	-6.74579E-007	3.47342E-008	4.85563E-008	-8.86118E-007	5.60182E-008
	241	242	2.11782E-001	-1.25464E-006	0.00000E+000	-2.65711E-007	0.00000E+000	3.53603E-002	3.33254E+001	9	...........	5.92929E-002	-5.71111E-003	6.05051E-001	5.36474E-001	-2.76337E-002	-3.86074E-002	7.04719E-001	-4.45471E-002	-7.43915E-008	7.16541E-009	-7.59124E-007	-6.73085E-007	3.46705E-008	4.84385E-008	-8.84172E-007	5.58907E-008
	242	243	2.11943E-001	-1.25255E-006	0.00000E+000	-2.65470E-007	0.00000E+000	3.51087E-002	3.35030E+001	9	...........	5.88978E-002	-5.67917E-003	6.05153E-001	5.36463E-001	-2.76328E-002	-3.86285E-002	7.04759E-001	-4.45486E-002	-7.37727E-008	7.11347E-009	-7.57987E-007	-6.71950E-007	3.46116E-008	4.83843E-008	-8.82749E-007	5.57996E-008
	243	244	2.12103E-001	-1.25629E-006	0.00000E+000	-2.66464E-007	0.00000E+000	3.54188E-002	3.31327E+001	9	...........	5.93587E-002	-5.80042E-003	6.05314E-001	5.36361E-001	-2.76267E-002	-3.86293E-002	7.04854E-001	-4.45350E-002	-7.45721E-008	7.28703E-009	-7.60453E-007	-6.73828E-007	3.47072E-008	4.85298E-008	-8.85504E-007	5.59491E-008
	244	245	2.12257E-001	-1.26269E-006	0.00000E+000	-2.68014E-007	0.00000E+000	3.52402E-002	3.28595E+001	9	...........	5.90972E-002	-5.75486E-003	6.05159E-001	5.36302E-001	-2.76129E-002	-3.86175E-002	7.04791E-001	-4.44979E-002	-7.46214E-008	7.26660E-009	-7.64128E-007	-6.77182E-007	3.48665E-008	4.87619E-008	-8.89932E-007	5.61870E-008
	245	246	2.12413E-001	-1.25155E-006	0.00000E+000	-2.65845E-007	0.00000E+000	3.53324E-002	3.37800E+001	9	...........	5.92364E-002	-5.68611E-003	6.05085E-001	5.36337E-001	-2.75781E-002	-3.85864E-002	7.04803E-001	-4.45097E-002	-7.41374E-008	7.11646E-009	-7.57295E-007	-6.71254E-007	3.45154E-008	4.82929E-008	-8.82097E-007	5.57062E-008
	246	247	2.12575E-001	-1.25539E-006	0.00000E+000	-2.66864E-007	0.00000E+000	3.52806E-002	3.32992E+001	9	...........	5.91956E-002	-5.74986E-003	6.05170E-001	5.36374E-001	-2.75965E-002	-3.86328E-002	7.04597E-001	-4.45479E-002	-7.43133E-008	7.21829E-009	-7.59722E-007	-6.73356E-007	3.46443E-008	4.84990E-008	-8.84541E-007	5.59248E-008
	247	248	2.12729E-001	-1.26723E-006	0.00000E+000	-2.69577E-007	0.00000E+000	3.52403E-002	3.35929E+001	9	...........	5.90967E-002	-5.72806E-003	6.05062E-001	5.36299E-001	-2.76431E-002	-3.86157E-002	7.04644E-001	-4.44665E-002	-7.48893E-008	7.25878E-009	-7.66755E-007	-6.79616E-007	3.50302E-008	4.89351E-008	-8.92948E-007	5.63495E-008
	248	249	2.12879E-001	-1.26133E-006	0.00000E+000	-2.68511E-007	0.00000E+000	3.52946E-002	3.28281E+001	9	...........	5.91674E-002	-5.67681E-003	6.05018E-001	5.36176E-001	-2.77768E-002	-3.86404E-002	7.04680E-001	-4.45367E-002	-7.46296E-008	7.16033E-009	-7.63128E-007	-6.76295E-007	3.50357E-008	4.87383E-008	-8.88834E-007	5.61755E-008
	249	250	2.13027E-001	-1.26482E-006	0.00000E+000	-2.69441E-007	0.00000E+000	3.52156E-002	3.35933E+001	9	...........	5.91076E-002	-5.68875E-003	6.05150E-001	5.36181E-001	-2.76764E-002	-3.86701E-002	7.04791E-001	-4.45800E-002	-7.47605E-008	7.19525E-009	-7.65406E-007	-6.78172E-007	3.50057E-008	4.89108E-008	-8.91434E-007	5.63857E-008
	250	251	2.13186E-001	-1.26624E-006	0.00000E+000	-2.69945E-007	0.00000E+000	3.53182E-002	3.36168E+001	9	...........	5.92347E-002	-5.76889E-003	6.04980E-001	5.36219E-001	-2.76060E-002	-3.86653E-002	7.04765E-001	-4.45460E-002	-7.50054E-008	7.30480E-009	-7.66050E-007	-6.78983E-007	3.49558E-008	4.89596E-008	-8.92402E-007	5.64059E-008
	251	252	2.13345E-001	-1.26641E-006	0.00000E+000	-2.70182E-007	0.00000E+000	3.52170E-002	3.30637E+001	9	...........	5.90575E-002	-5.81528E-003	6.04941E-001	5.36336E-001	-2.75721E-002	-3.86211E-002	7.04770E-001	-4.45385E-002	-7.47909E-008	7.36451E-009	-7.66103E-007	-6.79221E-007	3.49175E-008	4.89101E-008	-8.92527E-007	5.64039E-008
	252	253	2.13486E-001	-1.25747E-006	0.00000E+000	-2.68452E-007	0.00000E+000	3.53008E-002	3.30697E+001	9	...........	5.92026E-002	-5.83944E-003	6.04940E-001	5.36164E-001	-2.90062E-002	-3.86717E-002	7.04840E-001	-4.43819E-002	-7.44453E-008	7.34290E-009	-7.60691E-007	-6.74208E-007	3.64743E-008	4.86283E-008	-8.86312E-007	5.58087E-008
	253	254	2.13628E-001	-1.25979E-006	0.00000E+000	-2.69127E-007	0.00000E+000	3.52679E-002	3.31063E+001	9	...........	5.91283E-002	-5.77597E-003	6.04967E-001	5.35857E-001	-4.29732E-002	-3.77353E-002	7.05111E-001	-4.46242E-002	-7.44896E-008	7.27654E-009	-7.62135E-007	-6.75071E-007	5.41374E-008	4.75387E-008	-8.88295E-007	5.62173E-008
	254	255	2.13773E-001	-1.25699E-006	0.00000E+000	-2.68712E-007	0.00000E+000	3.52655E-002	3.37090E+001	9	...........	5.91656E-002	-5.63083E-003	6.04841E-001	5.36141E-001	-2.56586E-002	-4.01629E-002	7.04490E-001	-4.44958E-002	-7.43708E-008	7.07793E-009	-7.60282E-007	-6.73926E-007	3.22527E-008	5.04846E-008	-8.85540E-007	5.59310E-008
	255	256	2.13931E-001	-1.25934E-006	0.00000E+000	-2.69411E-007	0.00000E+000	3.53526E-002	3.32511E+001	9	...........	5.92786E-002	-5.63542E-003	6.04779E-001	5.36234E-001	-2.24899E-002	-4.06292E-002	7.04395E-001	-4.44850E-002	-7.46516E-008	7.09688E-009	-7.61619E-007	-6.75298E-007	2.83223E-008	5.11657E-008	-8.87070E-007	5.60215E-008
	256	257	2.14081E-001	-1.26091E-006	0.00000E+000	-2.69938E-007	0.00000E+000	3.52406E-002	3.32671E+001	9	...........	5.91237E-002	-5.64625E-003	6.05005E-001	5.36195E-001	-2.34401E-002	-4.00636E-002	7.04542E-001	-4.45846E-002	-7.45499E-008	7.11943E-009	-7.62858E-007	-6.76095E-007	2.95560E-008	5.05167E-008	-8.88366E-007	5.62173E-008
	257	258	2.14226E-001	-1.25234E-006	0.00000E+000	-2.68282E-007	0.00000E+000	3.53012E-002	3.25224E+001	9	...........	5.91868E-002	-5.69972E-003	6.05101E-001	5.36319E-001	-2.46899E-002	-3.93893E-002	7.04706E-001	-4.45853E-002	-7.41217E-008	7.13796E-009	-7.57789E-007	-6.71651E-007	3.09200E-008	4.93286E-008	-8.82528E-007	5.58357E-008
	258	259	2.14355E-001	-1.25281E-006	0.00000E+000	-2.68546E-007	0.00000E+000	3.52042E-002	3.30464E+001	9	...........	5.90450E-002	-5.74306E-003	6.05232E-001	5.36360E-001	-2.54635E-002	-3.89149E-002	7.04657E-001	-4.45800E-002	-7.39719E-008	7.19493E-009	-7.58237E-007	-6.71955E-007	3.19008E-008	4.87527E-008	-8.82798E-007	5.58501E-008
	259	260	2.14499E-001	-1.25495E-006	0.00000E+000	-2.69185E-007	0.00000E+000	3.53662E-002	3.34034E+001	9	...........	5.93024E-002	-5.74250E-003	6.05210E-001	5.36025E-001	-2.60379E-002	-3.86321E-002	7.04711E-001	-4.45031E-002	-7.44213E-008	7.20653E-009	-7.59507E-007	-6.72683E-007	3.26762E-008	4.84812E-008	-8.84375E-007	5.58490E-008
	260	261	2.14644E-001	-1.24266E-006	0.00000E+000	-2.66730E-007	0.00000E+000	3.53560E-002	3.28829E+001	9	...........	5.92772E-002	-5.63611E-003	6.05080E-001	5.36091E-001	-2.63600E-002	-3.84932E-002	7.04668E-001	-4.43987E-002	-7.36615E-008	7.00377E-009	-7.51910E-007	-6.66179E-007	3.27565E-008	4.78340E-008	-8.75663E-007	5.51726E-008
	261	262	2.14791E-001	-1.24881E-006	0.00000E+000	-2.68234E-007	0.00000E+000	3.52836E-002	3.31778E+001	9	...........	5.91732E-002	-5.59042E-003	6.05052E-001	5.36231E-001	-2.65953E-002	-3.83996E-002	7.04661E-001	-4.43935E-002	-7.38963E-008	6.98139E-009	-7.55597E-007	-6.69653E-007	3.32126E-008	4.79540E-008	-8.79991E-007	5.54392E-008
	262	263	2.14939E-001	-1.24692E-006	0.00000E+000	-2.68012E-007	0.00000E+000	3.53154E-002	3.30810E+001	9	...........	5.91946E-002	-5.61653E-003	6.05148E-001	5.36264E-001	-2.67926E-002	-3.82210E-002	7.04797E-001	-4.45517E-002	-7.38111E-008	7.00338E-009	-7.54574E-007	-6.68680E-007	3.34084E-008	4.76586E-008	-8.78828E-007	5.55525E-008
	263	264	2.15075E-001	-1.23432E-006	0.00000E+000	-2.65472E-007	0.00000E+000	3.53261E-002	3.31766E+001	9	...........	5.92378E-002	-5.46556E-003	6.05251E-001	5.36308E-001	-2.69606E-002	-3.81269E-002	7.05011E-001	-4.46471E-002	-7.31186E-008	6.74626E-009	-7.47076E-007	-6.61978E-007	3.32780E-008	4.70610E-008	-8.70212E-007	5.51089E-008
	264	265	2.15210E-001	-1.23480E-006	0.00000E+000	-2.65743E-007	0.00000E+000	3.53949E-002	3.32044E+001	9	...........	5.93643E-002	-5.64917E-003	6.05254E-001	5.36329E-001	-2.71218E-002	-3.80517E-002	7.04993E-001	-4.46018E-002	-7.33033E-008	6.97561E-009	-7.47370E-007	-6.62261E-007	3.34901E-008	4.69864E-008	-8.70528E-007	5.50745E-008
	265	266	2.15350E-001	-1.23327E-006	0.00000E+000	-2.65584E-007	0.00000E+000	3.53104E-002	3.33071E+001	9	...........	5.92286E-002	-5.66944E-003	6.05218E-001	5.36214E-001	-2.71808E-002	-3.79799E-002	7.04884E-001	-4.44347E-002	-7.30448E-008	6.99195E-009	-7.46396E-007	-6.61296E-007	3.35213E-008	4.68394E-008	-8.69311E-007	5.47999E-008
	266	267	2.15488E-001	-1.23518E-006	0.00000E+000	-2.66167E-007	0.00000E+000	3.52959E-002	3.34728E+001	9	...........	5.91587E-002	-5.54319E-003	6.05332E-001	5.36179E-001	-2.72321E-002	-3.79497E-002	7.04895E-001	-4.44475E-002	-7.30717E-008	6.84684E-009	-7.47694E-007	-6.62277E-007	3.36365E-008	4.68747E-008	-8.70673E-007	5.49007E-008
	267	268	2.15629E-001	-1.23794E-006	0.00000E+000	-2.66935E-007	0.00000E+000	3.54498E-002	3.32638E+001	9	...........	5.94518E-002	-5.58306E-003	6.05325E-001	5.36144E-001	-2.72964E-002	-3.79433E-002	7.04939E-001	-4.45287E-002	-7.35977E-008	6.91148E-009	-7.49356E-007	-6.63713E-007	3.37912E-008	4.69715E-008	-8.72671E-007	5.51239E-008
